Wavelength	ref00107.asd
350	 0.019717584272432 
351	 2.00236432373106E-02 
352	 0.019908098456961 
353	 1.97670402542385E-02 
354	 1.91738292127699E-02 
355	 1.88472496693031E-02 
356	 0.019085964767611 
357	 0.018899545720066 
358	 1.94155723435069E-02 
359	 1.96387387486976E-02 
360	 0.018680302753423 
361	 1.88332883090283E-02 
362	 1.92079415464281E-02 
363	 1.92652294006791E-02 
364	 1.88958170630446E-02 
365	 0.018888724863238 
366	 1.89442244554571E-02 
367	 1.88371351662795E-02 
368	 1.86297780751781E-02 
369	 1.89143588651494E-02 
370	 1.90389333599395E-02 
371	 1.86225124522833E-02 
372	 1.91035547999747E-02 
373	 1.91466216702578E-02 
374	 1.88612783654871E-02 
375	 1.90022459692322E-02 
376	 1.89851848464189E-02 
377	 1.89946780739568E-02 
378	 1.90065089097875E-02 
379	 0.018685923780965 
380	 1.86453006075414E-02 
381	 1.87485691890509E-02 
382	 1.87639690255064E-02 
383	 1.86666934839042E-02 
384	 1.86277310782938E-02 
385	 1.86587541485601E-02 
386	 1.87034378753575E-02 
387	 1.87522149333332E-02 
388	 1.91732571343531E-02 
389	 1.96481342781531E-02 
390	 1.92198468012374E-02 
391	 1.90720224444707E-02 
392	 1.90265446713746E-02 
393	 1.88693234042223E-02 
394	 1.88979425768633E-02 
395	 1.90034934622014E-02 
396	 1.91139930714757E-02 
397	 1.91790486295971E-02 
398	 1.91990227524286E-02 
399	 1.92619629171409E-02 
400	 1.94242905734474E-02 
401	 1.96824851216299E-02 
402	 1.95592546111252E-02 
403	 1.95549295642516E-02 
404	 1.98539634901127E-02 
405	 1.96989247409103E-02 
406	 1.96938732723047E-02 
407	 1.97261699913416E-02 
408	 1.95798090022659E-02 
409	 1.97928400510704E-02 
410	 2.00302021211284E-02 
411	 2.01829562941236E-02 
412	 2.03640333427472E-02 
413	 2.03139585820163E-02 
414	 2.03425077444233E-02 
415	 2.05895977566307E-02 
416	 2.06663503805258E-02 
417	 0.020739276570741 
418	 2.08207438794404E-02 
419	 2.08806331223761E-02 
420	 2.09014866094493E-02 
421	 2.10467943257526E-02 
422	 2.12422920343613E-02 
423	 2.12333913526384E-02 
424	 2.14772200817924E-02 
425	 2.15921404691617E-02 
426	 2.13854732860859E-02 
427	 2.13444665153642E-02 
428	 2.15248863752308E-02 
429	 2.16629745804389E-02 
430	 2.15245630041548E-02 
431	 2.17118119975601E-02 
432	 2.19114896453591E-02 
433	 2.19854105139408E-02 
434	 2.20015190197879E-02 
435	 2.20945651026582E-02 
436	 2.21777995042732E-02 
437	 2.21954530692335E-02 
438	 2.22295204534276E-02 
439	 2.22863484637397E-02 
440	 2.23379170530395E-02 
441	 2.23674820955269E-02 
442	 2.25071730968981E-02 
443	 2.25887035924289E-02 
444	 2.26493063664272E-02 
445	 2.29120816346369E-02 
446	 2.29236408104779E-02 
447	 2.29017747338741E-02 
448	 2.30476086143023E-02 
449	 2.32283960386472E-02 
450	 2.33686014323175E-02 
451	 2.34470120299381E-02 
452	 2.34825518140048E-02 
453	 2.35286793526058E-02 
454	 2.36470111770799E-02 
455	 2.38095002237994E-02 
456	 2.38888468047849E-02 
457	 2.39777170839996E-02 
458	 2.40380765662796E-02 
459	 2.40461680296124E-02 
460	 2.41012503937105E-02 
461	 2.41770546765385E-02 
462	 2.42292076014927E-02 
463	 2.42161198639332E-02 
464	 2.42156737310376E-02 
465	 2.42303753617581E-02 
466	 2.42650942253365E-02 
467	 0.024342529053193 
468	 2.43935373767734E-02 
469	 2.44058053463873E-02 
470	 0.024406881286996 
471	 2.44971977002723E-02 
472	 2.45964793886615E-02 
473	 2.46979983924419E-02 
474	 2.48355805421506E-02 
475	 2.48499811854379E-02 
476	 0.024857503981029 
477	 2.49318737407624E-02 
478	 2.49890760633486E-02 
479	 2.51363848350958E-02 
480	 2.52998124595298E-02 
481	 2.53711001842927E-02 
482	 2.54037048332636E-02 
483	 2.54494954073703E-02 
484	 2.55104818689187E-02 
485	 2.55437209628062E-02 
486	 0.025649622260397 
487	 2.58304321349873E-02 
488	 2.60490253935729E-02 
489	 2.62289835674608E-02 
490	 2.64314733109568E-02 
491	 2.66268603462847E-02 
492	 2.67784422758112E-02 
493	 2.70290593319777E-02 
494	 2.74225992773643E-02 
495	 2.78771608680725E-02 
496	 2.81752285555197E-02 
497	 0.028553369208495 
498	 2.90750514533979E-02 
499	 2.97172116229237E-02 
500	 3.03210076990341E-02 
501	 0.03100628124083 
502	 3.18446142620383E-02 
503	 3.28426139835496E-02 
504	 3.37238432081434E-02 
505	 0.034700080936182 
506	 3.58852088345291E-02 
507	 3.71340298920086E-02 
508	 3.85491346304285E-02 
509	 4.01162120523986E-02 
510	 4.17939509511933E-02 
511	 0.043573472156644 
512	 4.56341899048777E-02 
513	 4.78907410642984E-02 
514	 5.00554954582721E-02 
515	 5.24482256235747E-02 
516	 5.51049142262878E-02 
517	 5.79537833459109E-02 
518	 6.08023172617304E-02 
519	 6.40080359772563E-02 
520	 6.73635685645072E-02 
521	 7.05093426711631E-02 
522	 7.35565454246491E-02 
523	 0.076710794801754 
524	 7.99600855300551E-02 
525	 8.30099383073786E-02 
526	 8.61510077872248E-02 
527	 8.92989412971324E-02 
528	 9.23202997589555E-02 
529	 9.51950082993999E-02 
530	 9.79012974728973E-02 
531	 0.100410748759829 
532	 0.102725871255019 
533	 0.105036169447995 
534	 0.107261053022671 
535	 0.10931871440725 
536	 0.11120324610076 
537	 0.112911172309839 
538	 0.114496307435607 
539	 0.116016555469339 
540	 0.117471689037676 
541	 0.118860801194133 
542	 0.120184780496073 
543	 0.121446643557664 
544	 0.122695794244403 
545	 0.123952594196437 
546	 0.125167084721443 
547	 0.126115408304798 
548	 0.127080994571095 
549	 0.128072265570192 
550	 0.128974658541157 
551	 0.129723411208063 
552	 0.130233005620679 
553	 0.130531643427597 
554	 0.130775449033309 
555	 0.13076012278347 
556	 0.130562383928096 
557	 0.130236923347662 
558	 0.129520986115489 
559	 0.128679216763014 
560	 0.127767678741982 
561	 0.126693396200636 
562	 0.125439911401288 
563	 0.123995225208693 
564	 0.122383999768143 
565	 0.120695119533093 
566	 0.119078328317448 
567	 0.117403264596353 
568	 0.115500817808202 
569	 0.113533303572845 
570	 0.111463264877941 
571	 0.10935895919445 
572	 0.107375414556889 
573	 0.105406831599273 
574	 0.103531802162733 
575	 0.10178897607364 
576	 0.100071067281013 
577	 9.85490029489993E-02 
578	 9.72365873669768E-02 
579	 9.60539361110992E-02 
580	 9.49234683325663E-02 
581	 9.38806554067091E-02 
582	 9.28909862905974E-02 
583	 9.18124010873386E-02 
584	 9.07054369000355E-02 
585	 8.97050820846513E-02 
586	 8.88769704533632E-02 
587	 8.79329103077761E-02 
588	 8.70337346256325E-02 
589	 8.62023421195833E-02 
590	 8.53806304412036E-02 
591	 0.084674161741067 
592	 8.40577920827344E-02 
593	 8.34675029165831E-02 
594	 8.28344261279974E-02 
595	 8.23861436664627E-02 
596	 8.19566267165699E-02 
597	 8.13502504450551E-02 
598	 8.09699188796911E-02 
599	 0.080617309407315 
600	 8.02271001723353E-02 
601	 7.98879285366218E-02 
602	 7.94254035968444E-02 
603	 7.88705866602041E-02 
604	 7.82765605332808E-02 
605	 7.76313218069749E-02 
606	 7.68746398999849E-02 
607	 7.60166993238797E-02 
608	 7.51087601515778E-02 
609	 7.41761030486306E-02 
610	 7.31678542814429E-02 
611	 7.21163151241621E-02 
612	 7.11709601099576E-02 
613	 7.01223524455563E-02 
614	 6.90523967321219E-02 
615	 6.80682662016358E-02 
616	 6.70292303635092E-02 
617	 6.60717320575157E-02 
618	 6.52253545087713E-02 
619	 6.44317396004028E-02 
620	 6.38030429460626E-02 
621	 6.32093420357412E-02 
622	 6.26088982710367E-02 
623	 6.21940173165174E-02 
624	 6.18188558955079E-02 
625	 6.14849983172493E-02 
626	 0.061245623748776 
627	 6.11457603421057E-02 
628	 6.10388515638494E-02 
629	 6.09107898116333E-02 
630	 6.08736795999238E-02 
631	 6.06991173343191E-02 
632	 6.04111786347787E-02 
633	 6.00474087667463E-02 
634	 5.95371600205271E-02 
635	 5.89204380790933E-02 
636	 5.81668894292671E-02 
637	 5.72304460577916E-02 
638	 5.61446552709451E-02 
639	 5.49753872466125E-02 
640	 5.37379083284636E-02 
641	 5.24158577085966E-02 
642	 5.10929935411717E-02 
643	 4.97596892143023E-02 
644	 4.84066063833824E-02 
645	 4.71550589279304E-02 
646	 4.59630423277125E-02 
647	 4.48002495424811E-02 
648	 4.36658552306542E-02 
649	 0.042783470558918 
650	 4.19895730171611E-02 
651	 4.12672294652194E-02 
652	 4.08736227975865E-02 
653	 4.05317523931298E-02 
654	 4.01237833614921E-02 
655	 3.96062689973338E-02 
656	 0.039100995063068 
657	 3.85485432968019E-02 
658	 3.79110084006941E-02 
659	 3.70966954576704E-02 
660	 0.03626028762392 
661	 3.53606935320864E-02 
662	 3.44398288634174E-02 
663	 3.37011724330108E-02 
664	 0.03286505098589 
665	 3.20185308804963E-02 
666	 3.13407067403067E-02 
667	 3.08186896780231E-02 
668	 3.02892274997583E-02 
669	 2.98026340661104E-02 
670	 2.95806471406569E-02 
671	 2.93388687331475E-02 
672	 2.91980059916728E-02 
673	 2.92226947766825E-02 
674	 2.91694946496165E-02 
675	 2.91761343229531E-02 
676	 2.92551582439779E-02 
677	 2.93892806478304E-02 
678	 2.96619840019699E-02 
679	 2.99839049084613E-02 
680	 3.03394884131089E-02 
681	 3.08059547889258E-02 
682	 3.15483713056467E-02 
683	 3.25591033016489E-02 
684	 3.38093541135451E-02 
685	 3.52871117024177E-02 
686	 3.73328364101269E-02 
687	 4.01673861496972E-02 
688	 0.043621753309253 
689	 4.72817658757538E-02 
690	 5.16647352095664E-02 
691	 5.70608333611515E-02 
692	 6.31252142093096E-02 
693	 7.03172955647474E-02 
694	 7.84900654250241E-02 
695	 8.73413443613366E-02 
696	 9.67173292765503E-02 
697	 0.106546699281785 
698	 0.116954822859953 
699	 0.128005259016538 
700	 0.139188906190718 
701	 0.150658843868751 
702	 0.162320287495608 
703	 0.173676705657353 
704	 0.184903451433772 
705	 0.195994759623199 
706	 0.207011020728486 
707	 0.217934208829907 
708	 0.228788723983093 
709	 0.239592870356666 
710	 0.250318181889988 
711	 0.261132302680494 
712	 0.271892427287325 
713	 0.282568291361306 
714	 0.293284185320461 
715	 0.304130521357358 
716	 0.315233278765316 
717	 0.326855366852054 
718	 0.338603818669563 
719	 0.349903396127512 
720	 0.360267232175192 
721	 0.369794228547046 
722	 0.379094301592552 
723	 0.388884953879469 
724	 0.399449406845766 
725	 0.409398815057745 
726	 0.418611455839819 
727	 0.427290236993674 
728	 0.435797905366935 
729	 0.443865863679187 
730	 0.451607467837285 
731	 0.458780939442684 
732	 0.465192901939174 
733	 0.471185013133515 
734	 0.477074763612575 
735	 0.482941287356292 
736	 0.488512901607206 
737	 0.493927905054416 
738	 0.498748469614574 
739	 0.502958028095287 
740	 0.507393980712386 
741	 0.511390515737306 
742	 0.514948717780601 
743	 0.518251099224166 
744	 0.521313457451843 
745	 0.524298805414441 
746	 0.527082481973765 
747	 0.52936825800839 
748	 0.531676041256496 
749	 0.533787517443606 
750	 0.535581316430099 
751	 0.537272500580774 
752	 0.538808500234019 
753	 0.540195398158982 
754	 0.541453382617848 
755	 0.542564943606709 
756	 0.543811219441619 
757	 0.545265801063209 
758	 0.546819033337824 
759	 0.547756177958207 
760	 0.548227989670191 
761	 0.54859247254503 
762	 0.549549755924038 
763	 0.549587385447971 
764	 0.549380815916548 
765	 0.549511230073601 
766	 0.549771041866742 
767	 0.550117176333379 
768	 0.550407895672086 
769	 0.550540646385416 
770	 0.550690686924558 
771	 0.550914776699977 
772	 0.551190446843591 
773	 0.551433807500992 
774	 0.551623704102624 
775	 0.551773304100697 
776	 0.551936742969441 
777	 0.552229150396019 
778	 0.552365978807407 
779	 0.55248373057138 
780	 0.552747762520675 
781	 0.553003457974773 
782	 0.553116052557794 
783	 0.553200373536516 
784	 0.553470174262038 
785	 0.553781132899204 
786	 0.554072323785168 
787	 0.554354563828207 
788	 0.55470406554331 
789	 0.555115679163883 
790	 0.555436854106244 
791	 0.555568245724823 
792	 0.555565820914312 
793	 0.555602077085104 
794	 0.555727748129922 
795	 0.555933339357041 
796	 0.556192851404301 
797	 0.556482096915497 
798	 0.556702931174788 
799	 0.556773668646421 
800	 0.557040019962825 
801	 0.557353740482872 
802	 0.557575105397484 
803	 0.557647882681969 
804	 0.557627471438038 
805	 0.557719908975388 
806	 0.5579778408419 
807	 0.558091742063178 
808	 0.558213059042442 
809	 0.55852883576991 
810	 0.559154204557165 
811	 0.559901634199516 
812	 0.560624007263896 
813	 0.561386158951217 
814	 0.562315774104222 
815	 0.563008556798928 
816	 0.563557476120465 
817	 0.563882829451511 
818	 0.56373412003837 
819	 0.563530175393055 
820	 0.563563937472718 
821	 0.563725279843814 
822	 0.563294604952807 
823	 0.563355492895215 
824	 0.563736698479095 
825	 0.563947660399774 
826	 0.563723073055933 
827	 0.563579269792381 
828	 0.563562732603653 
829	 0.563554941523124 
830	 0.563749258937209 
831	 0.563755324855924 
832	 0.563518297598857 
833	 0.563266997343365 
834	 0.563102517648242 
835	 0.563065856149392 
836	 0.563086503123487 
837	 0.562996290121641 
838	 0.562943722591411 
839	 0.562977001183697 
840	 0.563080183303931 
841	 0.563160228486767 
842	 0.563103586037833 
843	 0.563129258062361 
844	 0.56341767150464 
845	 0.563686441949433 
846	 0.56403427125226 
847	 0.564251218141204 
848	 0.564138973358502 
849	 0.564246874953818 
850	 0.564485902415076 
851	 0.564813632990883 
852	 0.565155252717501 
853	 0.564712790042382 
854	 0.564445772157036 
855	 0.564868242563833 
856	 0.565672202387961 
857	 0.566033922309906 
858	 0.566122394424968 
859	 0.566130480597156 
860	 0.565973184358205 
861	 0.566186449427771 
862	 0.566536230160209 
863	 0.566698107164491 
864	 0.566681894607915 
865	 0.566304801136795 
866	 0.566033085645116 
867	 0.566333298316024 
868	 0.566727586348242 
869	 0.56738522524628 
870	 0.567770159906777 
871	 0.567403275202583 
872	 0.567719666060467 
873	 0.567720033925192 
874	 0.567487370291914 
875	 0.567821279876195 
876	 0.568157415765957 
877	 0.568059067232431 
878	 0.567814113820715 
879	 0.568265319772179 
880	 0.568304711355854 
881	 0.568141112848113 
882	 0.568068391266442 
883	 0.568200470755739 
884	 0.568432794948313 
885	 0.568563368588958 
886	 0.568543693146304 
887	 0.568622409244498 
888	 0.569021346335344 
889	 0.569524574545781 
890	 0.569820906235767 
891	 0.569642748854892 
892	 0.570159804680648 
893	 0.570891114740595 
894	 0.571146191063794 
895	 0.571641979236227 
896	 0.572064379705112 
897	 0.57237947934538 
898	 0.5726602396439 
899	 0.572885966882093 
900	 0.572970901487711 
901	 0.57315906603158 
902	 0.573704012587307 
903	 0.574086740833327 
904	 0.574121008414604 
905	 0.573780040724958 
906	 0.573235049325763 
907	 0.57314777845784 
908	 0.573387356293892 
909	 0.573757017709556 
910	 0.574075537863192 
911	 0.574357773903091 
912	 0.574726564416016 
913	 0.574950937104402 
914	 0.574569066025317 
915	 0.574284438814301 
916	 0.573973430014875 
917	 0.573691226966317 
918	 0.57375035325443 
919	 0.573742847342588 
920	 0.57336122006355 
921	 0.572770439821787 
922	 0.572627355599333 
923	 0.572385377646475 
924	 0.572533017136625 
925	 0.573166767752275 
926	 0.573533557112874 
927	 0.573957081159182 
928	 0.574298748287228 
929	 0.574542657953126 
930	 0.575054954587585 
931	 0.574525330320864 
932	 0.574608553832932 
933	 0.575939743551559 
934	 0.57503513373751 
935	 0.575565124960886 
936	 0.577431247575834 
937	 0.578906646753592 
938	 0.577734541243556 
939	 0.577168465467839 
940	 0.576168698452212 
941	 0.573920951434309 
942	 0.571849142100997 
943	 0.569819232350925 
944	 0.567831055046072 
945	 0.56623618064351 
946	 0.56609456861948 
947	 0.56492053922597 
948	 0.563184628002603 
949	 0.561832030714166 
950	 0.56094215597365 
951	 0.55935671776946 
952	 0.556858186844615 
953	 0.554079387534473 
954	 0.552619350474995 
955	 0.551010919293601 
956	 0.549166502782226 
957	 0.547514170126762 
958	 0.546712754841741 
959	 0.545056578059025 
960	 0.543318774255596 
961	 0.542081773538218 
962	 0.540470274355274 
963	 0.539023910423203 
964	 0.537662067020129 
965	 0.536358225340676 
966	 0.535367882892274 
967	 0.535050649957069 
968	 0.534711226800403 
969	 0.534052814397687 
970	 0.533698088118791 
971	 0.532290791067671 
972	 0.531488654493613 
973	 0.531743191082951 
974	 0.531085354482336 
975	 0.531033338240242 
976	 0.531295731312806 
977	 0.531207266782977 
978	 0.530309714003329 
979	 0.530941069093916 
980	 0.531327112509207 
981	 0.530980255410283 
982	 0.531377147474909 
983	 0.53168851046505 
984	 0.531947899947972 
985	 0.531808447611609 
986	 0.530761822007076 
987	 0.530095379099651 
988	 0.530754005427958 
989	 0.531713803245817 
990	 0.531215215520352 
991	 0.53262962498654 
992	 0.532287086580266 
993	 0.531398285333366 
994	 0.533150055632575 
995	 0.532557399622985 
996	 0.532161404921189 
997	 0.533391673872813 
998	 0.535740595957697 
999	 0.534571263203762 
1000	 0.53411486531833 
1001	 0.540314253887989 
1002	 0.540944357874829 
1003	 0.541627039992531 
1004	 0.542331519798352 
1005	 0.543044795430656 
1006	 0.543803950715464 
1007	 0.544514566145306 
1008	 0.545202147561725 
1009	 0.545934614953313 
1010	 0.546706518471993 
1011	 0.547357597937645 
1012	 0.548131413911496 
1013	 0.548825625466818 
1014	 0.549441527141036 
1015	 0.550238027533996 
1016	 0.550909588720141 
1017	 0.551623882955038 
1018	 0.552421624980652 
1019	 0.55328594218914 
1020	 0.55405257593811 
1021	 0.554918760826139 
1022	 0.555680720625795 
1023	 0.556286086161869 
1024	 0.556984121934216 
1025	 0.557926971645134 
1026	 0.558787050792442 
1027	 0.559551554178315 
1028	 0.560368897418547 
1029	 0.561078432000798 
1030	 0.561699460584938 
1031	 0.562413204681581 
1032	 0.563212043463512 
1033	 0.56395402057043 
1034	 0.564615204759636 
1035	 0.565331075558778 
1036	 0.566141615775379 
1037	 0.566850659558463 
1038	 0.56748822575707 
1039	 0.568172648387427 
1040	 0.568968931677964 
1041	 0.569557853217517 
1042	 0.570178554899792 
1043	 0.570912253064659 
1044	 0.571507711753656 
1045	 0.572112078840577 
1046	 0.572798155077482 
1047	 0.573355433198391 
1048	 0.57368777479314 
1049	 0.573877827152905 
1050	 0.574116866481955 
1051	 0.574244898073062 
1052	 0.574471336962854 
1053	 0.574764590413417 
1054	 0.575058247684081 
1055	 0.575367271969556 
1056	 0.575615302972384 
1057	 0.575722362435498 
1058	 0.575818863479958 
1059	 0.575986949128651 
1060	 0.576099111013986 
1061	 0.57617419778702 
1062	 0.576168567732621 
1063	 0.57597155262875 
1064	 0.575781147066226 
1065	 0.575674645668706 
1066	 0.575600106367552 
1067	 0.575532444642145 
1068	 0.575469198289122 
1069	 0.575396729707456 
1070	 0.575229851952086 
1071	 0.575134894812893 
1072	 0.575131104053627 
1073	 0.575046401100543 
1074	 0.574902920108699 
1075	 0.574688541397457 
1076	 0.574562737943622 
1077	 0.574398018996326 
1078	 0.574243756380665 
1079	 0.574300548671881 
1080	 0.574176936537472 
1081	 0.57402573496739 
1082	 0.57384719221669 
1083	 0.573677338626351 
1084	 0.573380880211263 
1085	 0.573216328006935 
1086	 0.573175343969663 
1087	 0.573012967705508 
1088	 0.572734722338544 
1089	 0.572567138957903 
1090	 0.572377118983372 
1091	 0.572193157006522 
1092	 0.57209104971266 
1093	 0.571945686758725 
1094	 0.571842526223918 
1095	 0.57179396170094 
1096	 0.571764354227274 
1097	 0.571840304626984 
1098	 0.571873008521154 
1099	 0.571898710320357 
1100	 0.571880403405898 
1101	 0.571948176104497 
1102	 0.571980049298657 
1103	 0.571990364909719 
1104	 0.572124991499388 
1105	 0.572282737689164 
1106	 0.572605268945227 
1107	 0.573110541119644 
1108	 0.573730939343431 
1109	 0.574381399645475 
1110	 0.574899040749442 
1111	 0.575571152802003 
1112	 0.576275124045348 
1113	 0.577087135092751 
1114	 0.578248572640663 
1115	 0.579275301741192 
1116	 0.580354738707621 
1117	 0.581346476670755 
1118	 0.582165609700725 
1119	 0.582960861572529 
1120	 0.583515646155493 
1121	 0.583634908573784 
1122	 0.58350980458934 
1123	 0.582999857408914 
1124	 0.582213889050585 
1125	 0.581511613872382 
1126	 0.580113759864209 
1127	 0.578436076861363 
1128	 0.576205754502173 
1129	 0.573383273704637 
1130	 0.570526594531972 
1131	 0.567595532835275 
1132	 0.564421919123267 
1133	 0.561023864957806 
1134	 0.557579000424456 
1135	 0.554245587421705 
1136	 0.550990466014751 
1137	 0.547894300813713 
1138	 0.544937194392804 
1139	 0.541842407692163 
1140	 0.53860464907615 
1141	 0.535428220515886 
1142	 0.532333298855389 
1143	 0.529111744736867 
1144	 0.52596270344176 
1145	 0.522422807397409 
1146	 0.518674823774742 
1147	 0.514861587836807 
1148	 0.510920095012969 
1149	 0.507086919665342 
1150	 0.503256137623698 
1151	 0.49969269864686 
1152	 0.49635001985379 
1153	 0.493131080134578 
1154	 0.490383700522077 
1155	 0.487925966887871 
1156	 0.485537593888416 
1157	 0.483430857331086 
1158	 0.481505222326447 
1159	 0.479742967070779 
1160	 0.478201092792847 
1161	 0.476908556908551 
1162	 0.475658410554627 
1163	 0.474424317503739 
1164	 0.473464660236866 
1165	 0.472672771199771 
1166	 0.471928772694882 
1167	 0.471355929816149 
1168	 0.470770294453799 
1169	 0.470179210323203 
1170	 0.469682058259691 
1171	 0.46918304554286 
1172	 0.468853504967085 
1173	 0.468564544352821 
1174	 0.46823666807632 
1175	 0.4680124515348 
1176	 0.467725089646761 
1177	 0.467466214447664 
1178	 0.467251990365176 
1179	 0.466959561661403 
1180	 0.466676159680648 
1181	 0.466315251429256 
1182	 0.465809118287597 
1183	 0.465405359273913 
1184	 0.465008307240926 
1185	 0.464611898409701 
1186	 0.464229792890113 
1187	 0.463920918736136 
1188	 0.463620884155105 
1189	 0.463374734546424 
1190	 0.463196105151848 
1191	 0.463009685264644 
1192	 0.462737016559054 
1193	 0.462479325670679 
1194	 0.462328428905205 
1195	 0.462204683376178 
1196	 0.462119498133606 
1197	 0.462134958472233 
1198	 0.462135052171356 
1199	 0.46210934853977 
1200	 0.462183710425056 
1201	 0.462345375553512 
1202	 0.462505066682147 
1203	 0.462726811931666 
1204	 0.462918745469855 
1205	 0.463075239907344 
1206	 0.463287784005745 
1207	 0.463504120004144 
1208	 0.463780357218817 
1209	 0.464101515670373 
1210	 0.464495344299004 
1211	 0.464900799515997 
1212	 0.465217782786945 
1213	 0.465594402061548 
1214	 0.465970298015689 
1215	 0.466387299673131 
1216	 0.46685051465849 
1217	 0.46729487864878 
1218	 0.467739977930427 
1219	 0.468190210026962 
1220	 0.468630189761778 
1221	 0.469112007313272 
1222	 0.469628380279698 
1223	 0.470140882748948 
1224	 0.470689188677907 
1225	 0.471213820668764 
1226	 0.47176846029044 
1227	 0.472265029027238 
1228	 0.472776175440323 
1229	 0.473156207548497 
1230	 0.47355375628512 
1231	 0.473933247296378 
1232	 0.474370289881367 
1233	 0.474844396155584 
1234	 0.475299699348865 
1235	 0.475796884940599 
1236	 0.476234048260553 
1237	 0.476609627827051 
1238	 0.477057610257316 
1239	 0.477517171868813 
1240	 0.477972390282658 
1241	 0.47848898592452 
1242	 0.478960744821761 
1243	 0.479346494375878 
1244	 0.47983376246827 
1245	 0.480425229876245 
1246	 0.480913758335625 
1247	 0.48144425650981 
1248	 0.481898736910817 
1249	 0.482164685194835 
1250	 0.482548460918758 
1251	 0.482985911530481 
1252	 0.48341740728418 
1253	 0.483855667887202 
1254	 0.484380121348253 
1255	 0.484794965863214 
1256	 0.485122533924896 
1257	 0.48553308251659 
1258	 0.485985590634653 
1259	 0.486358789232392 
1260	 0.486752804560928 
1261	 0.487087361171978 
1262	 0.487339340750671 
1263	 0.487573624485812 
1264	 0.487791706027338 
1265	 0.48797083133959 
1266	 0.488139561485212 
1267	 0.488190152022486 
1268	 0.488166543920741 
1269	 0.488098543947738 
1270	 0.487870802211808 
1271	 0.487688348750803 
1272	 0.487562802130771 
1273	 0.487382580089571 
1274	 0.487012926486129 
1275	 0.486529556250181 
1276	 0.48609962321029 
1277	 0.485545241337284 
1278	 0.48501555702649 
1279	 0.484575383994573 
1280	 0.484000309927862 
1281	 0.483256531630529 
1282	 0.482621050028053 
1283	 0.482073748810716 
1284	 0.481372228546635 
1285	 0.480606452594951 
1286	 0.479844300977223 
1287	 0.479061464202799 
1288	 0.478152662581581 
1289	 0.477176330618459 
1290	 0.476198273651652 
1291	 0.475071643225808 
1292	 0.473984229655149 
1293	 0.472983049708852 
1294	 0.471887640718212 
1295	 0.470672088868826 
1296	 0.469471622148256 
1297	 0.468326751672837 
1298	 0.467173143844676 
1299	 0.466016557527769 
1300	 0.464982211533873 
1301	 0.463696392512971 
1302	 0.462245693921739 
1303	 0.460860537263438 
1304	 0.459353224371642 
1305	 0.457913173358478 
1306	 0.456621690084604 
1307	 0.455077666715337 
1308	 0.453364858153716 
1309	 0.451703362804323 
1310	 0.44990936070291 
1311	 0.448160593387278 
1312	 0.44652264826349 
1313	 0.444740552194927 
1314	 0.44288419364223 
1315	 0.440980123795458 
1316	 0.438988991832413 
1317	 0.436979289339263 
1318	 0.434918490518223 
1319	 0.432826117652945 
1320	 0.430550145203072 
1321	 0.428446896472872 
1322	 0.4263865714761 
1323	 0.424308963832615 
1324	 0.422305111684611 
1325	 0.420476066828032 
1326	 0.418377956607941 
1327	 0.416166084120328 
1328	 0.413878533386314 
1329	 0.411394441698659 
1330	 0.408957649736937 
1331	 0.406495659322519 
1332	 0.404013315487145 
1333	 0.401560955000245 
1334	 0.399051536209232 
1335	 0.396306102370631 
1336	 0.39397087127933 
1337	 0.391555114126631 
1338	 0.389591784902789 
1339	 0.388063816685265 
1340	 0.386622088313223 
1341	 0.385369839845534 
1342	 0.384288857308091 
1343	 0.383322012303331 
1344	 0.382592124223033 
1345	 0.382146070502606 
1346	 0.382137120316917 
1347	 0.382334816920402 
1348	 0.382715604408153 
1349	 0.383210130478669 
1350	 0.384000216943748 
1351	 0.385238709232603 
1352	 0.387717408650217 
1353	 0.389818224754155 
1354	 0.392584118734165 
1355	 0.395416294267374 
1356	 0.395297865943003 
1357	 0.398114790158108 
1358	 0.402188674024362 
1359	 0.407317224365654 
1360	 0.414140031755369 
1361	 0.419812577852077 
1362	 0.411316149984234 
1363	 0.406686699029174 
1364	 0.39478809702412 
1365	 0.388168790455915 
1366	 0.394588845139995 
1367	 0.389664592650747 
1368	 0.383688208325346 
1369	 0.378264714600988 
1370	 0.36826872841588 
1371	 0.364836807500366 
1372	 0.36708990045406 
1373	 0.364916878585281 
1374	 0.363128767111189 
1375	 0.359604939020374 
1376	 0.3518368341154 
1377	 0.345422631559407 
1378	 0.340874461276654 
1379	 0.339094181997884 
1380	 0.329710275037707 
1381	 0.318187229460374 
1382	 0.30714570088885 
1383	 0.292280922269807 
1384	 0.279173735796108 
1385	 0.271317934639303 
1386	 0.259178056937052 
1387	 0.243759069354252 
1388	 0.234247753303492 
1389	 0.227683212457168 
1390	 0.219780377871158 
1391	 0.213556812131308 
1392	 0.206575280546606 
1393	 0.198071263024785 
1394	 0.190298834780099 
1395	 0.183301261026079 
1396	 0.176068752617898 
1397	 0.167954543993546 
1398	 0.161350862653191 
1399	 0.15530357896194 
1400	 0.149602421278057 
1401	 0.145175525971865 
1402	 0.140204254096385 
1403	 0.136294981511646 
1404	 0.131173332080245 
1405	 0.125618279831915 
1406	 0.120157103382745 
1407	 0.114904955558507 
1408	 0.110069281514372 
1409	 0.106044228316746 
1410	 0.102711924788317 
1411	 0.100141420522232 
1412	 9.82996952850874E-02 
1413	 0.096011817428889 
1414	 9.41125444261523E-02 
1415	 9.21334080507896E-02 
1416	 8.98012154705805E-02 
1417	 8.81565922769907E-02 
1418	 8.68265121646037E-02 
1419	 8.56504152195516E-02 
1420	 0.08483345708267 
1421	 8.35957406557554E-02 
1422	 8.21704895107292E-02 
1423	 8.11717308438017E-02 
1424	 8.00734679699872E-02 
1425	 7.92215693240645E-02 
1426	 0.078798608748904 
1427	 7.80738449007659E-02 
1428	 7.69674816715038E-02 
1429	 7.63610762582996E-02 
1430	 7.60192392313815E-02 
1431	 7.55386238277871E-02 
1432	 7.53477266764981E-02 
1433	 7.48655350443084E-02 
1434	 7.39416506455992E-02 
1435	 7.33612383781565E-02 
1436	 7.28585568504303E-02 
1437	 7.24545038721968E-02 
1438	 7.22644360116079E-02 
1439	 7.20485072889455E-02 
1440	 7.19604519544795E-02 
1441	 7.17053889824401E-02 
1442	 7.12707205036339E-02 
1443	 7.11067743960415E-02 
1444	 0.070798291616206 
1445	 7.03694571615978E-02 
1446	 7.01804648926331E-02 
1447	 7.00375398278603E-02 
1448	 6.98410444077219E-02 
1449	 6.96633940993572E-02 
1450	 6.95098007461602E-02 
1451	 6.93369218919288E-02 
1452	 6.91769900283115E-02 
1453	 6.90126536270579E-02 
1454	 6.89628887285153E-02 
1455	 6.88807815758794E-02 
1456	 0.068976779508246 
1457	 6.92904894494964E-02 
1458	 6.94012576451841E-02 
1459	 6.94521148228224E-02 
1460	 0.069633775294975 
1461	 6.98055317640168E-02 
1462	 7.00213337116732E-02 
1463	 7.03784491070984E-02 
1464	 7.07461087354448E-02 
1465	 7.10590560030752E-02 
1466	 7.14869211241324E-02 
1467	 0.072074648507514 
1468	 7.26687437961395E-02 
1469	 7.32993195865107E-02 
1470	 7.39106378921762E-02 
1471	 7.44988670684917E-02 
1472	 7.51268586537292E-02 
1473	 7.56593960641962E-02 
1474	 7.63218006989474E-02 
1475	 7.71596793714179E-02 
1476	 7.78168098712079E-02 
1477	 7.82877005736684E-02 
1478	 7.89746231189478E-02 
1479	 7.97172868328334E-02 
1480	 0.080397081052302 
1481	 8.12244630862211E-02 
1482	 8.19556640627323E-02 
1483	 8.23942821840852E-02 
1484	 8.30951455157635E-02 
1485	 8.39648677983828E-02 
1486	 8.47777853108986E-02 
1487	 8.56814753397614E-02 
1488	 8.65595719202614E-02 
1489	 8.72264446584231E-02 
1490	 8.78937977784306E-02 
1491	 8.86699705239493E-02 
1492	 8.94452790590305E-02 
1493	 9.02662851909784E-02 
1494	 9.10882475145342E-02 
1495	 9.19082190605457E-02 
1496	 9.26772761817194E-02 
1497	 9.35595864395753E-02 
1498	 9.45402992809116E-02 
1499	 9.54702263098793E-02 
1500	 9.64161662836729E-02 
1501	 9.74120667443922E-02 
1502	 9.84196222340976E-02 
1503	 9.94845787672717E-02 
1504	 0.100646054689168 
1505	 0.101720892283226 
1506	 0.102746797924097 
1507	 0.103851169993302 
1508	 0.104984489860701 
1509	 0.106071915924176 
1510	 0.10720839751148 
1511	 0.108277554427554 
1512	 0.109217442454448 
1513	 0.110315348330291 
1514	 0.111521987067675 
1515	 0.112638160229886 
1516	 0.113790983997655 
1517	 0.114927890933617 
1518	 0.115973920781903 
1519	 0.117130493231646 
1520	 0.118410179710963 
1521	 0.119587354468892 
1522	 0.120749794115784 
1523	 0.121909814932536 
1524	 0.123020045332963 
1525	 0.124164132238103 
1526	 0.125358896860685 
1527	 0.126502324457071 
1528	 0.127590320933093 
1529	 0.128752525422811 
1530	 0.129955677367622 
1531	 0.131129773045801 
1532	 0.132362932150983 
1533	 0.133524203790366 
1534	 0.13453928670131 
1535	 0.135716293762971 
1536	 0.13699746179159 
1537	 0.138225411770626 
1538	 0.139523743262414 
1539	 0.140787245664571 
1540	 0.14197773386924 
1541	 0.143199263351254 
1542	 0.144499394496282 
1543	 0.145719566770872 
1544	 0.146880615142932 
1545	 0.148047431828477 
1546	 0.149178741266922 
1547	 0.150309352198935 
1548	 0.151430424372689 
1549	 0.152570389181811 
1550	 0.15372808477191 
1551	 0.154858170760789 
1552	 0.15597036045802 
1553	 0.157113078875188 
1554	 0.158229875950972 
1555	 0.159384839525796 
1556	 0.160666525551582 
1557	 0.161832315313172 
1558	 0.162916940592287 
1559	 0.164031564261506 
1560	 0.165056888062274 
1561	 0.166146888328426 
1562	 0.167383230930318 
1563	 0.168512747016637 
1564	 0.169611137366827 
1565	 0.170686349702736 
1566	 0.17167345103207 
1567	 0.1726660786989 
1568	 0.173770075558962 
1569	 0.174949723238159 
1570	 0.176074055122122 
1571	 0.177283685416218 
1572	 0.178320028682455 
1573	 0.179203903043005 
1574	 0.180266646594463 
1575	 0.181342232483987 
1576	 0.182351691944844 
1577	 0.183397555691805 
1578	 0.18444086255258 
1579	 0.185386785595867 
1580	 0.186385718251604 
1581	 0.18749827254913 
1582	 0.188449389198531 
1583	 0.189278910953893 
1584	 0.190182619848257 
1585	 0.191044617293792 
1586	 0.192020152220625 
1587	 0.193071428236992 
1588	 0.194065037334089 
1589	 0.195117862914372 
1590	 0.196099156340653 
1591	 0.197017437226642 
1592	 0.197956016935589 
1593	 0.198921962827976 
1594	 0.199801215911927 
1595	 0.200622346665843 
1596	 0.201480150368712 
1597	 0.202311081480419 
1598	 0.203145730502116 
1599	 0.203968786933313 
1600	 0.204886826236214 
1601	 0.205877375002142 
1602	 0.206729221095724 
1603	 0.20759929448198 
1604	 0.208432620453789 
1605	 0.209084219948208 
1606	 0.20992673099579 
1607	 0.210937706831998 
1608	 0.211765336257232 
1609	 0.212524010632067 
1610	 0.213348697451034 
1611	 0.214104196543554 
1612	 0.21492861130809 
1613	 0.215881568079916 
1614	 0.216665084841524 
1615	 0.217359711838926 
1616	 0.218103896242149 
1617	 0.218782290587294 
1618	 0.219531034684744 
1619	 0.220373976972396 
1620	 0.22108079059222 
1621	 0.221755196948045 
1622	 0.222381065670353 
1623	 0.222870533361783 
1624	 0.223528139829627 
1625	 0.224280603065885 
1626	 0.224916239905346 
1627	 0.225573925646049 
1628	 0.226201583334191 
1629	 0.226698168111691 
1630	 0.227357888233752 
1631	 0.228159864662039 
1632	 0.228834669784983 
1633	 0.229539776229236 
1634	 0.230121914381344 
1635	 0.230558989061183 
1636	 0.231139676621272 
1637	 0.231746306941145 
1638	 0.232301646863381 
1639	 0.232886668315625 
1640	 0.233469252720831 
1641	 0.234014934379876 
1642	 0.234496083581957 
1643	 0.23502793671328 
1644	 0.235433675107924 
1645	 0.235643020231585 
1646	 0.236030252992789 
1647	 0.236467798719517 
1648	 0.236853721455291 
1649	 0.237266354811894 
1650	 0.23769562220316 
1651	 0.238114555355869 
1652	 0.238494369683189 
1653	 0.238885200933342 
1654	 0.23924038822278 
1655	 0.239568510894351 
1656	 0.239818527342335 
1657	 0.240055303612935 
1658	 0.240303388990214 
1659	 0.24035915906153 
1660	 0.240613011173354 
1661	 0.24095408126027 
1662	 0.241109919138001 
1663	 0.241306288956103 
1664	 0.241393742560425 
1665	 0.241317202645814 
1666	 0.241510433723518 
1667	 0.241661387799234 
1668	 0.241735066568255 
1669	 0.241912808752566 
1670	 0.241831337277122 
1671	 0.241771162075982 
1672	 0.241925698250659 
1673	 0.242021996050279 
1674	 0.242129266878103 
1675	 0.242176057723573 
1676	 0.242052285197229 
1677	 0.241970949723115 
1678	 0.241892191655575 
1679	 0.241795838805205 
1680	 0.241725030668777 
1681	 0.241537044801117 
1682	 0.241406106396385 
1683	 0.241266310726667 
1684	 0.241040289961553 
1685	 0.240866171592115 
1686	 0.240608561670589 
1687	 0.240262362737063 
1688	 0.239891534357158 
1689	 0.239615643520155 
1690	 0.239394652588206 
1691	 0.239081085988765 
1692	 0.238722523136552 
1693	 0.238357069591706 
1694	 0.237949447027568 
1695	 0.23751617158832 
1696	 0.237097663517163 
1697	 0.236632895136289 
1698	 0.23603179219004 
1699	 0.235532668037431 
1700	 0.235111573401694 
1701	 0.234665668890501 
1702	 0.234250595554848 
1703	 0.233792067953307 
1704	 0.233314542878636 
1705	 0.232784222575759 
1706	 0.232192323342139 
1707	 0.231662836020411 
1708	 0.23111641563262 
1709	 0.230569903804885 
1710	 0.230145368261432 
1711	 0.229580321617376 
1712	 0.228824400596432 
1713	 0.228247353499156 
1714	 0.227663914514165 
1715	 0.227126274390743 
1716	 0.226784021747675 
1717	 0.226351953825601 
1718	 0.225863151934461 
1719	 0.22539141161586 
1720	 0.224918871560128 
1721	 0.22441645193268 
1722	 0.223904452297347 
1723	 0.223371475143319 
1724	 0.222815964182015 
1725	 0.222240374762954 
1726	 0.221591370770239 
1727	 0.221110571726084 
1728	 0.220734588618933 
1729	 0.220201444384712 
1730	 0.219742581316699 
1731	 0.219020253261623 
1732	 0.218201067467913 
1733	 0.217651198390683 
1734	 0.217190605867504 
1735	 0.216691324832825 
1736	 0.216284193695233 
1737	 0.215674075559587 
1738	 0.214894196217142 
1739	 0.214045964044823 
1740	 0.213136287847367 
1741	 0.212315668690191 
1742	 0.211470201908086 
1743	 0.210718003156645 
1744	 0.210156687608088 
1745	 0.209489243414479 
1746	 0.208742647223146 
1747	 0.207914917528849 
1748	 0.206927531724533 
1749	 0.206001568907908 
1750	 0.205049287161258 
1751	 0.204082362863501 
1752	 0.203267205385091 
1753	 0.20254840934404 
1754	 0.201807663487258 
1755	 0.201065759406044 
1756	 0.200386118120097 
1757	 0.199373921473628 
1758	 0.198589740160687 
1759	 0.197903488542198 
1760	 0.197215892969592 
1761	 0.196698003654457 
1762	 0.196110475604283 
1763	 0.195594352270843 
1764	 0.194916575377741 
1765	 0.193942334735953 
1766	 0.193342815469558 
1767	 0.192792927435924 
1768	 0.192279547494105 
1769	 0.192145258577927 
1770	 0.191795453551647 
1771	 0.191237552709803 
1772	 0.190889970723248 
1773	 0.190653479436995 
1774	 0.190465253201074 
1775	 0.190227432046817 
1776	 0.189825211798027 
1777	 0.189540201136043 
1778	 0.189304176735812 
1779	 0.189140923365307 
1780	 0.189139742198503 
1781	 0.188829767540021 
1782	 0.188408117219136 
1783	 0.188123467085401 
1784	 0.188181788580663 
1785	 0.188688840743019 
1786	 0.189100925209845 
1787	 0.189496519169518 
1788	 0.18981609129241 
1789	 0.189913848484622 
1790	 0.190333570253387 
1791	 0.190818005234501 
1792	 0.191347637837996 
1793	 0.191852110240003 
1794	 0.191929966313024 
1795	 0.192441168505139 
1796	 0.193162277743289 
1797	 0.193864776891667 
1798	 0.195311893110095 
1799	 0.196956366524027 
1800	 0.198155609254256 
1801	 0.194864732048168 
1802	 0.194724730123469 
1803	 0.19487150716388 
1804	 0.194295104611162 
1805	 0.194452776177152 
1806	 0.194532928736855 
1807	 0.195085595244373 
1808	 0.196680460700973 
1809	 0.198252783210913 
1810	 0.199687108474083 
1811	 0.201348500039444 
1812	 0.202914764045135 
1813	 0.204600829116577 
1814	 0.205938104294432 
1815	 0.206433081718993 
1816	 0.207725449018096 
1817	 0.209238402273615 
1818	 0.21063818670778 
1819	 0.21223434417927 
1820	 0.215313984461018 
1821	 0.21633852863072 
1822	 0.21595680729004 
1823	 0.215429109046657 
1824	 0.212009968292572 
1825	 0.210418045972359 
1826	 0.208214925232924 
1827	 0.207125865382436 
1828	 0.207238922911614 
1829	 0.210718496077362 
1830	 0.213173421632844 
1831	 0.222585361470534 
1832	 0.221411737165995 
1833	 0.198358949062189 
1834	 0.193927826752871 
1835	 0.186638154518675 
1836	 0.189704029800144 
1837	 0.259784961932467 
1838	 0.297436796951173 
1839	 0.319659451785381 
1840	 0.306249211101012 
1841	 0.311492058225098 
1842	 0.315789980889223 
1843	 0.293360945481584 
1844	 0.242459797179754 
1845	 0.231712423987472 
1846	 0.204889328566926 
1847	 0.203139814911076 
1848	 0.220311749738228 
1849	 0.299480940258362 
1850	 0.320268108883224 
1851	 0.328525401718745 
1852	 0.333303283972176 
1853	 0.321081416242407 
1854	 0.296470138544112 
1855	 0.248002266716643 
1856	 0.23341181987556 
1857	 0.225177782748718 
1858	 0.22189595045505 
1859	 0.208786275135547 
1860	 0.203710925576178 
1861	 0.201803566318667 
1862	 0.17891974740872 
1863	 0.18054656409382 
1864	 0.222340819622956 
1865	 0.232177974546364 
1866	 0.229926783682718 
1867	 0.229598044886463 
1868	 0.228767824222952 
1869	 0.217458759616591 
1870	 0.191677828440396 
1871	 0.1602650540337 
1872	 0.132993738068085 
1873	 7.97438202341493E-02 
1874	 0.065220485400387 
1875	 8.32523203950787E-02 
1876	 8.43750997696918E-02 
1877	 8.27944688843402E-02 
1878	 9.09470383676291E-02 
1879	 9.21703525341967E-02 
1880	 9.37186459149365E-02 
1881	 9.25191975289367E-02 
1882	 9.33161623683905E-02 
1883	 8.91252849159389E-02 
1884	 7.80801508394748E-02 
1885	 7.40683139176574E-02 
1886	 7.14435305958053E-02 
1887	 6.79089604141882E-02 
1888	 6.92027463834645E-02 
1889	 6.78510810843407E-02 
1890	 6.38505450281891E-02 
1891	 5.54962377647406E-02 
1892	 5.02997069995126E-02 
1893	 4.17071420777795E-02 
1894	 3.77099780221035E-02 
1895	 3.72109703856906E-02 
1896	 3.76116481370928E-02 
1897	 4.40376277816742E-02 
1898	 4.81956287514478E-02 
1899	 0.048091256429808 
1900	 0.042355080599545 
1901	 3.82007404450678E-02 
1902	 2.62998362862468E-02 
1903	 2.26543181345473E-02 
1904	 1.80619725257498E-02 
1905	 2.24001647110914E-02 
1906	 3.83164230074172E-02 
1907	 4.77975531587243E-02 
1908	 4.76123190052645E-02 
1909	 7.16634317017675E-02 
1910	 8.18625571780082E-02 
1911	 7.04556720638753E-02 
1912	 5.72006181366672E-02 
1913	 3.47826351109568E-02 
1914	 2.84686101242687E-02 
1915	 0.021870117205445 
1916	 2.02617657033807E-02 
1917	 2.30480299108961E-02 
1918	 2.87181979158546E-02 
1919	 3.26699387243595E-02 
1920	 3.47915250302865E-02 
1921	 3.59089968260627E-02 
1922	 3.59277829964637E-02 
1923	 3.50939944824944E-02 
1924	 3.13260052178656E-02 
1925	 2.92359162272331E-02 
1926	 2.61481712328248E-02 
1927	 2.58058291728884E-02 
1928	 2.68692098322914E-02 
1929	 0.02740808089968 
1930	 2.78517673471809E-02 
1931	 3.22607956864798E-02 
1932	 0.030138059555326 
1933	 2.80844651265585E-02 
1934	 2.78690289322037E-02 
1935	 2.62494264634771E-02 
1936	 2.65830122717356E-02 
1937	 3.07156645532496E-02 
1938	 3.13791725976003E-02 
1939	 3.15237805853883E-02 
1940	 3.01857395584068E-02 
1941	 2.92456957489642E-02 
1942	 2.79552397413211E-02 
1943	 2.69726102901249E-02 
1944	 2.85852600872369E-02 
1945	 2.90577698039041E-02 
1946	 2.82466167155689E-02 
1947	 2.77272369164143E-02 
1948	 0.026164810609949 
1949	 2.56663614569593E-02 
1950	 2.54614467550703E-02 
1951	 2.59663075957069E-02 
1952	 2.61354798620631E-02 
1953	 0.027917058356355 
1954	 2.86929974642186E-02 
1955	 2.83336228022141E-02 
1956	 2.91479144650275E-02 
1957	 2.87461307148289E-02 
1958	 2.81528485518714E-02 
1959	 0.027412738780031 
1960	 2.71463542547461E-02 
1961	 2.65914699591494E-02 
1962	 0.02598556732688 
1963	 2.65359348010317E-02 
1964	 2.65219652545924E-02 
1965	 2.65648922532218E-02 
1966	 2.75942631329393E-02 
1967	 2.75005905188837E-02 
1968	 2.73675446431217E-02 
1969	 2.73795336783954E-02 
1970	 2.68496469178569E-02 
1971	 2.66884301765123E-02 
1972	 2.69051059749459E-02 
1973	 2.71477450154071E-02 
1974	 2.66926178956213E-02 
1975	 2.68077434303892E-02 
1976	 0.027127917720539 
1977	 2.73723403764982E-02 
1978	 2.79149249780212E-02 
1979	 0.028419124709915 
1980	 2.87845551266525E-02 
1981	 2.87749745289711E-02 
1982	 2.86203223004851E-02 
1983	 2.82640619453462E-02 
1984	 2.81751134311953E-02 
1985	 2.76071621252857E-02 
1986	 2.73007830789973E-02 
1987	 2.78722902369638E-02 
1988	 2.81380913976042E-02 
1989	 0.028546471905148 
1990	 2.89325029186904E-02 
1991	 2.91691479642038E-02 
1992	 2.95326927692523E-02 
1993	 2.96508347768215E-02 
1994	 2.98917325733451E-02 
1995	 3.01614771942853E-02 
1996	 3.03547841403264E-02 
1997	 3.04876595287968E-02 
1998	 3.08579357200693E-02 
1999	 3.12785221753456E-02 
2000	 3.15015748450729E-02 
2001	 3.14967941368774E-02 
2002	 3.17752361040526E-02 
2003	 3.23482445807434E-02 
2004	 3.26635403859577E-02 
2005	 0.032942860540536 
2006	 3.35523267037668E-02 
2007	 3.42988464735303E-02 
2008	 3.46010216329892E-02 
2009	 3.47196410119345E-02 
2010	 3.50697356629649E-02 
2011	 3.46471149904201E-02 
2012	 0.033849654607037 
2013	 3.36740402704386E-02 
2014	 3.40032898767057E-02 
2015	 3.46460399984951E-02 
2016	 3.53310487223999E-02 
2017	 3.63148541481115E-02 
2018	 3.72053143405065E-02 
2019	 3.76340529563666E-02 
2020	 3.76586478655924E-02 
2021	 3.77045755347156E-02 
2022	 3.78347830238173E-02 
2023	 3.82761720421574E-02 
2024	 3.88917500739184E-02 
2025	 3.91043578576888E-02 
2026	 0.039492454907024 
2027	 3.99812955945129E-02 
2028	 3.98716143821836E-02 
2029	 3.99655235923203E-02 
2030	 4.03012184914286E-02 
2031	 0.040404126308409 
2032	 4.06652190108724E-02 
2033	 4.10934698813122E-02 
2034	 4.16944356896424E-02 
2035	 0.041836013253408 
2036	 4.18632413038656E-02 
2037	 4.19209683585287E-02 
2038	 4.18521875615724E-02 
2039	 4.20848598967539E-02 
2040	 4.23151605226197E-02 
2041	 4.25939171787223E-02 
2042	 4.32317132968821E-02 
2043	 0.043604163950635 
2044	 4.37915868210051E-02 
2045	 4.41116409650116E-02 
2046	 4.43044320751302E-02 
2047	 0.044397953522344 
2048	 4.49066003782071E-02 
2049	 4.57095518638187E-02 
2050	 4.59518026262699E-02 
2051	 4.62301059289126E-02 
2052	 4.68300623257421E-02 
2053	 0.047236613284798 
2054	 4.81706460022156E-02 
2055	 4.89587245606806E-02 
2056	 4.88684778987405E-02 
2057	 4.89113341868138E-02 
2058	 4.92388371688567E-02 
2059	 4.94626506595952E-02 
2060	 4.96146392513807E-02 
2061	 5.01756294361993E-02 
2062	 5.05205056283127E-02 
2063	 5.04147957217294E-02 
2064	 5.04325701773675E-02 
2065	 5.06612272385193E-02 
2066	 5.13357073348076E-02 
2067	 5.18537563524643E-02 
2068	 5.23308657293231E-02 
2069	 5.30912651824137E-02 
2070	 5.36346301921921E-02 
2071	 0.05413365400042 
2072	 5.46345911355151E-02 
2073	 5.52985658568832E-02 
2074	 5.55484384654678E-02 
2075	 5.54798870681279E-02 
2076	 5.58099379349862E-02 
2077	 0.0559784406392 
2078	 5.61821122832458E-02 
2079	 5.68747715506436E-02 
2080	 5.72563111772722E-02 
2081	 5.76860808798093E-02 
2082	 5.80527103774866E-02 
2083	 0.05813817004493 
2084	 5.83037073810626E-02 
2085	 5.85141515650493E-02 
2086	 5.88054807835086E-02 
2087	 5.90801209042809E-02 
2088	 5.93825826470227E-02 
2089	 5.98976349902035E-02 
2090	 6.00724867969234E-02 
2091	 6.01256601636485E-02 
2092	 6.07282247151078E-02 
2093	 0.060880410227882 
2094	 6.14378874976097E-02 
2095	 6.25974534550404E-02 
2096	 6.30244609564798E-02 
2097	 0.063531302479335 
2098	 6.39038447284887E-02 
2099	 6.40127015163659E-02 
2100	 0.064634008466874 
2101	 6.47516766763599E-02 
2102	 0.065023961497837 
2103	 6.53620747238764E-02 
2104	 6.58099736523895E-02 
2105	 6.57095265116727E-02 
2106	 6.64210937848148E-02 
2107	 6.73594853161898E-02 
2108	 0.067531025540802 
2109	 6.78448264974824E-02 
2110	 0.068521390514098 
2111	 6.87306297399056E-02 
2112	 0.069140175177779 
2113	 7.00749304091765E-02 
2114	 7.04723385093047E-02 
2115	 7.07616042164377E-02 
2116	 7.11309738689197E-02 
2117	 7.14106076765135E-02 
2118	 7.14384582990806E-02 
2119	 7.17681798242499E-02 
2120	 7.22459070042704E-02 
2121	 7.25958944076273E-02 
2122	 7.30754879213268E-02 
2123	 7.35335811429513E-02 
2124	 7.38738144244024E-02 
2125	 7.42521939892166E-02 
2126	 7.45707843320534E-02 
2127	 7.48015200128048E-02 
2128	 7.50407021491055E-02 
2129	 7.54619634824154E-02 
2130	 0.075907783870752 
2131	 7.65963996152236E-02 
2132	 0.077138005181208 
2133	 7.74210731158027E-02 
2134	 7.78006587925688E-02 
2135	 7.82179039830301E-02 
2136	 7.83931742540236E-02 
2137	 7.86660049558301E-02 
2138	 7.90588695818075E-02 
2139	 7.94302165086161E-02 
2140	 7.97289390847032E-02 
2141	 8.00570611810709E-02 
2142	 0.080563705500071 
2143	 8.11908259745395E-02 
2144	 8.17787411455675E-02 
2145	 8.20667543279095E-02 
2146	 8.22042393756673E-02 
2147	 8.23854528785135E-02 
2148	 8.28360922685897E-02 
2149	 8.32934481968474E-02 
2150	 8.38719454981413E-02 
2151	 8.42214441037607E-02 
2152	 8.40647683266923E-02 
2153	 8.42431813774923E-02 
2154	 8.45865399763405E-02 
2155	 8.46396419918635E-02 
2156	 8.50390313062451E-02 
2157	 8.59359583820981E-02 
2158	 8.63142186095596E-02 
2159	 0.087063634166841 
2160	 8.78145236420573E-02 
2161	 8.75973940187741E-02 
2162	 8.75792763145067E-02 
2163	 8.78055836438253E-02 
2164	 8.77512106640961E-02 
2165	 8.80544028427565E-02 
2166	 8.85348398949998E-02 
2167	 8.85899378897771E-02 
2168	 8.87606434221377E-02 
2169	 8.91529484422683E-02 
2170	 8.92805521549986E-02 
2171	 8.92087091415057E-02 
2172	 0.089181985478113 
2173	 8.91122990779314E-02 
2174	 8.87216211251854E-02 
2175	 8.89542071041317E-02 
2176	 8.98290461426429E-02 
2177	 9.07026865472996E-02 
2178	 9.16404159413853E-02 
2179	 9.22521365200251E-02 
2180	 9.21220860717052E-02 
2181	 9.20945766151846E-02 
2182	 9.26313364938283E-02 
2183	 9.26947145892552E-02 
2184	 9.26634860669628E-02 
2185	 9.31497537990202E-02 
2186	 0.093112451577781 
2187	 9.31120190746848E-02 
2188	 9.34567553330018E-02 
2189	 9.35678309260629E-02 
2190	 9.33292779606197E-02 
2191	 9.32405726539999E-02 
2192	 9.35210986942587E-02 
2193	 9.33313971797197E-02 
2194	 9.33937429795079E-02 
2195	 0.093633116955868 
2196	 9.34162282549567E-02 
2197	 9.39027400634531E-02 
2198	 9.43191794793047E-02 
2199	 9.40513443780616E-02 
2200	 9.37833945229187E-02 
2201	 9.36897583293503E-02 
2202	 0.09415691437381 
2203	 9.46031310227944E-02 
2204	 9.48939775940631E-02 
2205	 9.50902890715884E-02 
2206	 9.48741584444747E-02 
2207	 9.50389766513696E-02 
2208	 9.51963572026642E-02 
2209	 9.56829917957329E-02 
2210	 9.57836399011004E-02 
2211	 9.57845783472842E-02 
2212	 9.54511642405904E-02 
2213	 9.53678010268836E-02 
2214	 9.57931579481361E-02 
2215	 0.095947042759608 
2216	 9.62574704731481E-02 
2217	 9.63397386141622E-02 
2218	 9.56577930448415E-02 
2219	 0.095064091392508 
2220	 9.46559421320146E-02 
2221	 9.42703338223753E-02 
2222	 9.45773472139784E-02 
2223	 9.50185252930559E-02 
2224	 9.50620357188093E-02 
2225	 9.50179467689672E-02 
2226	 9.49931969595512E-02 
2227	 9.47990551635338E-02 
2228	 9.44113596931618E-02 
2229	 9.43180741193536E-02 
2230	 9.40397573387984E-02 
2231	 9.39049451591372E-02 
2232	 9.42042986932733E-02 
2233	 9.42107923898131E-02 
2234	 9.41097579612263E-02 
2235	 9.38868792158915E-02 
2236	 9.35853508597138E-02 
2237	 9.32269405860118E-02 
2238	 9.29839328260034E-02 
2239	 9.30572195849491E-02 
2240	 9.28566568720026E-02 
2241	 9.22225957782711E-02 
2242	 9.16710649374128E-02 
2243	 9.07577862583196E-02 
2244	 8.96155095668905E-02 
2245	 8.94632042931495E-02 
2246	 8.96846226878174E-02 
2247	 0.089350926327452 
2248	 0.089405470349414 
2249	 0.089410730978044 
2250	 0.088995293181243 
2251	 8.89998689123632E-02 
2252	 8.90876570068845E-02 
2253	 8.86027980107033E-02 
2254	 0.087670252569221 
2255	 0.086942013818597 
2256	 8.63405497871382E-02 
2257	 8.57481818194513E-02 
2258	 8.51537934964782E-02 
2259	 8.49070150324535E-02 
2260	 8.44303496599871E-02 
2261	 8.41176739089631E-02 
2262	 8.42754431995914E-02 
2263	 8.44322301626912E-02 
2264	 8.48017983558275E-02 
2265	 8.45945051829922E-02 
2266	 8.44413797903883E-02 
2267	 8.46323654115982E-02 
2268	 8.37844464135131E-02 
2269	 8.25558971506388E-02 
2270	 0.081335244730586 
2271	 7.95252647361224E-02 
2272	 0.078208845102282 
2273	 7.79901259281663E-02 
2274	 7.82988455738219E-02 
2275	 7.85027668142772E-02 
2276	 7.83965544037828E-02 
2277	 7.79027245234462E-02 
2278	 7.67887457858288E-02 
2279	 7.59596835011686E-02 
2280	 7.55215073915173E-02 
2281	 7.51653638657426E-02 
2282	 7.47474703944274E-02 
2283	 7.40485116637699E-02 
2284	 7.34541654212405E-02 
2285	 7.31330684454814E-02 
2286	 7.29970153828914E-02 
2287	 7.31341410374561E-02 
2288	 7.33875731404674E-02 
2289	 7.36341419388796E-02 
2290	 7.39843085884769E-02 
2291	 7.41867518175711E-02 
2292	 7.39126203542472E-02 
2293	 7.35870959678112E-02 
2294	 0.073120356240952 
2295	 7.24588384799513E-02 
2296	 0.072129638527571 
2297	 7.13379660503156E-02 
2298	 7.05512695666248E-02 
2299	 7.09368000507704E-02 
2300	 7.05174940546692E-02 
2301	 0.069789779615606 
2302	 6.98929546158635E-02 
2303	 6.92283436109069E-02 
2304	 6.86071209044109E-02 
2305	 6.84264844004114E-02 
2306	 0.068022990338058 
2307	 6.76795844301812E-02 
2308	 6.75628301764429E-02 
2309	 6.80084917856931E-02 
2310	 6.78508852051082E-02 
2311	 0.066464780688164 
2312	 6.53344461619671E-02 
2313	 6.41285998928733E-02 
2314	 6.36704538632503E-02 
2315	 6.40177961064221E-02 
2316	 6.37060504032851E-02 
2317	 0.063748579241813 
2318	 6.37405071220159E-02 
2319	 6.38145189606213E-02 
2320	 6.40945996072671E-02 
2321	 6.42073928713685E-02 
2322	 6.46348880311334E-02 
2323	 6.46861394572067E-02 
2324	 6.45388536328518E-02 
2325	 6.36127940232068E-02 
2326	 6.24550852521045E-02 
2327	 6.11911143372384E-02 
2328	 6.04260281316547E-02 
2329	 6.02215378520787E-02 
2330	 6.04328809644531E-02 
2331	 5.96884583570128E-02 
2332	 5.74769814816725E-02 
2333	 5.67609165023951E-02 
2334	 5.81441496854141E-02 
2335	 0.060095651233324 
2336	 6.19724424723962E-02 
2337	 0.062026678602554 
2338	 6.01880478049134E-02 
2339	 5.81596071033458E-02 
2340	 5.65917303440005E-02 
2341	 5.62868311853512E-02 
2342	 0.056666659641083 
2343	 0.057106645609075 
2344	 5.76104917511625E-02 
2345	 5.75752228847682E-02 
2346	 5.71060766812325E-02 
2347	 0.055803748496073 
2348	 5.50363125957842E-02 
2349	 5.57857813836662E-02 
2350	 5.63083035911636E-02 
2351	 5.67778981660269E-02 
2352	 5.62381312793823E-02 
2353	 5.55513267087739E-02 
2354	 5.63143867915529E-02 
2355	 5.62153188594814E-02 
2356	 5.58786647131542E-02 
2357	 5.48630051106224E-02 
2358	 5.18434028343997E-02 
2359	 4.96056280819823E-02 
2360	 4.96549617191933E-02 
2361	 5.04118893892976E-02 
2362	 5.05890013063161E-02 
2363	 5.13878295845145E-02 
2364	 5.23826521440469E-02 
2365	 0.052535888728583 
2366	 5.31014562022836E-02 
2367	 5.24925869148775E-02 
2368	 5.12683518094784E-02 
2369	 4.98475447835218E-02 
2370	 4.84065543473725E-02 
2371	 4.89304624631862E-02 
2372	 4.90547313421726E-02 
2373	 4.93023217140604E-02 
2374	 4.94934890541707E-02 
2375	 4.97140653542691E-02 
2376	 4.91845878692704E-02 
2377	 0.048474001320406 
2378	 4.78364029439129E-02 
2379	 4.60797584938393E-02 
2380	 4.65578980740993E-02 
2381	 4.88020573419744E-02 
2382	 4.91667072247394E-02 
2383	 0.050200299677856 
2384	 5.07286495398802E-02 
2385	 4.97169583758974E-02 
2386	 4.81835112191191E-02 
2387	 4.61812624422407E-02 
2388	 4.54315198711552E-02 
2389	 4.45234708591997E-02 
2390	 4.47146879616506E-02 
2391	 4.66931295578413E-02 
2392	 4.70507442985998E-02 
2393	 4.68347804684339E-02 
2394	 0.046315250081587 
2395	 4.40057726836445E-02 
2396	 4.32813805945043E-02 
2397	 4.40991562335522E-02 
2398	 4.42109120787027E-02 
2399	 4.59946967720561E-02 
2400	 4.67429879381646E-02 
2401	 4.69849012697929E-02 
2402	 4.43439396104935E-02 
2403	 4.32878779452001E-02 
2404	 4.27929356288076E-02 
2405	 4.51567898546456E-02 
2406	 4.67849576869508E-02 
2407	 4.64885807627171E-02 
2408	 4.62387624044742E-02 
2409	 4.55740637452436E-02 
2410	 0.043676275347609 
2411	 4.26237253705592E-02 
2412	 4.31263143146423E-02 
2413	 4.15443781168948E-02 
2414	 4.23550164942494E-02 
2415	 4.28341877739394E-02 
2416	 0.041739973348862 
2417	 4.18723210640556E-02 
2418	 3.81047739521341E-02 
2419	 3.77426261868103E-02 
2420	 3.65193753451926E-02 
2421	 3.31542261627591E-02 
2422	 3.44918239595235E-02 
2423	 3.16489237943603E-02 
2424	 3.33676661214509E-02 
2425	 3.74349388446722E-02 
2426	 3.55404995209289E-02 
2427	 3.63845456488583E-02 
2428	 3.47165085108012E-02 
2429	 0.031515202766848 
2430	 3.30913986299978E-02 
2431	 3.43788462090705E-02 
2432	 3.52639367752807E-02 
2433	 3.77214878879457E-02 
2434	 3.87096786784776E-02 
2435	 4.19543954049256E-02 
2436	 4.11755686950872E-02 
2437	 3.42668973168829E-02 
2438	 0.031211890200798 
2439	 2.44471133130958E-02 
2440	 2.34429245162993E-02 
2441	 3.38421000074877E-02 
2442	 3.62086593410884E-02 
2443	 3.58635686585176E-02 
2444	 3.77011234064212E-02 
2445	 3.19628342524214E-02 
2446	 3.18229917892342E-02 
2447	 0.040809938546701 
2448	 4.36164554939655E-02 
2449	 4.61248486397721E-02 
2450	 4.79144659331553E-02 
2451	 4.73747028832958E-02 
2452	 4.50878347347352E-02 
2453	 3.82678414170298E-02 
2454	 3.38316640452774E-02 
2455	 2.73760855697282E-02 
2456	 2.78406612922618E-02 
2457	 3.77557866365664E-02 
2458	 4.17030820359917E-02 
2459	 4.31380366972597E-02 
2460	 4.50628158339368E-02 
2461	 4.55534396469663E-02 
2462	 0.043004338539067 
2463	 4.29013658214724E-02 
2464	 3.97018644715153E-02 
2465	 2.54201384197651E-02 
2466	 2.22425364481834E-02 
2467	 2.62559372847595E-02 
2468	 2.62604476079789E-02 
2469	 3.01874578906479E-02 
2470	 3.36645990892694E-02 
2471	 3.25116798686371E-02 
2472	 3.63104283302453E-02 
2473	 5.31980566801161E-02 
2474	 5.35872490204191E-02 
2475	 3.59526661498549E-02 
2476	 3.87192320606711E-02 
2477	 0.044437132538888 
2478	 0.043953812581865 
2479	 5.76890169680875E-02 
2480	 7.19734048546726E-02 
2481	 7.69249493195339E-02 
2482	 8.61242507490742E-02 
2483	 0.125061343226964 
2484	 0.133017718505481 
2485	 9.44209847742509E-02 
2486	 0.109396023856178 
2487	 9.54711729175808E-02 
2488	 7.15921838252838E-02 
2489	 8.44942851209425E-02 
2490	 7.27046782105079E-02 
2491	 3.56411477086322E-02 
2492	 1.8174227996507E-03 
2493	 3.79745635326789E-03 
2494	 4.55782275651081E-02 
2495	 0.120574249172909 
2496	 0.204933350163519 
2497	 0.215512417615884 
2498	 0.149573014431369 
2499	 0.073392034470816 
2500	 1.86289686487241E-02 
