Wavelength	ref00011.asd
350	 1.80980422477106E-02 
351	 1.81108998852466E-02 
352	 1.81088533476779E-02 
353	 0.0177402881222 
354	 1.81004173692336E-02 
355	 1.81889040378363E-02 
356	 1.75529283941391E-02 
357	 1.76548309392587E-02 
358	 1.73590486720435E-02 
359	 1.73487806356507E-02 
360	 1.82419566458981E-02 
361	 1.80874491612925E-02 
362	 1.76753865424968E-02 
363	 1.74113809556877E-02 
364	 1.73354135712254E-02 
365	 1.73276608657653E-02 
366	 1.71271651992717E-02 
367	 1.68029802495854E-02 
368	 1.68776791897289E-02 
369	 1.70987521544398E-02 
370	 1.71769595848284E-02 
371	 1.69823470291513E-02 
372	 1.68716070645277E-02 
373	 1.67215319211296E-02 
374	 1.65740238784019E-02 
375	 1.65595034169364E-02 
376	 0.016823766444673 
377	 1.69020703928976E-02 
378	 1.66905276045663E-02 
379	 1.65725608830244E-02 
380	 1.65329707741034E-02 
381	 1.66149241956746E-02 
382	 1.67974921292841E-02 
383	 1.68701970306192E-02 
384	 1.71892380769738E-02 
385	 1.74238465121129E-02 
386	 1.71070258427214E-02 
387	 1.69615159095482E-02 
388	 1.72320923972193E-02 
389	 1.75956440253977E-02 
390	 1.72643917470577E-02 
391	 1.72651781474276E-02 
392	 0.017443097630169 
393	 1.75100677330907E-02 
394	 1.73635107886446E-02 
395	 1.74193256368379E-02 
396	 1.76565293408707E-02 
397	 1.78689406428432E-02 
398	 1.78618926092207E-02 
399	 1.77789817505376E-02 
400	 0.01772348088246 
401	 1.77334998595526E-02 
402	 1.76563721363556E-02 
403	 1.78442348093644E-02 
404	 1.83257575352757E-02 
405	 1.83348827177246E-02 
406	 1.83970082486588E-02 
407	 1.84175196694233E-02 
408	 1.82495980875444E-02 
409	 1.85583521765272E-02 
410	 1.87805020427014E-02 
411	 1.87857897854377E-02 
412	 1.88721470437299E-02 
413	 1.90246939172759E-02 
414	 1.92031604656398E-02 
415	 1.93664109910209E-02 
416	 1.94898905869607E-02 
417	 0.019601445039692 
418	 0.0196941112105 
419	 1.97612996732144E-02 
420	 1.98217556290763E-02 
421	 2.01411529043486E-02 
422	 2.05367429790911E-02 
423	 2.04825929884789E-02 
424	 2.05855933032373E-02 
425	 2.06709279138039E-02 
426	 2.06409745763117E-02 
427	 2.08583715777772E-02 
428	 2.10926028232527E-02 
429	 2.12471173346031E-02 
430	 2.13111765953036E-02 
431	 2.14467759511579E-02 
432	 2.15919793796416E-02 
433	 2.16909956150543E-02 
434	 2.17154136545655E-02 
435	 2.17666799412593E-02 
436	 2.19577504785338E-02 
437	 2.22405396989744E-02 
438	 2.22327445755705E-02 
439	 2.22494022301794E-02 
440	 2.23613832162504E-02 
441	 2.25298295080185E-02 
442	 2.26256069846826E-02 
443	 2.27595774348917E-02 
444	 0.02291342676158 
445	 2.29471643828917E-02 
446	 2.30762226732894E-02 
447	 2.32557770993364E-02 
448	 2.34079940085811E-02 
449	 2.34909843115274E-02 
450	 0.023596230769904 
451	 2.37339255695126E-02 
452	 2.38729580465224E-02 
453	 2.39630851627121E-02 
454	 2.41154802978421E-02 
455	 2.43206721112351E-02 
456	 2.44185622760167E-02 
457	 2.44945944767914E-02 
458	 2.45517431692458E-02 
459	 0.024593215630661 
460	 2.46713749905482E-02 
461	 2.47743042257257E-02 
462	 2.48538051521046E-02 
463	 2.48562320962683E-02 
464	 2.48536928551526E-02 
465	 2.49337533522499E-02 
466	 0.025098747541198 
467	 2.52279753645724E-02 
468	 2.53154921516629E-02 
469	 2.53409575757861E-02 
470	 2.53203178651722E-02 
471	 2.53934334198121E-02 
472	 2.54665157097558E-02 
473	 2.55148618286051E-02 
474	 2.55702162402129E-02 
475	 2.56775054303574E-02 
476	 2.57956237905521E-02 
477	 2.58818856658216E-02 
478	 2.59064123419944E-02 
479	 0.026005744012607 
480	 2.61436330671446E-02 
481	 2.62337079823073E-02 
482	 2.62759810386969E-02 
483	 2.63194960232998E-02 
484	 2.64143128275744E-02 
485	 2.65988604945254E-02 
486	 2.67324143182236E-02 
487	 2.68404865095533E-02 
488	 2.69723845296567E-02 
489	 0.027141281512985 
490	 2.73593954985373E-02 
491	 0.027558861831434 
492	 0.027673280293875 
493	 2.78569385398539E-02 
494	 2.81261912596651E-02 
495	 0.028450699092891 
496	 2.87594595004414E-02 
497	 2.90774403037599E-02 
498	 2.94259803445324E-02 
499	 2.98274264751874E-02 
500	 3.03044817396705E-02 
501	 3.08391727129332E-02 
502	 3.14227713334103E-02 
503	 3.20414613474199E-02 
504	 3.25671671885549E-02 
505	 0.033142595473468 
506	 3.38701803009301E-02 
507	 3.47385417159936E-02 
508	 3.56096242039596E-02 
509	 3.64951875750992E-02 
510	 3.74549059270806E-02 
511	 0.038514764169317 
512	 3.96401403961586E-02 
513	 4.08529897590718E-02 
514	 4.22198779543978E-02 
515	 4.36318606384849E-02 
516	 4.51362366954608E-02 
517	 4.67537564391099E-02 
518	 4.84021247964099E-02 
519	 5.00535915884255E-02 
520	 5.16939865575114E-02 
521	 0.053341476200162 
522	 5.51010073141084E-02 
523	 5.68741017284379E-02 
524	 5.86131687717213E-02 
525	 6.03198050833809E-02 
526	 6.20286173201621E-02 
527	 6.37403836115704E-02 
528	 6.54075986182547E-02 
529	 6.68375884538394E-02 
530	 6.82985144389192E-02 
531	 0.069757274571617 
532	 7.10400297770456E-02 
533	 7.23254268411202E-02 
534	 7.35065751300241E-02 
535	 7.45367590986113E-02 
536	 7.55254485456041E-02 
537	 7.64855443744229E-02 
538	 7.74160029755977E-02 
539	 7.82995228988265E-02 
540	 7.90957797181113E-02 
541	 7.98896262104179E-02 
542	 0.080637370270752 
543	 8.12012582560338E-02 
544	 8.18427024999322E-02 
545	 8.25003736897281E-02 
546	 8.31150595472669E-02 
547	 0.083771539450531 
548	 8.43226451338097E-02 
549	 8.48207647295409E-02 
550	 8.53647095688254E-02 
551	 8.57693031457835E-02 
552	 8.61008793729486E-02 
553	 8.63693588658079E-02 
554	 8.64940742828301E-02 
555	 8.65027699769708E-02 
556	 8.64612150295263E-02 
557	 8.64099479770806E-02 
558	 8.62892311954355E-02 
559	 8.60022274725735E-02 
560	 8.55812713211316E-02 
561	 8.51343825126489E-02 
562	 8.45847074220352E-02 
563	 8.39697167089126E-02 
564	 8.33118182210492E-02 
565	 0.082587928290934 
566	 8.18384919346783E-02 
567	 8.10218459812408E-02 
568	 8.01011113786026E-02 
569	 7.92017637921931E-02 
570	 7.82188521550068E-02 
571	 7.71851336125651E-02 
572	 7.62531474505706E-02 
573	 7.52030500395008E-02 
574	 7.42082616374735E-02 
575	 7.33755862940299E-02 
576	 0.072485277702703 
577	 7.16271618720957E-02 
578	 7.08654644765017E-02 
579	 7.02297034587631E-02 
580	 6.95966309072992E-02 
581	 6.89919306546614E-02 
582	 6.84381172961806E-02 
583	 0.067934285462488 
584	 6.73864132057387E-02 
585	 6.68489131615605E-02 
586	 6.63950283989595E-02 
587	 6.59952536601422E-02 
588	 6.56394689723501E-02 
589	 6.52700273335138E-02 
590	 6.48194149731186E-02 
591	 6.44315169670737E-02 
592	 6.41001643375529E-02 
593	 6.38036677790545E-02 
594	 6.35619492678061E-02 
595	 0.06335751830166 
596	 0.063131074999415 
597	 6.28412061253839E-02 
598	 6.26110034926427E-02 
599	 6.23863775500759E-02 
600	 0.062156878716875 
601	 6.19579765658319E-02 
602	 0.061629864320015 
603	 6.12787783156592E-02 
604	 0.060982737223989 
605	 6.05951390196168E-02 
606	 6.01675420042571E-02 
607	 5.96971169420704E-02 
608	 5.91741789936474E-02 
609	 5.87045324548121E-02 
610	 5.82331138358024E-02 
611	 5.77233194463781E-02 
612	 5.71833020901637E-02 
613	 0.056661176517106 
614	 5.61233166668207E-02 
615	 5.55467416675487E-02 
616	 5.50294093368195E-02 
617	 5.45079429908019E-02 
618	 5.39962200393982E-02 
619	 5.35552988729265E-02 
620	 5.32293948234084E-02 
621	 5.29286010247125E-02 
622	 5.26120329936212E-02 
623	 0.052368108993131 
624	 5.21579766941589E-02 
625	 5.19888463281152E-02 
626	 5.18846422207382E-02 
627	 5.18888435123312E-02 
628	 5.18368521310891E-02 
629	 0.051724191363519 
630	 5.17042083593448E-02 
631	 5.16722446281473E-02 
632	 5.15934484833496E-02 
633	 5.14378317499266E-02 
634	 0.051143470614202 
635	 5.08225120323721E-02 
636	 0.050468586052478 
637	 5.00207516810472E-02 
638	 4.94521457747521E-02 
639	 4.87708620754139E-02 
640	 4.80211542970058E-02 
641	 4.73064914533773E-02 
642	 4.65193074625183E-02 
643	 4.56947062704152E-02 
644	 4.48890135260157E-02 
645	 4.41382423471187E-02 
646	 4.33866241558828E-02 
647	 0.042659688221533 
648	 4.20320701372637E-02 
649	 4.15317036106484E-02 
650	 4.10591230444749E-02 
651	 4.06142779635912E-02 
652	 4.03554939911902E-02 
653	 4.01893326064445E-02 
654	 0.039975798309695 
655	 3.96243016475171E-02 
656	 3.93883144275521E-02 
657	 3.89773309257323E-02 
658	 3.84402665223605E-02 
659	 3.79978982833546E-02 
660	 3.74564458174342E-02 
661	 3.68274444340939E-02 
662	 3.61893866259574E-02 
663	 3.56641790475423E-02 
664	 3.50723267844763E-02 
665	 3.44933568311191E-02 
666	 0.034061740502876 
667	 3.37351366995531E-02 
668	 3.33777613787092E-02 
669	 3.29993262763123E-02 
670	 3.27357907521982E-02 
671	 3.25273318729042E-02 
672	 3.24290331701385E-02 
673	 3.24165521853644E-02 
674	 3.22182845083437E-02 
675	 3.21597121860583E-02 
676	 0.032232351018023 
677	 3.23069861016169E-02 
678	 0.032384480281495 
679	 3.25464889873543E-02 
680	 3.28231774098852E-02 
681	 0.03318453629853 
682	 3.36607526047697E-02 
683	 0.034251759498261 
684	 3.49795315468218E-02 
685	 3.59269769775855E-02 
686	 0.037145924381099 
687	 3.88239232416387E-02 
688	 4.09679138424247E-02 
689	 4.30438188230477E-02 
690	 4.53966142094217E-02 
691	 4.82959929255716E-02 
692	 5.16645171103345E-02 
693	 5.55333953083735E-02 
694	 5.99114359921258E-02 
695	 6.47454251973246E-02 
696	 6.99415377667187E-02 
697	 7.53815323593292E-02 
698	 8.11700988731603E-02 
699	 8.74235933264534E-02 
700	 9.38626409755305E-02 
701	 0.100405918123177 
702	 0.107030107289031 
703	 0.113732648737056 
704	 0.12032380015688 
705	 0.126828361644092 
706	 0.133343567140576 
707	 0.139842844539349 
708	 0.146172324741829 
709	 0.152441757928511 
710	 0.158778619522955 
711	 0.164853137691875 
712	 0.171034327079513 
713	 0.177347908200444 
714	 0.183376375472656 
715	 0.189393284309752 
716	 0.195390219701891 
717	 0.201476046036243 
718	 0.207677942595398 
719	 0.213811422354217 
720	 0.21977296505399 
721	 0.225579932752416 
722	 0.230938529460078 
723	 0.236268658901322 
724	 0.241900858550172 
725	 0.247360487437127 
726	 0.252544856251694 
727	 0.257538813479254 
728	 0.26249862169528 
729	 0.267177509438848 
730	 0.271678604863611 
731	 0.276023908206282 
732	 0.280201202015253 
733	 0.283979418760945 
734	 0.287625851291141 
735	 0.291242844935924 
736	 0.29467023674747 
737	 0.297928669546634 
738	 0.300954961179279 
739	 0.303800186665723 
740	 0.306648071157144 
741	 0.309196012741127 
742	 0.311540881893603 
743	 0.313838408513602 
744	 0.315949763486966 
745	 0.317819821322025 
746	 0.319539480934355 
747	 0.321279176020981 
748	 0.322860125630796 
749	 0.324297771390021 
750	 0.325612414241137 
751	 0.326786045492965 
752	 0.327884267579627 
753	 0.328913364794362 
754	 0.32986478028064 
755	 0.330739974692366 
756	 0.331594782007358 
757	 0.332392991189265 
758	 0.333123222769539 
759	 0.334411624852326 
760	 0.336029198188005 
761	 0.337434180371718 
762	 0.337830089834568 
763	 0.337993162103296 
764	 0.338017973960883 
765	 0.337849101902902 
766	 0.337571888283983 
767	 0.337612056117767 
768	 0.337784429626842 
769	 0.337838423983335 
770	 0.338046256292436 
771	 0.338353400486738 
772	 0.338663307637884 
773	 0.338868725359041 
774	 0.339039457497903 
775	 0.339245475067781 
776	 0.339507032054053 
777	 0.339764582824163 
778	 0.339993675723985 
779	 0.340198924297342 
780	 0.340388147376321 
781	 0.340537309006854 
782	 0.340742328553385 
783	 0.340978031743106 
784	 0.341163463843047 
785	 0.341334783170051 
786	 0.341549761118099 
787	 0.34176675023179 
788	 0.341856702292754 
789	 0.342179052741289 
790	 0.342500659643253 
791	 0.342648755806873 
792	 0.342812502107325 
793	 0.343061545746109 
794	 0.343280028895774 
795	 0.343381798981384 
796	 0.343686204185518 
797	 0.34384238045597 
798	 0.343945266633077 
799	 0.344283220550364 
800	 0.344401939098944 
801	 0.344522061176302 
802	 0.344707643147437 
803	 0.344790372845186 
804	 0.345128481807183 
805	 0.345404316624316 
806	 0.345452710625393 
807	 0.345696781897951 
808	 0.345858600782419 
809	 0.346017775498181 
810	 0.346266862610326 
811	 0.346290755764623 
812	 0.346517431893444 
813	 0.346898139216759 
814	 0.34711822375982 
815	 0.347272651920132 
816	 0.347465516317821 
817	 0.347687582396795 
818	 0.347813490933452 
819	 0.34789268262638 
820	 0.348107514004075 
821	 0.34843437840846 
822	 0.348481475687811 
823	 0.348562233844837 
824	 0.34876216229946 
825	 0.349057483401325 
826	 0.349353052970382 
827	 0.349503919785764 
828	 0.349639700256847 
829	 0.349924586259714 
830	 0.350038395181596 
831	 0.350121687932486 
832	 0.35023706505094 
833	 0.350380204597624 
834	 0.350686924872939 
835	 0.350903958276332 
836	 0.350999694480271 
837	 0.351239459393577 
838	 0.351374860273654 
839	 0.351582959913488 
840	 0.351935151981763 
841	 0.352142765331237 
842	 0.352349749286094 
843	 0.352553918476234 
844	 0.352728881281796 
845	 0.3528998723788 
846	 0.353092816683318 
847	 0.353273300525915 
848	 0.353408942231897 
849	 0.35363346415375 
850	 0.35379872697447 
851	 0.353952083020822 
852	 0.354247069496223 
853	 0.354334073813987 
854	 0.354489414548827 
855	 0.354774462076669 
856	 0.35494672896985 
857	 0.355198501657969 
858	 0.355481401795791 
859	 0.355717535432002 
860	 0.355836351647188 
861	 0.355791755089958 
862	 0.355934332695236 
863	 0.356391254474162 
864	 0.356463053762744 
865	 0.356758898714657 
866	 0.357020649809253 
867	 0.356927288342692 
868	 0.357114277181243 
869	 0.357292948964051 
870	 0.357463387464231 
871	 0.357721620286136 
872	 0.357879154146932 
873	 0.358051198966467 
874	 0.358218340597048 
875	 0.358284583993123 
876	 0.358401912256969 
877	 0.358571484792388 
878	 0.358769709821544 
879	 0.358956846119819 
880	 0.359020239645339 
881	 0.359084329358987 
882	 0.359207229699124 
883	 0.359309564635673 
884	 0.359478635709748 
885	 0.359603819653496 
886	 0.359654983297244 
887	 0.359813284640059 
888	 0.359937732192478 
889	 0.360077620891098 
890	 0.360235425488544 
891	 0.360160960649522 
892	 0.360313798256685 
893	 0.360549727843644 
894	 0.360562703307622 
895	 0.360204515647718 
896	 0.360300321124519 
897	 0.360675828116637 
898	 0.360803017691314 
899	 0.360909000586161 
900	 0.361072730046807 
901	 0.361151934945909 
902	 0.361027801759348 
903	 0.361301014641928 
904	 0.361471958721943 
905	 0.361507050343205 
906	 0.36160814395025 
907	 0.361179182811503 
908	 0.361098994023366 
909	 0.361427497596873 
910	 0.361504619907895 
911	 0.361739423370477 
912	 0.361995441212189 
913	 0.362159488775659 
914	 0.362228418313514 
915	 0.362499059118589 
916	 0.362457583426037 
917	 0.362184561046335 
918	 0.362417038262327 
919	 0.362157520705401 
920	 0.362105850112781 
921	 0.362406615169357 
922	 0.362249849517191 
923	 0.362320407007459 
924	 0.36242394672675 
925	 0.362356674000141 
926	 0.362149796373256 
927	 0.361838528385191 
928	 0.361598971927679 
929	 0.36137033604406 
930	 0.360624639095075 
931	 0.361238412466224 
932	 0.361544840210534 
933	 0.360423735370533 
934	 0.360422210909271 
935	 0.359301006090293 
936	 0.359405175913191 
937	 0.361146312129701 
938	 0.359466255148211 
939	 0.35941927908642 
940	 0.359906830601756 
941	 0.359614103638659 
942	 0.359507602898603 
943	 0.35886669950144 
944	 0.358007971780194 
945	 0.357327622618643 
946	 0.356802282056307 
947	 0.356622802729494 
948	 0.356499288172075 
949	 0.356122712456381 
950	 0.355438685837302 
951	 0.35519736963414 
952	 0.354736171206474 
953	 0.353713943317847 
954	 0.353148308384074 
955	 0.353203052029117 
956	 0.352681237637693 
957	 0.3512280935219 
958	 0.350719230896558 
959	 0.350213151863479 
960	 0.349999010602045 
961	 0.350350643517183 
962	 0.351016606337326 
963	 0.350443393179624 
964	 0.34964834799467 
965	 0.349484174582348 
966	 0.349469886007139 
967	 0.350131955799829 
968	 0.350441636419577 
969	 0.349752785297886 
970	 0.348596209913808 
971	 0.349306329889254 
972	 0.350175776470436 
973	 0.349777084859277 
974	 0.348523015737106 
975	 0.348704911854912 
976	 0.349584827866781 
977	 0.350033693122171 
978	 0.349489382507494 
979	 0.349543802853435 
980	 0.349945749193275 
981	 0.350189769315104 
982	 0.349990173321327 
983	 0.350271361884814 
984	 0.350711845850739 
985	 0.351173040311134 
986	 0.351752308964268 
987	 0.351771895682577 
988	 0.351788295779136 
989	 0.352065082946634 
990	 0.35250019308228 
991	 0.353107884899037 
992	 0.352964855399705 
993	 0.352735699084951 
994	 0.353528827464256 
995	 0.353109515296757 
996	 0.353534108585412 
997	 0.354387122165006 
998	 0.354416850145886 
999	 0.354875270148571 
1000	 0.355518725357744 
1001	 0.354488637051429 
1002	 0.354798822774139 
1003	 0.355128953997454 
1004	 0.355405288904764 
1005	 0.355787548670958 
1006	 0.356243026187757 
1007	 0.356659225783219 
1008	 0.357094746382016 
1009	 0.357539892763252 
1010	 0.35802643159975 
1011	 0.358415794987762 
1012	 0.358705254594008 
1013	 0.359188815506201 
1014	 0.359594496120996 
1015	 0.359881880510753 
1016	 0.360324762762595 
1017	 0.360810741872702 
1018	 0.361186814851733 
1019	 0.361428814914111 
1020	 0.361865634376698 
1021	 0.362381791856401 
1022	 0.362781962964887 
1023	 0.363187201234665 
1024	 0.36373472215783 
1025	 0.364110623872441 
1026	 0.364409217888736 
1027	 0.364842185422886 
1028	 0.365199142232269 
1029	 0.365525542862936 
1030	 0.36597495244354 
1031	 0.366412389178202 
1032	 0.366888323072942 
1033	 0.367290502622767 
1034	 0.367618283061679 
1035	 0.367990794619764 
1036	 0.368342205210456 
1037	 0.368677181174591 
1038	 0.369044100664732 
1039	 0.369396006894475 
1040	 0.369689441236883 
1041	 0.370019837236831 
1042	 0.370306643107473 
1043	 0.370625433635424 
1044	 0.37089580234799 
1045	 0.371161979914761 
1046	 0.371518496105552 
1047	 0.371835237877311 
1048	 0.372101202252915 
1049	 0.372306317233238 
1050	 0.372524460190657 
1051	 0.372675811591146 
1052	 0.372888337066024 
1053	 0.373227310702551 
1054	 0.373600454383691 
1055	 0.373950299679376 
1056	 0.374246465927736 
1057	 0.374330664456439 
1058	 0.374400775525282 
1059	 0.374612687216468 
1060	 0.374727206019807 
1061	 0.374833285905224 
1062	 0.375083888010444 
1063	 0.375173085717188 
1064	 0.375235816453348 
1065	 0.375372708892873 
1066	 0.375598006071125 
1067	 0.375690074988206 
1068	 0.375833976215256 
1069	 0.375948276369871 
1070	 0.376056269693129 
1071	 0.376220428242966 
1072	 0.376250506996176 
1073	 0.376282033768632 
1074	 0.376406210929742 
1075	 0.376476040004977 
1076	 0.376506966265778 
1077	 0.376562477095487 
1078	 0.376468274011344 
1079	 0.3764280929391 
1080	 0.376445173674754 
1081	 0.376447090717038 
1082	 0.376461557320331 
1083	 0.376636336045467 
1084	 0.376701658086581 
1085	 0.376706153172816 
1086	 0.376834694682669 
1087	 0.376835766321871 
1088	 0.376710696671298 
1089	 0.376694234336025 
1090	 0.376662515607046 
1091	 0.376622281750365 
1092	 0.37668219992262 
1093	 0.376670214559712 
1094	 0.376723840249219 
1095	 0.376745163705353 
1096	 0.376727805001149 
1097	 0.376734081663333 
1098	 0.376708385334309 
1099	 0.376597572462952 
1100	 0.376505759949286 
1101	 0.376528937711446 
1102	 0.376495525717395 
1103	 0.37648013100286 
1104	 0.376423011251023 
1105	 0.376235235338242 
1106	 0.376094319755284 
1107	 0.37605730402588 
1108	 0.376014709247388 
1109	 0.375996592550984 
1110	 0.375901312583905 
1111	 0.375763904705056 
1112	 0.375452351095916 
1113	 0.375285804996376 
1114	 0.37520668528289 
1115	 0.375027175063436 
1116	 0.374816413101701 
1117	 0.374614609437612 
1118	 0.374432226887724 
1119	 0.374210160305478 
1120	 0.374037149171219 
1121	 0.373853506047025 
1122	 0.373564166810232 
1123	 0.373259197486053 
1124	 0.372910605872901 
1125	 0.372502818402174 
1126	 0.371964625496264 
1127	 0.371351663376095 
1128	 0.370649943269845 
1129	 0.369919678890824 
1130	 0.36900758777676 
1131	 0.368011578723992 
1132	 0.366887078127518 
1133	 0.365605223368401 
1134	 0.364399018304401 
1135	 0.363132760331433 
1136	 0.361947303186268 
1137	 0.360601575881824 
1138	 0.359136232694478 
1139	 0.357664765805044 
1140	 0.355937739358835 
1141	 0.35427626656054 
1142	 0.352691236748789 
1143	 0.351009582116673 
1144	 0.349295570626875 
1145	 0.347531330977126 
1146	 0.34565978150084 
1147	 0.343827505710969 
1148	 0.341934744484111 
1149	 0.340259260680982 
1150	 0.338743749816375 
1151	 0.337352722838823 
1152	 0.336214850111188 
1153	 0.335010466369196 
1154	 0.333942126840335 
1155	 0.333000850498754 
1156	 0.332114565097422 
1157	 0.331450012631418 
1158	 0.330850724419816 
1159	 0.330202406535535 
1160	 0.329604345369002 
1161	 0.32898440719753 
1162	 0.328501436332875 
1163	 0.328074146952443 
1164	 0.327704450373494 
1165	 0.327445558280919 
1166	 0.327147727287585 
1167	 0.326865813954438 
1168	 0.32654110941141 
1169	 0.326156445015584 
1170	 0.32587371413922 
1171	 0.325565278307288 
1172	 0.325235098262297 
1173	 0.325027829019244 
1174	 0.324823584527861 
1175	 0.324557190259902 
1176	 0.324327182524859 
1177	 0.324090998974033 
1178	 0.323823468607598 
1179	 0.323567400464845 
1180	 0.323329773774804 
1181	 0.323108557328452 
1182	 0.322925045198517 
1183	 0.322667610816444 
1184	 0.322363789817816 
1185	 0.322111748805449 
1186	 0.321814062562839 
1187	 0.321556779389515 
1188	 0.321350333855703 
1189	 0.321193167176447 
1190	 0.320980557323565 
1191	 0.320792763346419 
1192	 0.320629634379227 
1193	 0.320468374452095 
1194	 0.320369988775419 
1195	 0.320311658024063 
1196	 0.320258870274455 
1197	 0.320252654887296 
1198	 0.320237865266422 
1199	 0.320191642545565 
1200	 0.320226467758253 
1201	 0.320301163303617 
1202	 0.32042072203996 
1203	 0.32062250665313 
1204	 0.320793237506193 
1205	 0.320942374243624 
1206	 0.321159412807433 
1207	 0.321414221651096 
1208	 0.321674010974551 
1209	 0.321930806035694 
1210	 0.322291833907105 
1211	 0.322697403610118 
1212	 0.323087218662813 
1213	 0.323513372019627 
1214	 0.324016452743299 
1215	 0.32449293831956 
1216	 0.324947509877504 
1217	 0.325448628050278 
1218	 0.325986766427976 
1219	 0.326539071040564 
1220	 0.327104317566463 
1221	 0.327681407034043 
1222	 0.32834829412632 
1223	 0.328909504634849 
1224	 0.329419129768498 
1225	 0.329939642708821 
1226	 0.330388239290505 
1227	 0.330875556936607 
1228	 0.331367106994072 
1229	 0.33191900938571 
1230	 0.332476571428364 
1231	 0.332932634179481 
1232	 0.333385868904101 
1233	 0.333802568787864 
1234	 0.334254661724452 
1235	 0.33467856459973 
1236	 0.33513995971116 
1237	 0.335671903196064 
1238	 0.336113129944556 
1239	 0.336522944670056 
1240	 0.3369257542431 
1241	 0.337287466420192 
1242	 0.337652316313823 
1243	 0.337996938173098 
1244	 0.338363077227782 
1245	 0.338750978689809 
1246	 0.339101065807442 
1247	 0.339435030276036 
1248	 0.339783021004088 
1249	 0.340124467102356 
1250	 0.340443668544922 
1251	 0.340775082221372 
1252	 0.34111649993291 
1253	 0.341373434183328 
1254	 0.341538176060802 
1255	 0.341788700715288 
1256	 0.3420230671548 
1257	 0.342296556155138 
1258	 0.342668826762551 
1259	 0.342928718169897 
1260	 0.343139308386619 
1261	 0.343358088337122 
1262	 0.343529053010788 
1263	 0.34371438746801 
1264	 0.3439134347176 
1265	 0.344090207131726 
1266	 0.344264305365053 
1267	 0.344391513590334 
1268	 0.344496388147907 
1269	 0.344571389352923 
1270	 0.344628240741166 
1271	 0.344613405512387 
1272	 0.344522428360898 
1273	 0.344423658960858 
1274	 0.344365880403325 
1275	 0.344275613480706 
1276	 0.344195866957865 
1277	 0.34416867483254 
1278	 0.344101494301974 
1279	 0.344017008541105 
1280	 0.343871500057613 
1281	 0.343726818128771 
1282	 0.343528195338355 
1283	 0.343266303807998 
1284	 0.342957750432987 
1285	 0.342577823868803 
1286	 0.342254127037562 
1287	 0.341893308333218 
1288	 0.341542786851911 
1289	 0.341263849010755 
1290	 0.340928830165231 
1291	 0.340568132779978 
1292	 0.340157149299451 
1293	 0.339683427724387 
1294	 0.33923437821074 
1295	 0.338751583799186 
1296	 0.338265173852162 
1297	 0.337751844102803 
1298	 0.337272713567817 
1299	 0.336693704989552 
1300	 0.336031466748959 
1301	 0.335384016259231 
1302	 0.334720614783457 
1303	 0.333994962087703 
1304	 0.333237801328087 
1305	 0.33243501653241 
1306	 0.331529370185514 
1307	 0.33068104642196 
1308	 0.329853728680384 
1309	 0.328967990109482 
1310	 0.328140665648795 
1311	 0.327152486525578 
1312	 0.325988203838847 
1313	 0.324895141952058 
1314	 0.323726246116482 
1315	 0.322592297517269 
1316	 0.321591765610336 
1317	 0.320449294815503 
1318	 0.319195561172116 
1319	 0.317960541805941 
1320	 0.316630119635965 
1321	 0.315322664103327 
1322	 0.313997232497824 
1323	 0.312659504155917 
1324	 0.311323973617868 
1325	 0.309963953060449 
1326	 0.308529535362578 
1327	 0.307045752903104 
1328	 0.305544109326718 
1329	 0.303981873003972 
1330	 0.302351036148158 
1331	 0.300683313709615 
1332	 0.299024845009505 
1333	 0.297256580809876 
1334	 0.295610833025241 
1335	 0.293996235866923 
1336	 0.292522668473361 
1337	 0.291113879576798 
1338	 0.28976803831354 
1339	 0.288487564211528 
1340	 0.287291960799554 
1341	 0.286079148823897 
1342	 0.284911305511691 
1343	 0.283737279455637 
1344	 0.282606974447862 
1345	 0.28137635857575 
1346	 0.280164334199541 
1347	 0.279213224072908 
1348	 0.27818543565336 
1349	 0.277229444644124 
1350	 0.276578851807916 
1351	 0.275786542215431 
1352	 0.275384656502896 
1353	 0.274501760047013 
1354	 0.273768176061066 
1355	 0.272398030688613 
1356	 0.269435636392724 
1357	 0.268072450629145 
1358	 0.271619021383086 
1359	 0.272095261475988 
1360	 0.274597815060197 
1361	 0.278110410667645 
1362	 0.274920108657313 
1363	 0.271290867394076 
1364	 0.274622424946092 
1365	 0.272575182141978 
1366	 0.262739446754369 
1367	 0.253105935461911 
1368	 0.244800072117252 
1369	 0.240753882322899 
1370	 0.23859588329235 
1371	 0.235464024439366 
1372	 0.233599074979014 
1373	 0.232622952064994 
1374	 0.231821874032111 
1375	 0.229059429989236 
1376	 0.226214147353459 
1377	 0.22453010015352 
1378	 0.222787662873389 
1379	 0.219795821189359 
1380	 0.216131666051533 
1381	 0.214975161660203 
1382	 0.208878157098149 
1383	 0.199848735184777 
1384	 0.191275185205804 
1385	 0.180371454410286 
1386	 0.174635396466616 
1387	 0.170828076317488 
1388	 0.16757445987455 
1389	 0.16792410593748 
1390	 0.165140931195488 
1391	 0.161985185330446 
1392	 0.157391770610516 
1393	 0.15058397939186 
1394	 0.145947116258522 
1395	 0.14084356261728 
1396	 0.136942140513834 
1397	 0.135027468406789 
1398	 0.131914913043073 
1399	 0.12869242102293 
1400	 0.125156421062666 
1401	 0.121371864716674 
1402	 0.117797765068464 
1403	 0.114854427975085 
1404	 0.111118087139754 
1405	 0.107385488560399 
1406	 0.103251395470571 
1407	 9.97461699126196E-02 
1408	 9.68397284798478E-02 
1409	 9.54223290050232E-02 
1410	 9.41632244872622E-02 
1411	 9.26502538895949E-02 
1412	 9.13899523374899E-02 
1413	 8.99866097124048E-02 
1414	 8.84776485050598E-02 
1415	 8.70860590797484E-02 
1416	 8.57471431823618E-02 
1417	 8.45803138249314E-02 
1418	 0.083376017881786 
1419	 8.23820874551485E-02 
1420	 0.081588710536199 
1421	 8.07558219573024E-02 
1422	 0.079857659007162 
1423	 7.92333963968197E-02 
1424	 7.87008555846559E-02 
1425	 7.82580836037572E-02 
1426	 7.79960510242683E-02 
1427	 7.76065104477479E-02 
1428	 7.71862551372337E-02 
1429	 7.67570524858538E-02 
1430	 7.62087928622816E-02 
1431	 7.58329748269824E-02 
1432	 7.55619740756177E-02 
1433	 0.075219893198067 
1434	 7.50031275234492E-02 
1435	 0.074650296247878 
1436	 7.40565344766039E-02 
1437	 7.36911871403908E-02 
1438	 0.073379106544988 
1439	 7.31143407568621E-02 
1440	 7.30676451777614E-02 
1441	 7.29076668600301E-02 
1442	 7.25998334089623E-02 
1443	 7.24224849019319E-02 
1444	 7.25292292845572E-02 
1445	 7.26492524305592E-02 
1446	 0.072741622497067 
1447	 7.28418382827608E-02 
1448	 7.27535648647813E-02 
1449	 7.23761098785165E-02 
1450	 7.23143469727282E-02 
1451	 7.23276407914855E-02 
1452	 0.072354863786918 
1453	 7.24521847230347E-02 
1454	 7.25454545753833E-02 
1455	 7.26604038473826E-02 
1456	 7.27354212688074E-02 
1457	 7.28169795356871E-02 
1458	 7.29269932286715E-02 
1459	 7.30304162318735E-02 
1460	 7.31431863137336E-02 
1461	 7.33034807492311E-02 
1462	 7.34350846386498E-02 
1463	 7.34625171577877E-02 
1464	 7.36957361592676E-02 
1465	 7.40916283289624E-02 
1466	 7.44347841700426E-02 
1467	 7.48512537729858E-02 
1468	 7.53167446189964E-02 
1469	 7.57242094307995E-02 
1470	 7.62458539041161E-02 
1471	 7.69820498242844E-02 
1472	 7.75178117926756E-02 
1473	 7.78822394033879E-02 
1474	 0.078360803612065 
1475	 7.87278460110739E-02 
1476	 7.92306818210004E-02 
1477	 7.98913711831004E-02 
1478	 8.04888773840681E-02 
1479	 8.10332244240174E-02 
1480	 8.16774701183963E-02 
1481	 8.23408801445565E-02 
1482	 8.30250155321992E-02 
1483	 8.38340154600387E-02 
1484	 8.45382553146872E-02 
1485	 8.50932261143311E-02 
1486	 8.57884502626365E-02 
1487	 8.65007508776979E-02 
1488	 8.72130024159556E-02 
1489	 8.80458211633516E-02 
1490	 8.89072683638818E-02 
1491	 8.97212765155863E-02 
1492	 9.04236531431559E-02 
1493	 9.10249561862975E-02 
1494	 9.16876625215241E-02 
1495	 9.23524095291326E-02 
1496	 9.29977752994676E-02 
1497	 9.36873386527117E-02 
1498	 9.44231356415186E-02 
1499	 9.51689049239045E-02 
1500	 0.095923741849457 
1501	 9.67427367728932E-02 
1502	 9.76678813299422E-02 
1503	 9.84794690774161E-02 
1504	 9.92631291063307E-02 
1505	 0.100072390189205 
1506	 0.100820131666999 
1507	 0.101635281185422 
1508	 0.102513874684074 
1509	 0.103361106301119 
1510	 0.104210062527243 
1511	 0.105041003213457 
1512	 0.105887565517994 
1513	 0.106700656025348 
1514	 0.107458533365125 
1515	 0.108289475842724 
1516	 0.10917089713539 
1517	 0.109995889767146 
1518	 0.110806353068432 
1519	 0.111681614371458 
1520	 0.112571605570742 
1521	 0.113435047821988 
1522	 0.114370221537899 
1523	 0.11524796591977 
1524	 0.116068309599945 
1525	 0.116870729531214 
1526	 0.11765515358183 
1527	 0.11846150909646 
1528	 0.11919770444536 
1529	 0.120030271027847 
1530	 0.120984180983656 
1531	 0.121848888909106 
1532	 0.122735561417165 
1533	 0.123564036022325 
1534	 0.124292339587629 
1535	 0.125085289084706 
1536	 0.125917652810078 
1537	 0.126693833037332 
1538	 0.127438032520978 
1539	 0.128220051840853 
1540	 0.128979131960763 
1541	 0.129748425608042 
1542	 0.130550390815212 
1543	 0.131370726643182 
1544	 0.132210590943701 
1545	 0.133019244496874 
1546	 0.133850899516266 
1547	 0.134663434869175 
1548	 0.135420400696363 
1549	 0.136199431152436 
1550	 0.137024480215403 
1551	 0.137804111583064 
1552	 0.138558785381161 
1553	 0.139304795282181 
1554	 0.140001830310027 
1555	 0.140729793671697 
1556	 0.141477438149509 
1557	 0.142213057087428 
1558	 0.142965169009315 
1559	 0.143700650260417 
1560	 0.144433536104302 
1561	 0.145141241504982 
1562	 0.145834013412185 
1563	 0.146514299252115 
1564	 0.147124609929841 
1565	 0.147811334448162 
1566	 0.148501484921248 
1567	 0.14920997164507 
1568	 0.149873785027736 
1569	 0.150534135138216 
1570	 0.151228815035214 
1571	 0.151900514752783 
1572	 0.152591094444795 
1573	 0.153338414442322 
1574	 0.154018643002124 
1575	 0.154641716523602 
1576	 0.155295970897697 
1577	 0.155923742429548 
1578	 0.156626946358273 
1579	 0.1573571807322 
1580	 0.158063752635802 
1581	 0.158822264560515 
1582	 0.159501566256475 
1583	 0.160123826604122 
1584	 0.160764184288539 
1585	 0.161385989151257 
1586	 0.162030074254041 
1587	 0.162710249916585 
1588	 0.163281853017127 
1589	 0.163798862228 
1590	 0.164386054915526 
1591	 0.164904931872281 
1592	 0.165535934092691 
1593	 0.166291433455603 
1594	 0.166963502044989 
1595	 0.167659880362482 
1596	 0.168259175148699 
1597	 0.168814305178412 
1598	 0.169360588932882 
1599	 0.169806085066399 
1600	 0.170372348133518 
1601	 0.171017566783217 
1602	 0.171577093413304 
1603	 0.172120837160338 
1604	 0.172717777435594 
1605	 0.173278845904439 
1606	 0.173878110785231 
1607	 0.174576834962525 
1608	 0.175162479224442 
1609	 0.175673870521235 
1610	 0.176233508143646 
1611	 0.1767941736861 
1612	 0.177317734078222 
1613	 0.177820384406513 
1614	 0.178347963354563 
1615	 0.178839838746877 
1616	 0.179386122406221 
1617	 0.180011877214224 
1618	 0.180543351732991 
1619	 0.181050735370488 
1620	 0.181537651396318 
1621	 0.181972844687145 
1622	 0.182425694301928 
1623	 0.182900658418866 
1624	 0.183304673157277 
1625	 0.183646820293863 
1626	 0.184055394374914 
1627	 0.184432744428147 
1628	 0.184881023445667 
1629	 0.185444156698872 
1630	 0.185879469003495 
1631	 0.18626909435996 
1632	 0.186696171577222 
1633	 0.187089887834763 
1634	 0.187482418757895 
1635	 0.187924494545509 
1636	 0.188322265591281 
1637	 0.188665516139946 
1638	 0.189034126393086 
1639	 0.189417751278284 
1640	 0.189744743999121 
1641	 0.190031447990988 
1642	 0.190335933860003 
1643	 0.19066114408155 
1644	 0.190881260597708 
1645	 0.191038815054322 
1646	 0.191251595122741 
1647	 0.191392165727285 
1648	 0.191609638548339 
1649	 0.191921600413969 
1650	 0.192138284113481 
1651	 0.192313773782903 
1652	 0.192505693515035 
1653	 0.192697449807997 
1654	 0.192841749979528 
1655	 0.192963678484667 
1656	 0.193090385314296 
1657	 0.19318131915432 
1658	 0.193316415736685 
1659	 0.193451095013162 
1660	 0.193539562502313 
1661	 0.193648332552505 
1662	 0.193704493671034 
1663	 0.193631466287994 
1664	 0.193544874262615 
1665	 0.193415916045567 
1666	 0.193478694623756 
1667	 0.193672854412552 
1668	 0.193694933122717 
1669	 0.19377382215567 
1670	 0.193688422653145 
1671	 0.193415612795162 
1672	 0.19337927024379 
1673	 0.193272504258477 
1674	 0.193019733980493 
1675	 0.192872401188597 
1676	 0.192640763641449 
1677	 0.192356663712685 
1678	 0.192170398099154 
1679	 0.191929015683479 
1680	 0.191652220449711 
1681	 0.191372856258971 
1682	 0.19105309064562 
1683	 0.190731584278489 
1684	 0.19032134327737 
1685	 0.189883272171673 
1686	 0.189493461733195 
1687	 0.18898557957717 
1688	 0.188473972372052 
1689	 0.188040061730929 
1690	 0.187360400193287 
1691	 0.18677625109964 
1692	 0.186169542300783 
1693	 0.185593627081371 
1694	 0.185065025041324 
1695	 0.184593791357217 
1696	 0.184206533843233 
1697	 0.183775269745097 
1698	 0.183408412174134 
1699	 0.182945470351439 
1700	 0.182370593322069 
1701	 0.181842401318746 
1702	 0.181337242804729 
1703	 0.180753542867898 
1704	 0.180085322059793 
1705	 0.179497001237388 
1706	 0.178911981395326 
1707	 0.178323189071073 
1708	 0.177770225275136 
1709	 0.177256680935023 
1710	 0.176721346969566 
1711	 0.176202482119767 
1712	 0.175817157412892 
1713	 0.175339738911907 
1714	 0.174735345620809 
1715	 0.174224257157853 
1716	 0.17370533725633 
1717	 0.173244788667286 
1718	 0.172888740232946 
1719	 0.172494716703446 
1720	 0.172132448499246 
1721	 0.171731136788451 
1722	 0.171244746328562 
1723	 0.170888896049713 
1724	 0.170592118078529 
1725	 0.170285563416848 
1726	 0.170079705242618 
1727	 0.169754800819352 
1728	 0.169318005876106 
1729	 0.169035978283555 
1730	 0.168770026755349 
1731	 0.168671535611805 
1732	 0.168512850127164 
1733	 0.168380338433184 
1734	 0.168320362097889 
1735	 0.168109363024484 
1736	 0.167911593834142 
1737	 0.16761994733319 
1738	 0.167292856321218 
1739	 0.167097869293028 
1740	 0.166866379025424 
1741	 0.166619836764541 
1742	 0.166208684752262 
1743	 0.165595093560626 
1744	 0.164988134925375 
1745	 0.164368390413585 
1746	 0.163887872359072 
1747	 0.163478248821912 
1748	 0.162944796718881 
1749	 0.16255412687406 
1750	 0.162138179580938 
1751	 0.161624009812173 
1752	 0.161247081612992 
1753	 0.16072146278476 
1754	 0.160082893882691 
1755	 0.159598825078777 
1756	 0.159161262740937 
1757	 0.158708117275495 
1758	 0.158239281917139 
1759	 0.157608751986535 
1760	 0.157200268291806 
1761	 0.156999080820542 
1762	 0.156665996262139 
1763	 0.156393983384633 
1764	 0.15607172870793 
1765	 0.155631933732338 
1766	 0.155306165561538 
1767	 0.155063066929234 
1768	 0.154798630914002 
1769	 0.154479840712549 
1770	 0.154253375085819 
1771	 0.154100260662175 
1772	 0.15389069230294 
1773	 0.153734214271694 
1774	 0.153383346905268 
1775	 0.153244106468249 
1776	 0.15321518565047 
1777	 0.153171627719908 
1778	 0.153096414409104 
1779	 0.152854343445439 
1780	 0.152455062780522 
1781	 0.15204426598198 
1782	 0.152059471195972 
1783	 0.15219443486699 
1784	 0.152134196412365 
1785	 0.152259923191659 
1786	 0.152205459479989 
1787	 0.15193966187969 
1788	 0.151995700026199 
1789	 0.151944809121803 
1790	 0.15160531959328 
1791	 0.151519419013404 
1792	 0.151727334905105 
1793	 0.152088649949592 
1794	 0.152650106362586 
1795	 0.152910199013495 
1796	 0.152670109494603 
1797	 0.152421029044575 
1798	 0.152363017362353 
1799	 0.152470552683513 
1800	 0.152830889160521 
1801	 0.151205426627381 
1802	 0.152406345518326 
1803	 0.152575890303358 
1804	 0.151643124005803 
1805	 0.15173504446505 
1806	 0.151798511858862 
1807	 0.152023756476999 
1808	 0.152767834289063 
1809	 0.154847224256232 
1810	 0.154911580062247 
1811	 0.153219384830484 
1812	 0.152921462292797 
1813	 0.15150293509648 
1814	 0.151735740248792 
1815	 0.155703082531221 
1816	 0.156420616683424 
1817	 0.154902488377566 
1818	 0.155032126761242 
1819	 0.154954158201363 
1820	 0.152683770282699 
1821	 0.15136090866132 
1822	 0.152641973990157 
1823	 0.151635585962734 
1824	 0.145010001505925 
1825	 0.143805232435512 
1826	 0.149640875633101 
1827	 0.150689639190244 
1828	 0.151192922946323 
1829	 0.154086871535898 
1830	 0.156358068527837 
1831	 0.14816687926563 
1832	 0.150849937213552 
1833	 0.173935981579489 
1834	 0.191912324509202 
1835	 0.21514919251471 
1836	 0.236002480583407 
1837	 0.238683711733882 
1838	 0.244117720370439 
1839	 0.242318647882606 
1840	 0.223017791131513 
1841	 0.214332787729742 
1842	 0.218797816395216 
1843	 0.196983488639385 
1844	 0.138804024036685 
1845	 0.128045536814173 
1846	 0.122415570687472 
1847	 0.125104590957491 
1848	 0.142837110752347 
1849	 0.219162865478096 
1850	 0.22670345909019 
1851	 0.195551673008641 
1852	 0.192103488546266 
1853	 0.178727472951815 
1854	 0.168761540977168 
1855	 0.167618857120312 
1856	 0.169944281998736 
1857	 0.174273199626709 
1858	 0.168749074355984 
1859	 0.165545628506946 
1860	 0.170691049464748 
1861	 0.17234328362135 
1862	 0.168713055373777 
1863	 0.161700223093668 
1864	 0.158451800104181 
1865	 0.149839208883223 
1866	 0.116543578448679 
1867	 0.104037030795723 
1868	 0.129946007497736 
1869	 0.127126226044723 
1870	 0.122827869734492 
1871	 0.135189841112609 
1872	 0.126136728704706 
1873	 8.49054232182087E-02 
1874	 7.20128411595427E-02 
1875	 7.31529153983224E-02 
1876	 6.77699065103036E-02 
1877	 6.21198557820972E-02 
1878	 6.28495679654002E-02 
1879	 5.94488354302121E-02 
1880	 0.060267160411977 
1881	 5.88440145530452E-02 
1882	 5.51870049102716E-02 
1883	 5.60232883321713E-02 
1884	 5.91508990835555E-02 
1885	 5.99293990027902E-02 
1886	 6.05046343579649E-02 
1887	 6.46944744476009E-02 
1888	 0.0650479636278 
1889	 5.98271662687352E-02 
1890	 5.58291694735299E-02 
1891	 0.048648981528451 
1892	 4.50048814344125E-02 
1893	 3.82599384222036E-02 
1894	 0.037775321431413 
1895	 0.049819276895466 
1896	 4.95580265079468E-02 
1897	 3.98707336794547E-02 
1898	 4.30949705819215E-02 
1899	 3.94503086063957E-02 
1900	 1.69264270166877E-02 
1901	 1.19580353398152E-02 
1902	 3.13153006577181E-02 
1903	 3.43517477588564E-02 
1904	 4.27001852043896E-02 
1905	 4.20559807793707E-02 
1906	 4.12351683956449E-02 
1907	 8.18094298702569E-03 
1908	 1.1122505375356E-03 
1909	-5.0250920654536E-03 
1910	-1.58077003573979E-03 
1911	 1.70643633699142E-02 
1912	 2.27099566345193E-02 
1913	 2.84103362729815E-02 
1914	 2.99492860380917E-02 
1915	 2.69248877240686E-02 
1916	 2.72431487231484E-02 
1917	 2.94550022534517E-02 
1918	 2.72847904152268E-02 
1919	 2.72845361789632E-02 
1920	 2.60347160436925E-02 
1921	 2.44713727107206E-02 
1922	 2.62593159415262E-02 
1923	 0.025787084633844 
1924	 2.57402046688062E-02 
1925	 2.51973055012757E-02 
1926	 2.25222935808597E-02 
1927	 2.17775762950983E-02 
1928	 2.04609684451365E-02 
1929	 2.27801550991541E-02 
1930	 2.69504885845464E-02 
1931	 0.028666004731836 
1932	 3.09858891067753E-02 
1933	 3.01344995426591E-02 
1934	 2.94231445899004E-02 
1935	 2.74770008583045E-02 
1936	 2.65494855884088E-02 
1937	 2.55665661098483E-02 
1938	 2.50764645450476E-02 
1939	 2.52877549234601E-02 
1940	 2.34657266155263E-02 
1941	 2.27071458385009E-02 
1942	 2.31792072100978E-02 
1943	 2.37738872492568E-02 
1944	 2.56473022813304E-02 
1945	 2.64260782223154E-02 
1946	 2.62850188071675E-02 
1947	 2.59142985182619E-02 
1948	 2.36826293640903E-02 
1949	 2.28447289941026E-02 
1950	 2.21647993466274E-02 
1951	 2.25552415895009E-02 
1952	 2.34300695223448E-02 
1953	 2.48446299675048E-02 
1954	 2.53259823131063E-02 
1955	 2.56900737356436E-02 
1956	 2.52353727245064E-02 
1957	 2.51755975368295E-02 
1958	 2.55883952748364E-02 
1959	 2.65637760146151E-02 
1960	 2.70620303918042E-02 
1961	 2.80631118616402E-02 
1962	 2.78399186656574E-02 
1963	 2.71358481224175E-02 
1964	 2.66653387476564E-02 
1965	 0.026006500579033 
1966	 2.59681898395713E-02 
1967	 2.61682827518347E-02 
1968	 0.026451485851607 
1969	 2.68576032310203E-02 
1970	 2.73572018623523E-02 
1971	 2.78224514814785E-02 
1972	 2.84512755378724E-02 
1973	 2.89926447592248E-02 
1974	 0.029430217581793 
1975	 2.96580440072394E-02 
1976	 2.95628677181963E-02 
1977	 2.94647791610367E-02 
1978	 0.029348794118709 
1979	 2.92733299738779E-02 
1980	 2.96478241169072E-02 
1981	 3.00553030153536E-02 
1982	 3.02762461826525E-02 
1983	 3.03783588542621E-02 
1984	 3.06582556016274E-02 
1985	 0.030983970250195 
1986	 3.12674510506419E-02 
1987	 3.16006728080457E-02 
1988	 3.18291599456258E-02 
1989	 3.18852807069074E-02 
1990	 3.20815787194206E-02 
1991	 3.24298811305885E-02 
1992	 3.27255163731566E-02 
1993	 3.29697367051263E-02 
1994	 3.28462232398816E-02 
1995	 3.28832667715385E-02 
1996	 3.28190976326059E-02 
1997	 0.033043391176859 
1998	 3.32096114259592E-02 
1999	 3.38148907035798E-02 
2000	 3.46295818598934E-02 
2001	 0.035031994750477 
2002	 3.51068760005959E-02 
2003	 3.56152675287373E-02 
2004	 3.64820960976455E-02 
2005	 3.72726965935944E-02 
2006	 3.75752546223102E-02 
2007	 0.038049018515962 
2008	 3.77786718661535E-02 
2009	 3.70349918950841E-02 
2010	 3.64944707992827E-02 
2011	 3.67921797543842E-02 
2012	 3.77107621203125E-02 
2013	 3.83057148418268E-02 
2014	 3.85442237811692E-02 
2015	 3.89187315928783E-02 
2016	 3.91455638892115E-02 
2017	 3.92434401582174E-02 
2018	 3.96985297643138E-02 
2019	 4.00148661509263E-02 
2020	 4.03446108689432E-02 
2021	 0.040405349189272 
2022	 4.07063463033889E-02 
2023	 4.08543134225095E-02 
2024	 4.09806144453962E-02 
2025	 4.14350680114991E-02 
2026	 4.16921688014237E-02 
2027	 4.21244374485239E-02 
2028	 4.28283374558767E-02 
2029	 4.33536705314803E-02 
2030	 4.38343696103436E-02 
2031	 4.42594757529098E-02 
2032	 0.044450227362335 
2033	 4.44058626061523E-02 
2034	 4.42135565620746E-02 
2035	 4.41496166256548E-02 
2036	 4.42660671050354E-02 
2037	 4.44639576744171E-02 
2038	 4.47575320396304E-02 
2039	 4.53284831669616E-02 
2040	 4.57816955493828E-02 
2041	 4.57817388685414E-02 
2042	 4.59264752498318E-02 
2043	 4.61014438897411E-02 
2044	 4.61238217147135E-02 
2045	 4.63542256084387E-02 
2046	 0.046887109969834 
2047	 4.75212617787523E-02 
2048	 4.78357734346999E-02 
2049	 4.79879495972278E-02 
2050	 4.81707944065564E-02 
2051	 4.81517247953899E-02 
2052	 4.83120197836017E-02 
2053	 4.87962712986051E-02 
2054	 4.89032073571088E-02 
2055	 4.92173325258243E-02 
2056	 4.94200822401017E-02 
2057	 4.92542724099622E-02 
2058	 4.95545104218799E-02 
2059	 4.98114431410073E-02 
2060	 5.00664592316659E-02 
2061	 5.03525807189181E-02 
2062	 5.08447570594689E-02 
2063	 5.13459337653523E-02 
2064	 5.18455046532643E-02 
2065	 5.21643067127987E-02 
2066	 5.26862752095326E-02 
2067	 5.30172876017612E-02 
2068	 5.30259960091436E-02 
2069	 5.32872650793075E-02 
2070	 5.31758465856412E-02 
2071	 5.26347484570062E-02 
2072	 5.25302335441138E-02 
2073	 5.25005707534906E-02 
2074	 5.27220333313371E-02 
2075	 5.32260171974794E-02 
2076	 5.40297450929689E-02 
2077	 5.48582609861155E-02 
2078	 5.53311920282702E-02 
2079	 5.53705530118989E-02 
2080	 5.54112052938895E-02 
2081	 5.54908381066211E-02 
2082	 5.55135039445934E-02 
2083	 5.58493241993702E-02 
2084	 5.62036759915824E-02 
2085	 5.64143704332871E-02 
2086	 5.69420118636292E-02 
2087	 5.73955866297576E-02 
2088	 5.79018420069559E-02 
2089	 5.83130465163231E-02 
2090	 5.88674299865382E-02 
2091	 5.90762486414547E-02 
2092	 5.89472968166536E-02 
2093	 5.91337900528346E-02 
2094	 5.91965317224035E-02 
2095	 5.94415727376579E-02 
2096	 0.060290615740376 
2097	 6.07409935597156E-02 
2098	 6.08989104807506E-02 
2099	 6.10085388978952E-02 
2100	 6.09173154441668E-02 
2101	 6.10157987411746E-02 
2102	 6.12599058422855E-02 
2103	 6.18508200451036E-02 
2104	 6.22254795643647E-02 
2105	 6.24416448311296E-02 
2106	 6.27441646500057E-02 
2107	 6.26966606070266E-02 
2108	 6.27566226883513E-02 
2109	 6.29507710063125E-02 
2110	 6.28956708927223E-02 
2111	 6.32746394418957E-02 
2112	 6.38099822589165E-02 
2113	 0.064237468518079 
2114	 6.48606064132326E-02 
2115	 6.53609447442154E-02 
2116	 0.065866917925832 
2117	 6.62100214814578E-02 
2118	 6.63681355418985E-02 
2119	 0.066578865617589 
2120	 6.67609321825937E-02 
2121	 6.67464097825153E-02 
2122	 6.68835351656624E-02 
2123	 6.71777216844099E-02 
2124	 6.73561033006574E-02 
2125	 6.75481511893837E-02 
2126	 6.76579002469964E-02 
2127	 6.78894130017405E-02 
2128	 6.83650320763431E-02 
2129	 6.89634728280222E-02 
2130	 6.94125552878997E-02 
2131	 6.96951038563581E-02 
2132	 7.00943601205498E-02 
2133	 7.03738659130689E-02 
2134	 7.06733054245112E-02 
2135	 7.10992507136718E-02 
2136	 7.16063905033162E-02 
2137	 7.17035693514431E-02 
2138	 7.17801482992979E-02 
2139	 7.18396334726425E-02 
2140	 7.18226242188251E-02 
2141	 7.21413290847901E-02 
2142	 7.24058295621262E-02 
2143	 7.26419041960776E-02 
2144	 0.073309358707466 
2145	 7.38880537883743E-02 
2146	 7.42207400253819E-02 
2147	 0.074628618304483 
2148	 7.48254776230504E-02 
2149	 7.44342477405103E-02 
2150	 7.40546086107956E-02 
2151	 7.39945165161022E-02 
2152	 7.39437810635164E-02 
2153	 7.41266774947689E-02 
2154	 7.47226386844274E-02 
2155	 7.52238614575261E-02 
2156	 7.56129762331771E-02 
2157	 7.59057892912421E-02 
2158	 0.07591548367559 
2159	 7.60028999382348E-02 
2160	 7.60326441646505E-02 
2161	 7.59447457692144E-02 
2162	 7.58473670949519E-02 
2163	 7.55990650557918E-02 
2164	 7.58295757523504E-02 
2165	 7.62605662265861E-02 
2166	 7.65964604209347E-02 
2167	 0.077395624706768 
2168	 7.77868126993381E-02 
2169	 7.77507913198695E-02 
2170	 0.077958464747656 
2171	 7.82486114013461E-02 
2172	 7.80470478497819E-02 
2173	 7.84272849197558E-02 
2174	 7.88392069576356E-02 
2175	 7.87309255618902E-02 
2176	 7.92868365914612E-02 
2177	 7.97677218355421E-02 
2178	 7.97657758793632E-02 
2179	 8.01382947353349E-02 
2180	 8.00766490326495E-02 
2181	 7.96057304175078E-02 
2182	 7.96814739118485E-02 
2183	 7.98281089791677E-02 
2184	 8.00387635851408E-02 
2185	 8.02767282085978E-02 
2186	 8.02816052768292E-02 
2187	 8.04585097940104E-02 
2188	 8.06554125823383E-02 
2189	 8.08845163831979E-02 
2190	 8.13526388153777E-02 
2191	 8.13500052490621E-02 
2192	 8.15077472868337E-02 
2193	 8.16681089825361E-02 
2194	 8.16350761922059E-02 
2195	 8.20805030127807E-02 
2196	 8.24965450681011E-02 
2197	 8.24721765585589E-02 
2198	 8.24784110690306E-02 
2199	 8.28306273790733E-02 
2200	 8.28742389493969E-02 
2201	 0.082932755758534 
2202	 8.31966933022152E-02 
2203	 8.30652122896407E-02 
2204	 8.30801743199047E-02 
2205	 8.29416793036859E-02 
2206	 8.30221720691257E-02 
2207	 8.34869166240419E-02 
2208	 8.36076744507227E-02 
2209	 8.37529484956464E-02 
2210	 8.37898073248949E-02 
2211	 0.083616099641695 
2212	 8.32169082358192E-02 
2213	 8.30542612450513E-02 
2214	 8.28664550618036E-02 
2215	 8.29767506862813E-02 
2216	 8.30603332289484E-02 
2217	 8.31073441890334E-02 
2218	 8.32205708209878E-02 
2219	 8.29444286596244E-02 
2220	 8.28331357402556E-02 
2221	 8.24958795140943E-02 
2222	 8.18300387607801E-02 
2223	 8.17238472211969E-02 
2224	 8.16717152120185E-02 
2225	 8.16365285793557E-02 
2226	 8.21143980147489E-02 
2227	 8.23132984798441E-02 
2228	 8.17728973593666E-02 
2229	 8.10952393521119E-02 
2230	 8.06680511239238E-02 
2231	 8.04243116583186E-02 
2232	 8.03366204900735E-02 
2233	 8.02302010196969E-02 
2234	 8.04723524602382E-02 
2235	 8.03174524323479E-02 
2236	 7.97326984517269E-02 
2237	 7.92518456976355E-02 
2238	 0.078894455625579 
2239	 7.84662774889944E-02 
2240	 7.79566065576075E-02 
2241	 7.72294179721277E-02 
2242	 7.65005398472017E-02 
2243	 7.60600285355667E-02 
2244	 7.57632100930348E-02 
2245	 7.61607487075759E-02 
2246	 7.66716614552529E-02 
2247	 7.62976172960445E-02 
2248	 7.58764984790007E-02 
2249	 7.48274238203341E-02 
2250	 7.37215592103964E-02 
2251	 7.38066911934317E-02 
2252	 7.36372834907966E-02 
2253	 7.30616123403537E-02 
2254	 7.22413647059204E-02 
2255	 7.11062909431822E-02 
2256	 7.04356827141902E-02 
2257	 6.99768284268254E-02 
2258	 6.98120611961498E-02 
2259	 6.93511686046214E-02 
2260	 6.85374970226499E-02 
2261	 6.75707140017546E-02 
2262	 6.69476972173197E-02 
2263	 6.66012283271003E-02 
2264	 6.68241724040013E-02 
2265	 6.73363855555856E-02 
2266	 6.71315634457089E-02 
2267	 6.71282313421548E-02 
2268	 6.72852449941203E-02 
2269	 0.066464134175234 
2270	 6.60698452516985E-02 
2271	 6.62239791821924E-02 
2272	 6.58861274438198E-02 
2273	 6.57331936928835E-02 
2274	 6.52487467725273E-02 
2275	 6.45291403266942E-02 
2276	 6.39771413780571E-02 
2277	 6.30182997236216E-02 
2278	 0.062796486054699 
2279	 6.25228868981164E-02 
2280	 6.20813204340889E-02 
2281	 6.25367222170645E-02 
2282	 6.21669824937241E-02 
2283	 6.18825040159842E-02 
2284	 6.14631302802705E-02 
2285	 6.01313420467916E-02 
2286	 5.96117521767761E-02 
2287	 5.95679870502211E-02 
2288	 5.92413945282191E-02 
2289	 5.90697632342129E-02 
2290	 0.059439844521617 
2291	 5.90679004849842E-02 
2292	 5.89393951117418E-02 
2293	 5.88138414465325E-02 
2294	 5.86017805048691E-02 
2295	 0.058379607364355 
2296	 5.74592147059418E-02 
2297	 5.67621323543487E-02 
2298	 5.66180031159588E-02 
2299	 5.62947761547117E-02 
2300	 5.61428254098001E-02 
2301	 5.62754655830279E-02 
2302	 5.54865586745124E-02 
2303	 5.48409685393722E-02 
2304	 5.49059271105186E-02 
2305	 5.46369245895058E-02 
2306	 5.47113377554913E-02 
2307	 5.44177583530469E-02 
2308	 5.34943394377436E-02 
2309	 5.24394139326957E-02 
2310	 5.17200063509717E-02 
2311	 0.051810257916943 
2312	 5.15254558430278E-02 
2313	 5.16493686869446E-02 
2314	 5.17872143704806E-02 
2315	 5.13671649511951E-02 
2316	 5.20989387614719E-02 
2317	 5.21061676230765E-02 
2318	 0.051702425026985 
2319	 5.19609914448274E-02 
2320	 5.15196712316241E-02 
2321	 5.12657095009765E-02 
2322	 0.051680950381695 
2323	 5.17505999516128E-02 
2324	 5.16089175605132E-02 
2325	 5.10280298586306E-02 
2326	 5.07189454839619E-02 
2327	 5.06921352083783E-02 
2328	 5.05557263659691E-02 
2329	 5.03748317732908E-02 
2330	 5.04955033626777E-02 
2331	 5.06546040478943E-02 
2332	 4.96807272758252E-02 
2333	 0.049223192422205 
2334	 4.93971548866277E-02 
2335	 4.88193688216994E-02 
2336	 4.82661925893288E-02 
2337	 4.80623678749642E-02 
2338	 4.75409431043483E-02 
2339	 4.65365468457034E-02 
2340	 4.60887359165914E-02 
2341	 4.55037991855898E-02 
2342	 4.52868876031254E-02 
2343	 4.56354960076645E-02 
2344	 4.64301846149368E-02 
2345	 4.79684951098953E-02 
2346	 4.78016797806006E-02 
2347	 4.65435418826912E-02 
2348	 4.58289024451213E-02 
2349	 4.49744785121118E-02 
2350	 4.34153059348227E-02 
2351	 4.30963880844127E-02 
2352	 4.35549876320827E-02 
2353	 4.30941357484224E-02 
2354	 4.46101036477024E-02 
2355	 4.63528790260066E-02 
2356	 0.045598060685103 
2357	 4.58255550614999E-02 
2358	 4.64603248602501E-02 
2359	 4.52568098754588E-02 
2360	 4.46308440073807E-02 
2361	 4.39921334307729E-02 
2362	 4.18826242748182E-02 
2363	 4.06428477139165E-02 
2364	 0.040995707766245 
2365	 4.14620509495531E-02 
2366	 4.21382279948628E-02 
2367	 0.043483799771801 
2368	 4.33799736066186E-02 
2369	 4.13450288460982E-02 
2370	 4.05276407136703E-02 
2371	 3.93716045409058E-02 
2372	 3.85607217460798E-02 
2373	 0.039447253113951 
2374	 3.93357019563102E-02 
2375	 3.81146544233681E-02 
2376	 3.75982323488502E-02 
2377	 3.71395663794089E-02 
2378	 3.63639994884597E-02 
2379	 3.51506344051097E-02 
2380	 3.54755839774216E-02 
2381	 3.66644199994235E-02 
2382	 3.65296043535009E-02 
2383	 3.71376337027122E-02 
2384	 0.037894581504049 
2385	 0.037583432878685 
2386	 3.79498007666867E-02 
2387	 3.94781517450041E-02 
2388	 0.039754999001334 
2389	 3.91220829220235E-02 
2390	 3.89689143026886E-02 
2391	 0.039100820039918 
2392	 3.86787101763182E-02 
2393	 3.76108666357742E-02 
2394	 3.63202147039756E-02 
2395	 0.033932914725593 
2396	 3.37553045440342E-02 
2397	 3.50378251587695E-02 
2398	 3.58535700720294E-02 
2399	 3.81809216528754E-02 
2400	 3.84426000526725E-02 
2401	 3.67347736252301E-02 
2402	 3.70003929032483E-02 
2403	 3.62956857136922E-02 
2404	 3.70297118948133E-02 
2405	 3.90048546572312E-02 
2406	 3.61177442364726E-02 
2407	 3.59386860974744E-02 
2408	 3.73657118940123E-02 
2409	 3.50663896559465E-02 
2410	 3.77148534758345E-02 
2411	 3.95515982013441E-02 
2412	 3.74056588187161E-02 
2413	 3.86110224704445E-02 
2414	 3.84406852903783E-02 
2415	 0.034532305034247 
2416	 3.34262587479838E-02 
2417	 0.0341938615142 
2418	 3.40572153442282E-02 
2419	 3.61436115491541E-02 
2420	 3.66068649355139E-02 
2421	 3.39641985764257E-02 
2422	 3.10037284403529E-02 
2423	 3.05526258265025E-02 
2424	 3.28369647920338E-02 
2425	 3.32913916273015E-02 
2426	 3.48398394733533E-02 
2427	 3.44753551936482E-02 
2428	 2.98904297571966E-02 
2429	 0.028468881387601 
2430	 2.94595569186349E-02 
2431	 3.18067678125418E-02 
2432	 3.64812941508053E-02 
2433	 3.74587889157279E-02 
2434	 3.82311754927486E-02 
2435	 3.66346907791764E-02 
2436	 3.53132400133195E-02 
2437	 3.44172088441504E-02 
2438	 3.47558002966512E-02 
2439	 3.84284713057476E-02 
2440	 3.72333777779055E-02 
2441	 3.12951041778393E-02 
2442	 2.88876631445044E-02 
2443	 2.23997121654123E-02 
2444	 1.93430457043265E-02 
2445	 2.21033475416483E-02 
2446	 2.52892983057807E-02 
2447	 3.32850149502214E-02 
2448	 3.88181347546723E-02 
2449	 4.57294218553343E-02 
2450	 0.047230247357693 
2451	 3.88665613362344E-02 
2452	 3.60482949396909E-02 
2453	 3.71824404400777E-02 
2454	 3.58720100975792E-02 
2455	 3.58889835071576E-02 
2456	 3.51457032960297E-02 
2457	 2.95300409077151E-02 
2458	 2.56170828281767E-02 
2459	 2.46010912528296E-02 
2460	 2.13134154480703E-02 
2461	 1.61579475271674E-02 
2462	 1.27501138043043E-02 
2463	 8.52001642692358E-03 
2464	 6.16737685919948E-03 
2465	 3.53296608598643E-03 
2466	 4.20305415689335E-03 
2467	 1.00214989299852E-02 
2468	 0.012902000871632 
2469	 1.95655472832482E-02 
2470	 2.14251656612568E-02 
2471	 1.65544161307122E-02 
2472	 1.36704728405852E-02 
2473	 8.81907229591201E-03 
2474	 6.89080773042426E-03 
2475	 5.79069692643287E-03 
2476	 7.42074797902382E-03 
2477	 1.47446440259574E-02 
2478	 1.67106620106422E-02 
2479	 1.48417205702049E-02 
2480	 2.21550795339297E-02 
2481	 3.29960131143767E-02 
2482	 4.20241414162911E-02 
2483	 6.10834648360834E-02 
2484	 7.62775462462419E-02 
2485	 9.39039321847394E-02 
2486	 7.72055459917813E-02 
2487	 6.33189573145728E-02 
2488	 6.98508637793375E-02 
2489	 4.45082936639519E-02 
2490	 4.32427228793789E-02 
2491	 4.53226361387451E-02 
2492	 3.90281161580582E-02 
2493	 3.59839361710203E-02 
2494	 8.05770400426581E-03 
2495	 3.18302947861705E-02 
2496	 4.80294200720114E-02 
2497	 2.77273587387079E-02 
2498	 0.088948970323247 
2499	 0.138179195145244 
2500	 0.123589045318484 
