Wavelength	ref00001.asd
350	 1.71179518575066E-02 
351	 0.017214352048845 
352	 1.67377418705709E-02 
353	 1.66921669845771E-02 
354	 1.66339081361618E-02 
355	 1.67729301604591E-02 
356	 1.70602663936069E-02 
357	 1.66558348545405E-02 
358	 1.67420398214496E-02 
359	 1.70756444308656E-02 
360	 1.71477538245567E-02 
361	 1.74199177255534E-02 
362	 1.74663479651321E-02 
363	 1.73531355939384E-02 
364	 1.74188450871222E-02 
365	 1.70956261819678E-02 
366	 1.68623632544756E-02 
367	 1.69740624925834E-02 
368	 0.017219388336075 
369	 0.017168198849958 
370	 0.017039408714612 
371	 1.70928167465561E-02 
372	 1.71937650761331E-02 
373	 1.71861697217896E-02 
374	 1.70805851228034E-02 
375	 1.69940288902862E-02 
376	 1.70624404482185E-02 
377	 1.72706867230783E-02 
378	 1.75738318882575E-02 
379	 0.017908458419132 
380	 0.017639691694558 
381	 1.76360291655276E-02 
382	 1.83566065255355E-02 
383	 0.01826900239758 
384	 0.018245295145377 
385	 1.84433785191518E-02 
386	 1.86948974049599E-02 
387	 0.018857376814341 
388	 1.91884353099827E-02 
389	 1.96008639867538E-02 
390	 1.96496715809096E-02 
391	 1.96407538376818E-02 
392	 0.019709158135232 
393	 1.99236501086838E-02 
394	 2.03007461741722E-02 
395	 2.07032559053246E-02 
396	 2.10031996148853E-02 
397	 0.021156325715156 
398	 2.14505391942319E-02 
399	 2.17432680923778E-02 
400	 2.20190212308813E-02 
401	 0.022364450030596 
402	 0.022411071798374 
403	 2.26000904382001E-02 
404	 2.31290512187075E-02 
405	 2.34981850745837E-02 
406	 2.37517198913474E-02 
407	 2.39575973957626E-02 
408	 2.42107230300289E-02 
409	 2.45986987682505E-02 
410	 2.49670812580592E-02 
411	 2.53579097810301E-02 
412	 0.025949698320599 
413	 2.61098634331656E-02 
414	 0.026253397635973 
415	 2.66205209750486E-02 
416	 0.026703233930352 
417	 2.71066368633792E-02 
418	 2.76022684582492E-02 
419	 0.027813952251547 
420	 2.81659430577362E-02 
421	 2.85324194021481E-02 
422	 2.88576402971134E-02 
423	 2.91678403504739E-02 
424	 2.94185956965975E-02 
425	 2.95796661063251E-02 
426	 2.97106814154023E-02 
427	 3.00698929683756E-02 
428	 3.03501652967705E-02 
429	 0.030529942165934 
430	 3.07142660307813E-02 
431	 3.10740132766713E-02 
432	 3.13289955745847E-02 
433	 3.14339997918344E-02 
434	 3.15693775127959E-02 
435	 3.18255221042068E-02 
436	 3.20277002787172E-02 
437	 3.21285778538716E-02 
438	 3.24569896286532E-02 
439	 3.26152362848303E-02 
440	 3.27006438111336E-02 
441	 3.29229484955643E-02 
442	 3.30734789782543E-02 
443	 3.32295655336415E-02 
444	 3.34183541672624E-02 
445	 3.36071832323356E-02 
446	 3.38533925490182E-02 
447	 3.40831137518864E-02 
448	 3.42649137034456E-02 
449	 3.45429000243319E-02 
450	 3.46752515189529E-02 
451	 3.47522423889675E-02 
452	 0.034970665895022 
453	 3.52065316919821E-02 
454	 3.54112501084998E-02 
455	 3.55745823093105E-02 
456	 3.57250367345044E-02 
457	 3.59111565043328E-02 
458	 3.60781720314218E-02 
459	 3.61785223045705E-02 
460	 3.62503602196609E-02 
461	 3.63641839616075E-02 
462	 3.64858220682088E-02 
463	 3.65412486535775E-02 
464	 0.036665999084274 
465	 3.68002063981109E-02 
466	 3.69171156034689E-02 
467	 3.70720045847805E-02 
468	 3.71606299164277E-02 
469	 3.72690123837594E-02 
470	 3.74713825082173E-02 
471	 3.75809864107782E-02 
472	 3.77329167708374E-02 
473	 0.037912038093557 
474	 3.80036364315816E-02 
475	 3.80935893445073E-02 
476	 3.81499649019818E-02 
477	 3.81942172676049E-02 
478	 3.83818064247923E-02 
479	 3.85535304028527E-02 
480	 3.86988089854556E-02 
481	 3.88513352572253E-02 
482	 3.89967462563121E-02 
483	 3.91160663281043E-02 
484	 3.92465091592991E-02 
485	 3.94728599079504E-02 
486	 3.96870152871862E-02 
487	 0.039841015085285 
488	 3.99514557594414E-02 
489	 4.01529456190674E-02 
490	 4.04617251534462E-02 
491	 0.040768020125428 
492	 4.09506728987935E-02 
493	 4.11930568356781E-02 
494	 4.15065792631748E-02 
495	 4.18584410657517E-02 
496	 4.21810820230577E-02 
497	 4.24866313901707E-02 
498	 4.28418417104148E-02 
499	 4.32919731832357E-02 
500	 4.37570648119247E-02 
501	 4.43297053532371E-02 
502	 4.49468790233915E-02 
503	 4.54707786421439E-02 
504	 4.60372260474208E-02 
505	 4.66173119493651E-02 
506	 4.72419782440513E-02 
507	 4.80766542526277E-02 
508	 0.048868793213882 
509	 4.96783890610942E-02 
510	 5.06172231108507E-02 
511	 5.15590200097081E-02 
512	 5.25909409020292E-02 
513	 5.37102573905299E-02 
514	 5.48420037812903E-02 
515	 0.056112894631284 
516	 5.74154323761745E-02 
517	 5.86917020077727E-02 
518	 6.01254839960521E-02 
519	 6.15945504023066E-02 
520	 6.30560496201455E-02 
521	 6.44908182591161E-02 
522	 6.58044379681041E-02 
523	 6.70975424963515E-02 
524	 6.84421347060079E-02 
525	 0.069845843987185 
526	 7.12627766282912E-02 
527	 7.26351040804281E-02 
528	 7.39064197640958E-02 
529	 7.50041033247121E-02 
530	 7.60826068787201E-02 
531	 7.71412036564653E-02 
532	 7.81050966217697E-02 
533	 7.90671520115277E-02 
534	 7.99531144734997E-02 
535	 8.07209311377831E-02 
536	 0.081412563286468 
537	 8.21517050673552E-02 
538	 8.28390280808953E-02 
539	 0.083379763483046 
540	 8.40573419651232E-02 
541	 8.46888952230491E-02 
542	 8.51993989352553E-02 
543	 8.56331667751589E-02 
544	 0.086159007736747 
545	 8.67036993239457E-02 
546	 8.71961883022889E-02 
547	 8.76673971092609E-02 
548	 8.81272879124671E-02 
549	 8.85525098377516E-02 
550	 8.89137938817263E-02 
551	 8.92443730248452E-02 
552	 8.95518496089843E-02 
553	 8.97935112879458E-02 
554	 0.089870930774206 
555	 9.00187092781383E-02 
556	 9.01596367096613E-02 
557	 9.01751401457393E-02 
558	 9.00766623430193E-02 
559	 8.99788057308468E-02 
560	 8.98524352295565E-02 
561	 8.95866023185452E-02 
562	 8.92846235443994E-02 
563	 8.89706938318072E-02 
564	 8.86316793717728E-02 
565	 8.82129008642358E-02 
566	 8.77172014529668E-02 
567	 8.71980232140988E-02 
568	 8.67011462950205E-02 
569	 0.086137321685855 
570	 8.55808074764325E-02 
571	 8.50502336032028E-02 
572	 8.45062543884061E-02 
573	 8.40000644027111E-02 
574	 8.35272073686058E-02 
575	 8.30737717939079E-02 
576	 8.26481493980442E-02 
577	 8.21893588539105E-02 
578	 8.17145648395283E-02 
579	 8.12796103778047E-02 
580	 8.09075690618009E-02 
581	 8.05927557806176E-02 
582	 8.03126751401564E-02 
583	 8.00284771512785E-02 
584	 7.98041769259092E-02 
585	 7.96042607206097E-02 
586	 7.93893513890869E-02 
587	 7.91958679523953E-02 
588	 7.90886111848548E-02 
589	 7.90324828385485E-02 
590	 7.89222443264271E-02 
591	 7.87691405323593E-02 
592	 7.86919742029387E-02 
593	 7.87071040516051E-02 
594	 7.86292244988557E-02 
595	 0.078582351901555 
596	 7.85492782219893E-02 
597	 7.84895020262445E-02 
598	 7.84904490733952E-02 
599	 7.84880563286298E-02 
600	 7.84453222439121E-02 
601	 7.83627326280983E-02 
602	 7.83045714943999E-02 
603	 7.82538578992155E-02 
604	 7.81663025869396E-02 
605	 7.79646417990062E-02 
606	 7.77806665813947E-02 
607	 7.76166563901435E-02 
608	 7.74134727047287E-02 
609	 7.71822459115454E-02 
610	 7.69241082501355E-02 
611	 7.66549978616023E-02 
612	 7.64090833011449E-02 
613	 7.61307286469802E-02 
614	 7.58321671730621E-02 
615	 7.55417509507274E-02 
616	 7.52748645573772E-02 
617	 0.074949584600891 
618	 7.46279829828576E-02 
619	 7.44517486867334E-02 
620	 7.43218191156731E-02 
621	 7.41821450466814E-02 
622	 7.40279522229543E-02 
623	 7.39363594366031E-02 
624	 7.39354513755109E-02 
625	 7.39404453661326E-02 
626	 7.38781539747271E-02 
627	 7.39731010980337E-02 
628	 7.40855396032027E-02 
629	 7.41646763596267E-02 
630	 7.42586526983502E-02 
631	 7.43029160074309E-02 
632	 7.43069244541131E-02 
633	 7.42692045905797E-02 
634	 7.41135283231519E-02 
635	 7.39470837195151E-02 
636	 7.37385573039553E-02 
637	 7.34150529868243E-02 
638	 7.30852910253443E-02 
639	 7.26817847495795E-02 
640	 7.21629676147707E-02 
641	 7.15523074888217E-02 
642	 7.09149178808138E-02 
643	 7.03012761259968E-02 
644	 6.97372410806987E-02 
645	 6.92402148478905E-02 
646	 6.86049955889929E-02 
647	 6.79559528412539E-02 
648	 6.75772294818062E-02 
649	 6.71391895658487E-02 
650	 6.67435540526404E-02 
651	 6.64614319059614E-02 
652	 6.62126251209386E-02 
653	 0.066059607899968 
654	 6.59092283327594E-02 
655	 6.56787844833052E-02 
656	 6.55904547937565E-02 
657	 0.065299187723336 
658	 6.48386736156874E-02 
659	 6.44768290352835E-02 
660	 6.41010814716129E-02 
661	 6.36203770518735E-02 
662	 6.30582343605893E-02 
663	 6.26252509791977E-02 
664	 6.21983396015233E-02 
665	 6.17624168300944E-02 
666	 6.13436392092753E-02 
667	 0.061001647697565 
668	 6.07343965899529E-02 
669	 6.05080971480768E-02 
670	 6.02640533268311E-02 
671	 6.00377518571583E-02 
672	 5.99476972063019E-02 
673	 6.00142532690252E-02 
674	 5.99966839680455E-02 
675	 6.00252766491342E-02 
676	 6.01231019250621E-02 
677	 6.02718145838058E-02 
678	 6.04388028502475E-02 
679	 0.060697698428926 
680	 6.10683759764561E-02 
681	 6.15103222379468E-02 
682	 0.062118157412456 
683	 6.28606889228923E-02 
684	 6.37321588435464E-02 
685	 6.48538002052634E-02 
686	 6.62354083750638E-02 
687	 6.80222472253595E-02 
688	 7.01850937228748E-02 
689	 7.23406695732079E-02 
690	 7.46714398377994E-02 
691	 7.74121628932931E-02 
692	 8.05936807808772E-02 
693	 8.40475530322307E-02 
694	 0.087794820486632 
695	 9.18277338782858E-02 
696	 9.60503569946789E-02 
697	 0.100362480485734 
698	 0.104846291763342 
699	 0.109604265349193 
700	 0.114501835329091 
701	 0.119357967919634 
702	 0.124085200770294 
703	 0.128705492458473 
704	 0.133434365533527 
705	 0.138028998968332 
706	 0.142365294574475 
707	 0.146766163247873 
708	 0.15122918696994 
709	 0.155656604345721 
710	 0.159897435543028 
711	 0.164087470587676 
712	 0.168340444943658 
713	 0.172622288058713 
714	 0.176741565886181 
715	 0.18088188507634 
716	 0.18497999410523 
717	 0.189075207596126 
718	 0.193245629059323 
719	 0.197523434730356 
720	 0.201673663469057 
721	 0.205469001633379 
722	 0.209009095061636 
723	 0.212559901706485 
724	 0.216324088434354 
725	 0.219981372318109 
726	 0.22342386534735 
727	 0.226762158684896 
728	 0.230129888678086 
729	 0.233291639374958 
730	 0.23630875467824 
731	 0.239177341509386 
732	 0.241890982388035 
733	 0.244402733123601 
734	 0.246751422071347 
735	 0.249057799889943 
736	 0.251425876750455 
737	 0.253530198484048 
738	 0.255475342956651 
739	 0.257393838431097 
740	 0.259224202570231 
741	 0.260908725726224 
742	 0.262441363010816 
743	 0.263854931845139 
744	 0.265310914577871 
745	 0.266619646759775 
746	 0.267747476763737 
747	 0.268790917408617 
748	 0.269794264842573 
749	 0.270751129580394 
750	 0.271658139107199 
751	 0.272536518838168 
752	 0.273265388845924 
753	 0.273939728588178 
754	 0.274656632647327 
755	 0.275288983194448 
756	 0.275896841000716 
757	 0.276436081298537 
758	 0.276889644580708 
759	 0.277973765151043 
760	 0.279632811714418 
761	 0.281292870014065 
762	 0.281425084287721 
763	 0.281388375151707 
764	 0.281394235800908 
765	 0.281340071816577 
766	 0.281184311168405 
767	 0.28106748577361 
768	 0.281146924905914 
769	 0.281481492361141 
770	 0.28162787343131 
771	 0.281891006847243 
772	 0.282273459543189 
773	 0.282521622786815 
774	 0.282852398646929 
775	 0.283120712026777 
776	 0.283314106294876 
777	 0.28373747415573 
778	 0.284020255672548 
779	 0.284240365138923 
780	 0.284539488392917 
781	 0.284822475597445 
782	 0.28508102994117 
783	 0.285320232236089 
784	 0.285558652656673 
785	 0.285827833467477 
786	 0.286162122248545 
787	 0.286483947886229 
788	 0.286624329570261 
789	 0.287018963042707 
790	 0.287423372571575 
791	 0.287635727551857 
792	 0.287808186459093 
793	 0.288187029588995 
794	 0.288565453282646 
795	 0.288723591177779 
796	 0.289054765235119 
797	 0.289318009876372 
798	 0.289543413611036 
799	 0.28988792956488 
800	 0.290126150467423 
801	 0.290338644703691 
802	 0.290578279775963 
803	 0.290835594110926 
804	 0.291159770403994 
805	 0.291483375919659 
806	 0.291751182324885 
807	 0.29198169165495 
808	 0.292220208045595 
809	 0.29249573343087 
810	 0.292794975241697 
811	 0.292985258406738 
812	 0.293170713160275 
813	 0.293456526321759 
814	 0.293896540784004 
815	 0.294215351418124 
816	 0.294484946383675 
817	 0.294732671511271 
818	 0.29490950800082 
819	 0.295051561020141 
820	 0.29519411327141 
821	 0.295402301124624 
822	 0.29579576360206 
823	 0.296076036519633 
824	 0.296268177982478 
825	 0.296468228419324 
826	 0.296687363256649 
827	 0.296981615763835 
828	 0.297293704691181 
829	 0.29752576305414 
830	 0.297709638180426 
831	 0.297899606743204 
832	 0.298172691772927 
833	 0.298572543066631 
834	 0.298782113029886 
835	 0.298909747187425 
836	 0.299075239534225 
837	 0.299338276422089 
838	 0.2996660843025 
839	 0.299975019287914 
840	 0.300188787263614 
841	 0.300257658832919 
842	 0.300508211399177 
843	 0.300807110511975 
844	 0.300983589206765 
845	 0.30125195052702 
846	 0.301391843377191 
847	 0.301495617919821 
848	 0.301759870440052 
849	 0.302115378083968 
850	 0.302460569736126 
851	 0.30267734887698 
852	 0.302719689656699 
853	 0.303115602907912 
854	 0.303562689009854 
855	 0.303770282383053 
856	 0.303641172680356 
857	 0.303814384594472 
858	 0.304171534912592 
859	 0.304492114569301 
860	 0.304611341373757 
861	 0.304745073846416 
862	 0.304929547058447 
863	 0.305155502886731 
864	 0.3054134412236 
865	 0.3057743173326 
866	 0.306147078148097 
867	 0.306367089497521 
868	 0.306214010939463 
869	 0.306409353711733 
870	 0.306726661823367 
871	 0.306694000390957 
872	 0.307135949721851 
873	 0.307455860802229 
874	 0.307605507052368 
875	 0.307919620149461 
876	 0.308076881713525 
877	 0.308212088404969 
878	 0.308423387729779 
879	 0.308713519258227 
880	 0.308972310877989 
881	 0.309317341250511 
882	 0.309639266394081 
883	 0.309530400853538 
884	 0.309709792419897 
885	 0.309982583972146 
886	 0.310136103337168 
887	 0.31028021933304 
888	 0.310594415278816 
889	 0.310755744786836 
890	 0.310646553802455 
891	 0.310978517235433 
892	 0.311412551784638 
893	 0.31170204846711 
894	 0.311745615563759 
895	 0.311853963834178 
896	 0.31196847116256 
897	 0.312243176465234 
898	 0.312815534502154 
899	 0.313432223274805 
900	 0.313545903463578 
901	 0.313348534224306 
902	 0.313357999029389 
903	 0.313410230508285 
904	 0.313536464198038 
905	 0.313772861726241 
906	 0.314137377016017 
907	 0.314586336238634 
908	 0.314736492996674 
909	 0.31463352189132 
910	 0.31466163242521 
911	 0.31450868604839 
912	 0.314679628092068 
913	 0.315189784002945 
914	 0.315525864900214 
915	 0.315639624302804 
916	 0.315690847141344 
917	 0.315764533629204 
918	 0.315832847995069 
919	 0.316176485044456 
920	 0.316269486072479 
921	 0.316161963600659 
922	 0.316680812742409 
923	 0.31677400564425 
924	 0.316533199407738 
925	 0.316268615283338 
926	 0.316258693948496 
927	 0.315890690701085 
928	 0.315797101354735 
929	 0.316384937171045 
930	 0.31705440600648 
931	 0.317306374478462 
932	 0.317622161160948 
933	 0.317997054159915 
934	 0.316762925782778 
935	 0.316431534784806 
936	 0.316161535768043 
937	 0.315252438290594 
938	 0.31505122171781 
939	 0.315243500277605 
940	 0.315420815343259 
941	 0.315531877891304 
942	 0.316230217485223 
943	 0.316326324312342 
944	 0.316430976282832 
945	 0.316736860027109 
946	 0.315561663517242 
947	 0.315739311828242 
948	 0.31558509079666 
949	 0.314185212581536 
950	 0.314668352479861 
951	 0.314219796250273 
952	 0.313794460415916 
953	 0.314310861486511 
954	 0.314677145066221 
955	 0.314065600628886 
956	 0.313672092395657 
957	 0.313905945139605 
958	 0.312668908602997 
959	 0.313305688316532 
960	 0.314138038108446 
961	 0.313849009200982 
962	 0.314012895981363 
963	 0.314386497071422 
964	 0.314329000670314 
965	 0.313702923437159 
966	 0.313334353382308 
967	 0.313996629193253 
968	 0.314264017260441 
969	 0.313673934636754 
970	 0.313904786279999 
971	 0.314123050339469 
972	 0.314010531014066 
973	 0.313771926816446 
974	 0.314179467310646 
975	 0.315502296684355 
976	 0.316255213210406 
977	 0.316086453232543 
978	 0.316395925901978 
979	 0.315819310212534 
980	 0.315782780581561 
981	 0.316435089548824 
982	 0.316297734809425 
983	 0.316472068738776 
984	 0.317311386533028 
985	 0.317719193648635 
986	 0.316159392162053 
987	 0.317134536650804 
988	 0.317561997293257 
989	 0.316988480247944 
990	 0.317489377220893 
991	 0.319365620181669 
992	 0.319079837448422 
993	 0.31817228809948 
994	 0.320077051536757 
995	 0.319504471396931 
996	 0.319566920986527 
997	 0.319619291891791 
998	 0.31832707922544 
999	 0.32051070433671 
1000	 0.320514658197689 
1001	 0.32776876845375 
1002	 0.328066772289461 
1003	 0.32838187262891 
1004	 0.328675760502003 
1005	 0.328919655811673 
1006	 0.32920598548172 
1007	 0.329455833756758 
1008	 0.329538165043645 
1009	 0.32980141481583 
1010	 0.33019802656906 
1011	 0.330530178480059 
1012	 0.330869813450299 
1013	 0.33122120821201 
1014	 0.331434088187408 
1015	 0.331724963876369 
1016	 0.332054103387275 
1017	 0.332290104085469 
1018	 0.332576963067596 
1019	 0.332912694900866 
1020	 0.33317894581666 
1021	 0.333396286806357 
1022	 0.333658119835321 
1023	 0.333897505745725 
1024	 0.334160903177734 
1025	 0.334504735569535 
1026	 0.334848884044773 
1027	 0.33507231852587 
1028	 0.33522823049394 
1029	 0.335368030795125 
1030	 0.33559593269252 
1031	 0.335927234965356 
1032	 0.336249029836032 
1033	 0.336486962991962 
1034	 0.336626011165244 
1035	 0.336834328939098 
1036	 0.337053553592403 
1037	 0.337221533368855 
1038	 0.337376476077031 
1039	 0.337600559916087 
1040	 0.337773074208463 
1041	 0.337901545761558 
1042	 0.33808136116254 
1043	 0.338304392252095 
1044	 0.338559438202402 
1045	 0.338836529082755 
1046	 0.339067810903422 
1047	 0.339264135439936 
1048	 0.339497303222303 
1049	 0.339733663996988 
1050	 0.339925416055625 
1051	 0.340143460403404 
1052	 0.340375346545796 
1053	 0.34052497669016 
1054	 0.340627689883956 
1055	 0.340832701787535 
1056	 0.340949185475109 
1057	 0.340981931509392 
1058	 0.341172909051369 
1059	 0.341365231167593 
1060	 0.341632173418035 
1061	 0.342002059079564 
1062	 0.342207861310101 
1063	 0.342292200246492 
1064	 0.34244319216476 
1065	 0.342628586342497 
1066	 0.34283076123705 
1067	 0.342983864268621 
1068	 0.343162391982878 
1069	 0.343293883983068 
1070	 0.343386026183141 
1071	 0.343600325599576 
1072	 0.343859609085488 
1073	 0.344069460269845 
1074	 0.344276724812775 
1075	 0.344487171634493 
1076	 0.344660187875839 
1077	 0.344813057658977 
1078	 0.344881087819037 
1079	 0.344952251829381 
1080	 0.345096368446301 
1081	 0.345222522558244 
1082	 0.34538207946668 
1083	 0.345585462937274 
1084	 0.345783614567154 
1085	 0.345930900461168 
1086	 0.346089431109102 
1087	 0.346303112443341 
1088	 0.346393585532643 
1089	 0.34642493227256 
1090	 0.346586597848341 
1091	 0.346780693722274 
1092	 0.346951519199101 
1093	 0.347064980414846 
1094	 0.347163721774348 
1095	 0.347223280709035 
1096	 0.347286848533312 
1097	 0.347361534503873 
1098	 0.347487209519538 
1099	 0.347633421724439 
1100	 0.347750055687833 
1101	 0.347865395600379 
1102	 0.347927450050485 
1103	 0.347921073705162 
1104	 0.34790473810521 
1105	 0.347901952519745 
1106	 0.347932613671997 
1107	 0.348008638546618 
1108	 0.347999702651884 
1109	 0.348022833626699 
1110	 0.348149802197228 
1111	 0.348181697833006 
1112	 0.348180800998681 
1113	 0.348159420482678 
1114	 0.348032682936542 
1115	 0.347929635673937 
1116	 0.3478130675121 
1117	 0.347720295374432 
1118	 0.347589102586711 
1119	 0.347474210518328 
1120	 0.347296006174075 
1121	 0.347111128837788 
1122	 0.346934915170716 
1123	 0.346803299698607 
1124	 0.346670826454364 
1125	 0.346468482952691 
1126	 0.346225163472448 
1127	 0.34595569212083 
1128	 0.345637137227856 
1129	 0.345286134154522 
1130	 0.344900908301612 
1131	 0.344529808779956 
1132	 0.344105879992214 
1133	 0.343700984919744 
1134	 0.343104542120519 
1135	 0.342521657749722 
1136	 0.341974421768696 
1137	 0.341234822168084 
1138	 0.340648170036831 
1139	 0.340061271530447 
1140	 0.339217463609192 
1141	 0.33834522973395 
1142	 0.337525050791455 
1143	 0.336714173634393 
1144	 0.335866897870642 
1145	 0.335015074471342 
1146	 0.334282090712956 
1147	 0.333366254890404 
1148	 0.332227290349328 
1149	 0.331410687658739 
1150	 0.330616021864276 
1151	 0.329980846640796 
1152	 0.329613039111204 
1153	 0.329276145783063 
1154	 0.328823114268158 
1155	 0.328465640347957 
1156	 0.328229517185065 
1157	 0.328006398215569 
1158	 0.327796510959735 
1159	 0.327679136434092 
1160	 0.327575118030637 
1161	 0.327460213746811 
1162	 0.327369956998855 
1163	 0.327338026093141 
1164	 0.327283781494751 
1165	 0.327199957635104 
1166	 0.327152824182842 
1167	 0.327122144407988 
1168	 0.327135954324665 
1169	 0.327210357332486 
1170	 0.327219022129808 
1171	 0.327216766624578 
1172	 0.327215693590824 
1173	 0.327135441012343 
1174	 0.327061913023622 
1175	 0.327093364059257 
1176	 0.327130501570227 
1177	 0.327166537286719 
1178	 0.327279110271652 
1179	 0.327265528292321 
1180	 0.3271579515158 
1181	 0.327127211458508 
1182	 0.327086230863606 
1183	 0.327040736963396 
1184	 0.327006183133807 
1185	 0.327007450876037 
1186	 0.326996628560876 
1187	 0.326984541514356 
1188	 0.326996159217341 
1189	 0.327072840082419 
1190	 0.327044040906125 
1191	 0.327061846185245 
1192	 0.327114613437975 
1193	 0.327106977927952 
1194	 0.327157330558848 
1195	 0.327229805770795 
1196	 0.327296439058834 
1197	 0.327386498681382 
1198	 0.327483688682512 
1199	 0.327561767581164 
1200	 0.327683022923024 
1201	 0.327843272936621 
1202	 0.327998787178099 
1203	 0.328162171734034 
1204	 0.328346874189525 
1205	 0.32855487083334 
1206	 0.328753213080254 
1207	 0.32898088396396 
1208	 0.329177282127256 
1209	 0.329330622272448 
1210	 0.329512879107875 
1211	 0.32969001256499 
1212	 0.329900183345892 
1213	 0.33015675526662 
1214	 0.3304872087688 
1215	 0.330738097885131 
1216	 0.3309878209162 
1217	 0.331246228033678 
1218	 0.331473760116432 
1219	 0.3317245460698 
1220	 0.332015564207006 
1221	 0.332266792969855 
1222	 0.332485446505292 
1223	 0.332725634786443 
1224	 0.332975561146323 
1225	 0.333216191742465 
1226	 0.333427584436358 
1227	 0.333685378201881 
1228	 0.333953719883316 
1229	 0.33425137511889 
1230	 0.334555226546651 
1231	 0.334861570974206 
1232	 0.335103414192213 
1233	 0.335287344607276 
1234	 0.335492954277791 
1235	 0.335665660070112 
1236	 0.335874849903247 
1237	 0.336093280833137 
1238	 0.33632800485541 
1239	 0.336585513995045 
1240	 0.336831730502935 
1241	 0.337099790856992 
1242	 0.337341742599043 
1243	 0.337568028294241 
1244	 0.337799283859879 
1245	 0.338037557151169 
1246	 0.338242342079831 
1247	 0.338437431820132 
1248	 0.338616570980135 
1249	 0.338742211852251 
1250	 0.338896332609923 
1251	 0.339060529024041 
1252	 0.339228580261136 
1253	 0.339387328892398 
1254	 0.339565791123771 
1255	 0.33969899707118 
1256	 0.339810849399377 
1257	 0.339908994925988 
1258	 0.33995733769136 
1259	 0.340062226819953 
1260	 0.340193881051493 
1261	 0.34029249726785 
1262	 0.340391794936432 
1263	 0.340511209742702 
1264	 0.340637180820135 
1265	 0.340724987588015 
1266	 0.340811348046788 
1267	 0.340898398104991 
1268	 0.340947390611436 
1269	 0.340992030428474 
1270	 0.341077944176644 
1271	 0.341116022012302 
1272	 0.341141556600341 
1273	 0.341069543138725 
1274	 0.341052057821279 
1275	 0.341000394781997 
1276	 0.341035168458264 
1277	 0.341128402403268 
1278	 0.341159466669908 
1279	 0.341209532800486 
1280	 0.341250293459544 
1281	 0.341271035644047 
1282	 0.341255660787047 
1283	 0.341264907880078 
1284	 0.341213542107007 
1285	 0.341027438418399 
1286	 0.340963385851352 
1287	 0.340971316388875 
1288	 0.340924525598895 
1289	 0.340909079644688 
1290	 0.340866920772231 
1291	 0.340809389365898 
1292	 0.340695885229736 
1293	 0.340527035376923 
1294	 0.34039061290094 
1295	 0.340221655719437 
1296	 0.340044318214764 
1297	 0.339867675700419 
1298	 0.339748052330812 
1299	 0.339531834752667 
1300	 0.339254167109369 
1301	 0.338971997255459 
1302	 0.338658820943268 
1303	 0.338332316261656 
1304	 0.337960618750339 
1305	 0.337617214281738 
1306	 0.337299439009523 
1307	 0.336914818413319 
1308	 0.336521644725071 
1309	 0.336085097825569 
1310	 0.335599577051206 
1311	 0.335069884248012 
1312	 0.334484362534214 
1313	 0.333904928550215 
1314	 0.333311142808715 
1315	 0.332658477021612 
1316	 0.331972526971428 
1317	 0.331285687375299 
1318	 0.330513321413359 
1319	 0.329775702844098 
1320	 0.3290675535679 
1321	 0.328359106647855 
1322	 0.327603063131123 
1323	 0.326801628898929 
1324	 0.326030601202967 
1325	 0.325236741433727 
1326	 0.324417477928669 
1327	 0.323638375654921 
1328	 0.322710442757717 
1329	 0.321658112616438 
1330	 0.320615430327038 
1331	 0.31948544061017 
1332	 0.318384019282603 
1333	 0.317241491742646 
1334	 0.316212755883801 
1335	 0.315203710024653 
1336	 0.314275735354775 
1337	 0.313447948360741 
1338	 0.312640262609054 
1339	 0.311888780751432 
1340	 0.311094694895438 
1341	 0.310214418197217 
1342	 0.309405733322279 
1343	 0.308472620298066 
1344	 0.307602041675193 
1345	 0.306697408919195 
1346	 0.305926321311849 
1347	 0.305092347392597 
1348	 0.304122469643711 
1349	 0.303366561697473 
1350	 0.302876222142838 
1351	 0.302223872708561 
1352	 0.302197594738101 
1353	 0.301498061295828 
1354	 0.300276965232188 
1355	 0.298915778403131 
1356	 0.296638921006752 
1357	 0.294879488183597 
1358	 0.296165100940016 
1359	 0.295159208258613 
1360	 0.294980936879517 
1361	 0.295759416521674 
1362	 0.29585276754513 
1363	 0.296167716279777 
1364	 0.307158312451729 
1365	 0.305907392763248 
1366	 0.293674438881309 
1367	 0.282952930843878 
1368	 0.266960391004334 
1369	 0.261749659116242 
1370	 0.261034306167745 
1371	 0.260945612950692 
1372	 0.265539281941593 
1373	 0.266432481638251 
1374	 0.265740011695621 
1375	 0.265796805483792 
1376	 0.26540962224188 
1377	 0.260850562790122 
1378	 0.258437458764027 
1379	 0.256628277306379 
1380	 0.2519576753884 
1381	 0.245290759836329 
1382	 0.241558835890226 
1383	 0.23830144268168 
1384	 0.233246096546859 
1385	 0.22989469085709 
1386	 0.225512562227138 
1387	 0.219270327938382 
1388	 0.21500774389211 
1389	 0.212477546603236 
1390	 0.209435512849236 
1391	 0.206561973654018 
1392	 0.203167774503198 
1393	 0.200174913426616 
1394	 0.196124298908685 
1395	 0.190459139007235 
1396	 0.186417398027893 
1397	 0.182633183845757 
1398	 0.179117719937398 
1399	 0.17633682069756 
1400	 0.173535899039602 
1401	 0.170487042452569 
1402	 0.168096953924142 
1403	 0.167529919743126 
1404	 0.165093676455751 
1405	 0.162547518224591 
1406	 0.159014305691183 
1407	 0.155656229069285 
1408	 0.152622962659328 
1409	 0.149784419640328 
1410	 0.148658849849978 
1411	 0.147340068585803 
1412	 0.146118408960847 
1413	 0.145261566187933 
1414	 0.145103917626375 
1415	 0.144078017443353 
1416	 0.142942595897509 
1417	 0.141771794379364 
1418	 0.140289036851552 
1419	 0.139091514092109 
1420	 0.137782253345706 
1421	 0.13705220916954 
1422	 0.136547039949537 
1423	 0.136091848376907 
1424	 0.136079920884507 
1425	 0.135710990873786 
1426	 0.135179590594013 
1427	 0.134604502140595 
1428	 0.133886970890277 
1429	 0.133250306815454 
1430	 0.132394730966095 
1431	 0.131912820880456 
1432	 0.13158243269434 
1433	 0.131353717862183 
1434	 0.131543665285035 
1435	 0.13141917660218 
1436	 0.13115623431608 
1437	 0.130950102941409 
1438	 0.130557726529976 
1439	 0.130326450973898 
1440	 0.130263365629951 
1441	 0.130158734738553 
1442	 0.129982231022721 
1443	 0.130006434741626 
1444	 0.13001450828203 
1445	 0.130099369485685 
1446	 0.130155339355624 
1447	 0.130260411050639 
1448	 0.130386360971073 
1449	 0.130501199819454 
1450	 0.130584428259701 
1451	 0.130720239334816 
1452	 0.130778962754967 
1453	 0.13073759491834 
1454	 0.130819557914111 
1455	 0.130956546821973 
1456	 0.131049598097276 
1457	 0.131167507128199 
1458	 0.131265107940826 
1459	 0.131299945107384 
1460	 0.131450569425359 
1461	 0.131666495412835 
1462	 0.13188716493666 
1463	 0.132163652204483 
1464	 0.132502729400723 
1465	 0.132905955094145 
1466	 0.133313616159397 
1467	 0.133726959717797 
1468	 0.134281266976448 
1469	 0.134908620804334 
1470	 0.135520546728014 
1471	 0.136191705725167 
1472	 0.136916156861307 
1473	 0.137553583767438 
1474	 0.138280315120983 
1475	 0.139174022941809 
1476	 0.139907150494755 
1477	 0.140476665354702 
1478	 0.141187174608694 
1479	 0.141876569660488 
1480	 0.14263476905222 
1481	 0.143487825768567 
1482	 0.144337668850334 
1483	 0.145131696295197 
1484	 0.146023583959858 
1485	 0.147037123226011 
1486	 0.147961645701099 
1487	 0.148902545363539 
1488	 0.149767985867665 
1489	 0.150584181060267 
1490	 0.151390080184 
1491	 0.152155664645309 
1492	 0.152961504682279 
1493	 0.153809424535633 
1494	 0.154603346582756 
1495	 0.155426101138449 
1496	 0.156290613455498 
1497	 0.157171381769247 
1498	 0.158060386509802 
1499	 0.158965796117176 
1500	 0.159946206543973 
1501	 0.160878664809619 
1502	 0.161780360938656 
1503	 0.162736273363309 
1504	 0.163716032876511 
1505	 0.164695269432773 
1506	 0.165699558786545 
1507	 0.166675999734293 
1508	 0.167659553016406 
1509	 0.168594990815047 
1510	 0.169518516523917 
1511	 0.170400226939362 
1512	 0.171186593419236 
1513	 0.172102208828874 
1514	 0.173041215072306 
1515	 0.174021380621675 
1516	 0.175159918858848 
1517	 0.176139571198221 
1518	 0.17705444805084 
1519	 0.1779917399771 
1520	 0.178843099763524 
1521	 0.179788480646117 
1522	 0.180828376977614 
1523	 0.181795970267232 
1524	 0.182805118479645 
1525	 0.183717427294817 
1526	 0.184497811858344 
1527	 0.185390455796561 
1528	 0.186311178093058 
1529	 0.187210298104461 
1530	 0.188161177938002 
1531	 0.189087785080789 
1532	 0.189961047777923 
1533	 0.190864306015781 
1534	 0.191832995961601 
1535	 0.192741219398836 
1536	 0.193640430381478 
1537	 0.194483327053411 
1538	 0.195209600115586 
1539	 0.196040402150323 
1540	 0.196928114400348 
1541	 0.197756235417339 
1542	 0.19861145754707 
1543	 0.199457976396408 
1544	 0.20022992782284 
1545	 0.201030918765113 
1546	 0.201867573527642 
1547	 0.202715156065481 
1548	 0.203578876006817 
1549	 0.20441992742389 
1550	 0.20529733917793 
1551	 0.20613345825911 
1552	 0.206925875949051 
1553	 0.207702585886881 
1554	 0.208472214763752 
1555	 0.209207614341372 
1556	 0.209845711543299 
1557	 0.210568309668561 
1558	 0.211367068866919 
1559	 0.212093809134026 
1560	 0.212847226755946 
1561	 0.213572826002073 
1562	 0.214190306282325 
1563	 0.21485302413016 
1564	 0.215540190468648 
1565	 0.21625927674483 
1566	 0.216978589193041 
1567	 0.217644503093548 
1568	 0.218367180748798 
1569	 0.219117315255632 
1570	 0.219798529964808 
1571	 0.220464900470136 
1572	 0.221168168384547 
1573	 0.221847576518743 
1574	 0.222480324131695 
1575	 0.223110587078711 
1576	 0.223797545033221 
1577	 0.224422988142279 
1578	 0.225098960762059 
1579	 0.225897289771602 
1580	 0.226546535840114 
1581	 0.227091189928455 
1582	 0.227692466458731 
1583	 0.228277182049742 
1584	 0.228896945360978 
1585	 0.229542984601353 
1586	 0.230147153123771 
1587	 0.230750418220409 
1588	 0.231364450611554 
1589	 0.231974301952461 
1590	 0.232543735868478 
1591	 0.233131917231784 
1592	 0.233661376458334 
1593	 0.234104130019413 
1594	 0.234617715222136 
1595	 0.235138454941178 
1596	 0.235688638696557 
1597	 0.236265989692739 
1598	 0.236849942031682 
1599	 0.237485665545126 
1600	 0.238040883281093 
1601	 0.238571987092767 
1602	 0.239102045443974 
1603	 0.239587977288901 
1604	 0.240082144039554 
1605	 0.240562936305404 
1606	 0.241095172733359 
1607	 0.241624834146331 
1608	 0.242175968938028 
1609	 0.242804970004942 
1610	 0.243331597295685 
1611	 0.243817522582876 
1612	 0.244272131630772 
1613	 0.244671266095857 
1614	 0.245091747795323 
1615	 0.245491129605243 
1616	 0.245900245875932 
1617	 0.246301247767306 
1618	 0.246729761114652 
1619	 0.247172109500003 
1620	 0.247597086048328 
1621	 0.248020789942431 
1622	 0.248487159491249 
1623	 0.24900662353483 
1624	 0.249381824747601 
1625	 0.249709075311069 
1626	 0.250091325774425 
1627	 0.250395504041162 
1628	 0.25073756388069 
1629	 0.251171682682375 
1630	 0.251557319928899 
1631	 0.251874596637077 
1632	 0.252230379951746 
1633	 0.252678631371465 
1634	 0.252987186689384 
1635	 0.253151452233109 
1636	 0.253513984214207 
1637	 0.253934159623042 
1638	 0.254281301671417 
1639	 0.254718946452194 
1640	 0.255073851817486 
1641	 0.255322249823799 
1642	 0.255594956374026 
1643	 0.255892524835311 
1644	 0.256160224936215 
1645	 0.25634860875768 
1646	 0.256604072748809 
1647	 0.256942092621766 
1648	 0.257158126081036 
1649	 0.257295975759435 
1650	 0.257510009501981 
1651	 0.257699310614329 
1652	 0.257914848212662 
1653	 0.258212347009565 
1654	 0.25840107254759 
1655	 0.258528883147544 
1656	 0.258665845282255 
1657	 0.258773159329299 
1658	 0.258899326661386 
1659	 0.259010861096009 
1660	 0.259142351517682 
1661	 0.259275119408289 
1662	 0.259320426111881 
1663	 0.259391890650096 
1664	 0.259478429588099 
1665	 0.259460611141068 
1666	 0.259462274372052 
1667	 0.259494512892242 
1668	 0.259515146199361 
1669	 0.259596428412615 
1670	 0.25971326122181 
1671	 0.259736228176602 
1672	 0.259697233372791 
1673	 0.259674097770299 
1674	 0.259586483794883 
1675	 0.259520967565368 
1676	 0.259448482749993 
1677	 0.259260997865325 
1678	 0.259182624977381 
1679	 0.259137142523714 
1680	 0.259046758516698 
1681	 0.258994036460982 
1682	 0.258893179898975 
1683	 0.258721374908117 
1684	 0.25843861570206 
1685	 0.258200006960172 
1686	 0.257931509905527 
1687	 0.2576249349294 
1688	 0.257497418961245 
1689	 0.257282052121659 
1690	 0.257040170525378 
1691	 0.256814037153543 
1692	 0.25658985307304 
1693	 0.256327523667949 
1694	 0.25601197177319 
1695	 0.255720926715129 
1696	 0.255403550284099 
1697	 0.25514166816746 
1698	 0.254970211451279 
1699	 0.25473453553606 
1700	 0.254456445099628 
1701	 0.254178635872536 
1702	 0.253879263612224 
1703	 0.253622550672515 
1704	 0.253409246144695 
1705	 0.25315452236056 
1706	 0.252895851298907 
1707	 0.252568483109604 
1708	 0.252182107296839 
1709	 0.251838407815732 
1710	 0.251456386376376 
1711	 0.251124828469406 
1712	 0.250868897297505 
1713	 0.250535097479543 
1714	 0.250190712207575 
1715	 0.24985424098507 
1716	 0.249443897772389 
1717	 0.24908347133106 
1718	 0.248800855696455 
1719	 0.248391531373823 
1720	 0.247921044663087 
1721	 0.247509352473188 
1722	 0.247061234147325 
1723	 0.246624635910765 
1724	 0.246193962223016 
1725	 0.245816842552966 
1726	 0.24541515570646 
1727	 0.245111967595308 
1728	 0.244927215641426 
1729	 0.244681710457783 
1730	 0.244481056177358 
1731	 0.244113024782377 
1732	 0.243864594631015 
1733	 0.243509793564794 
1734	 0.243213018696343 
1735	 0.243060469889663 
1736	 0.242556550291301 
1737	 0.242130279037838 
1738	 0.241767877417185 
1739	 0.241225159826198 
1740	 0.240909783870302 
1741	 0.240548582946947 
1742	 0.239927803272061 
1743	 0.239241807793473 
1744	 0.238608291876635 
1745	 0.238107653172692 
1746	 0.237608920465972 
1747	 0.237110570711159 
1748	 0.236633238013699 
1749	 0.236109929384597 
1750	 0.235543761587723 
1751	 0.23499357477491 
1752	 0.234363085407749 
1753	 0.233603684109328 
1754	 0.232879777079072 
1755	 0.232309834991912 
1756	 0.231941657807912 
1757	 0.231509970027626 
1758	 0.230981108301184 
1759	 0.230258527666348 
1760	 0.229643320860234 
1761	 0.229062402387182 
1762	 0.228592118606551 
1763	 0.228208327709988 
1764	 0.227776312491841 
1765	 0.227424164420863 
1766	 0.227006088209033 
1767	 0.22657335121402 
1768	 0.226213600224582 
1769	 0.225791345758644 
1770	 0.225384311602647 
1771	 0.225034852568751 
1772	 0.224617309185 
1773	 0.224137261545775 
1774	 0.22405370720534 
1775	 0.223794859008164 
1776	 0.223662606779348 
1777	 0.223581599074366 
1778	 0.223159047981933 
1779	 0.222628140041313 
1780	 0.2221918203171 
1781	 0.221949102274969 
1782	 0.221992020982422 
1783	 0.222266154918677 
1784	 0.222322274498177 
1785	 0.222134783834803 
1786	 0.221996511427571 
1787	 0.221621798727878 
1788	 0.221397462655127 
1789	 0.221394829975562 
1790	 0.220974688795752 
1791	 0.220782224895145 
1792	 0.22086368496566 
1793	 0.220520070313421 
1794	 0.220608449740706 
1795	 0.22082364135704 
1796	 0.220525081247556 
1797	 0.220571604687726 
1798	 0.220630134668271 
1799	 0.22059545873923 
1800	 0.220629949738916 
1801	 0.221779568094262 
1802	 0.220834513118864 
1803	 0.22062165448456 
1804	 0.220688369929789 
1805	 0.220580805571337 
1806	 0.220669791111591 
1807	 0.221366678903569 
1808	 0.223454034279059 
1809	 0.223386250165694 
1810	 0.223649000927139 
1811	 0.224519044756685 
1812	 0.224384542120784 
1813	 0.221871932103297 
1814	 0.221182224844722 
1815	 0.221865420515737 
1816	 0.221380055630565 
1817	 0.220696076765508 
1818	 0.219946947080757 
1819	 0.218869274312553 
1820	 0.216310494269658 
1821	 0.215508204077904 
1822	 0.215579270105354 
1823	 0.215799408556306 
1824	 0.218786683742922 
1825	 0.219010181924563 
1826	 0.217166458646124 
1827	 0.216248101807846 
1828	 0.214617895992808 
1829	 0.208429537777943 
1830	 0.206663390340015 
1831	 0.210700929727064 
1832	 0.211442055130175 
1833	 0.213072845840965 
1834	 0.216113198660179 
1835	 0.217408499940316 
1836	 0.221808117719551 
1837	 0.231176585303687 
1838	 0.242130627394476 
1839	 0.253561930095989 
1840	 0.261225792159751 
1841	 0.267831789824482 
1842	 0.278224246116233 
1843	 0.278491719328291 
1844	 0.272761451402613 
1845	 0.26475118730173 
1846	 0.23430863787472 
1847	 0.225846909154422 
1848	 0.22522598189686 
1849	 0.239270565353883 
1850	 0.233804636435471 
1851	 0.237295520350071 
1852	 0.229350693262125 
1853	 0.195169545386209 
1854	 0.181327815270829 
1855	 0.167000783740935 
1856	 0.171104782458119 
1857	 0.197004264397935 
1858	 0.205755027028546 
1859	 0.217755663693129 
1860	 0.252314888929606 
1861	 0.249417192490593 
1862	 0.222007617723552 
1863	 0.205726203181836 
1864	 0.166773213071938 
1865	 0.152666486122964 
1866	 0.149802638494539 
1867	 0.148115483184699 
1868	 0.17287122786245 
1869	 0.190352877640373 
1870	 0.192719219984261 
1871	 0.185743646077436 
1872	 0.182090937764697 
1873	 0.16816150683199 
1874	 0.157834605068315 
1875	 0.157604688596138 
1876	 0.147568598697505 
1877	 0.13460570228783 
1878	 0.121377909295707 
1879	 0.110002597263084 
1880	 0.10912468635779 
1881	 0.109971289499747 
1882	 0.116272870281121 
1883	 0.116620235652292 
1884	 0.120040853945298 
1885	 0.118401307079885 
1886	 0.111534583573428 
1887	 0.107241071837434 
1888	 0.100910157689498 
1889	 9.56918669042991E-02 
1890	 9.53712530884519E-02 
1891	 9.75976791077316E-02 
1892	 9.93067688091658E-02 
1893	 0.108922400701283 
1894	 0.11113410401274 
1895	 0.111203570136601 
1896	 0.108915464463821 
1897	 0.101697993287418 
1898	 8.62032518907372E-02 
1899	 7.65938442309855E-02 
1900	 6.57502979178062E-02 
1901	 6.74967879545122E-02 
1902	 9.71291429172976E-02 
1903	 0.110821996543943 
1904	 0.135439255735444 
1905	 0.144778584521904 
1906	 0.147792628236616 
1907	 0.121617103833493 
1908	 9.29482928802071E-02 
1909	 0.073960096321653 
1910	 5.95313038479264E-02 
1911	 5.23142638488956E-02 
1912	 5.24735555644259E-02 
1913	 6.04559725249484E-02 
1914	 6.28847537241966E-02 
1915	 6.56288975608941E-02 
1916	 6.74671347339368E-02 
1917	 6.76587151517368E-02 
1918	 7.11517656815661E-02 
1919	 7.23966012810146E-02 
1920	 7.40369559979119E-02 
1921	 7.47001797429289E-02 
1922	 7.08793170391525E-02 
1923	 0.068886247095381 
1924	 6.54742954095652E-02 
1925	 6.36936890137715E-02 
1926	 6.25786972714995E-02 
1927	 6.20875520456467E-02 
1928	 6.29607987594649E-02 
1929	 6.19338181473075E-02 
1930	 6.00922296938389E-02 
1931	 6.07204387817073E-02 
1932	 6.00222876880486E-02 
1933	 5.98742441847309E-02 
1934	 6.00649393098151E-02 
1935	 6.10147971208329E-02 
1936	 6.12477467752775E-02 
1937	 0.060794580188125 
1938	 6.11429513130922E-02 
1939	 6.23617881745561E-02 
1940	 6.24891598513998E-02 
1941	 6.13073016206778E-02 
1942	 6.15614135004626E-02 
1943	 6.14952278409544E-02 
1944	 6.13222956296526E-02 
1945	 6.35972098344592E-02 
1946	 6.56631051855913E-02 
1947	 6.63525283193364E-02 
1948	 6.65231018603923E-02 
1949	 6.71053712263139E-02 
1950	 6.71845104276737E-02 
1951	 6.63316697705222E-02 
1952	 6.73188582446655E-02 
1953	 6.70895920998064E-02 
1954	 6.60137566341358E-02 
1955	 6.61551095726809E-02 
1956	 6.66316504353156E-02 
1957	 6.67192773047128E-02 
1958	 6.68835653342523E-02 
1959	 6.72039856185328E-02 
1960	 6.77687023402054E-02 
1961	 6.81423333146644E-02 
1962	 6.88240149470177E-02 
1963	 6.96648433860683E-02 
1964	 7.01412078803954E-02 
1965	 0.070395654446262 
1966	 7.01966333807853E-02 
1967	 7.03214879881896E-02 
1968	 7.06852804040493E-02 
1969	 7.08971961053403E-02 
1970	 7.09408396108531E-02 
1971	 0.071364861452142 
1972	 7.19940892437097E-02 
1973	 7.23977475345104E-02 
1974	 7.29602349777842E-02 
1975	 7.37633465787057E-02 
1976	 7.42422516295203E-02 
1977	 7.46550536999551E-02 
1978	 7.50593277631185E-02 
1979	 7.55189281802993E-02 
1980	 7.60037534931207E-02 
1981	 7.64180143664629E-02 
1982	 7.68781817161253E-02 
1983	 0.077425674492574 
1984	 7.77404706620903E-02 
1985	 7.80596569140712E-02 
1986	 7.84647301921842E-02 
1987	 7.87571469220157E-02 
1988	 7.92677777527856E-02 
1989	 7.97772543286423E-02 
1990	 8.00988137489286E-02 
1991	 8.03953644032656E-02 
1992	 8.06288999554816E-02 
1993	 8.10433969276804E-02 
1994	 8.16982583594194E-02 
1995	 8.22497395104208E-02 
1996	 0.082885191468024 
1997	 8.36425997601477E-02 
1998	 8.42302110623251E-02 
1999	 8.46359969778007E-02 
2000	 8.53513317955877E-02 
2001	 8.57434364431554E-02 
2002	 8.59754513243608E-02 
2003	 8.63876943696102E-02 
2004	 8.64668489439939E-02 
2005	 8.71864543067029E-02 
2006	 8.82170026951079E-02 
2007	 8.96687352080974E-02 
2008	 9.08770930448594E-02 
2009	 9.22100871391522E-02 
2010	 9.31391308805176E-02 
2011	 9.34320036725682E-02 
2012	 9.31286355124015E-02 
2013	 9.32045108129498E-02 
2014	 9.35945328732051E-02 
2015	 9.34603848771421E-02 
2016	 9.40195466087161E-02 
2017	 9.47675270864313E-02 
2018	 0.094592492791135 
2019	 9.49163352455277E-02 
2020	 9.54963286792956E-02 
2021	 0.096164208103449 
2022	 0.096243065250231 
2023	 9.68657858725684E-02 
2024	 9.72949376461448E-02 
2025	 9.72394195149938E-02 
2026	 9.76757151899072E-02 
2027	 9.82384884396759E-02 
2028	 9.86559807231426E-02 
2029	 9.90956054098822E-02 
2030	 9.94343306413973E-02 
2031	 0.099463416915709 
2032	 9.96899582462241E-02 
2033	 9.98740422102452E-02 
2034	 0.100452352776577 
2035	 0.100862373021552 
2036	 0.10123265565925 
2037	 0.101787842465208 
2038	 0.102066129418896 
2039	 0.102234564049191 
2040	 0.102656841989816 
2041	 0.103040500077593 
2042	 0.103316134990773 
2043	 0.103849948069978 
2044	 0.104416725681111 
2045	 0.104800555820449 
2046	 0.104991665504866 
2047	 0.105399490552683 
2048	 0.105861563797796 
2049	 0.105780269527489 
2050	 0.10607853380596 
2051	 0.106421103637899 
2052	 0.106239221488912 
2053	 0.106952577679547 
2054	 0.107807703874851 
2055	 0.108227241594939 
2056	 0.108844553138772 
2057	 0.109426265280383 
2058	 0.109689761485523 
2059	 0.110043289866917 
2060	 0.110354278385498 
2061	 0.111102577195072 
2062	 0.111282989885185 
2063	 0.111430694914339 
2064	 0.112124907043806 
2065	 0.112124668955379 
2066	 0.112042795452965 
2067	 0.112483590449048 
2068	 0.112792821430382 
2069	 0.112953555811393 
2070	 0.113321193609485 
2071	 0.113977048233871 
2072	 0.114608276661326 
2073	 0.115203079578816 
2074	 0.11580614144497 
2075	 0.116313454464472 
2076	 0.116588257609446 
2077	 0.116553229943894 
2078	 0.11655459841621 
2079	 0.117231947781535 
2080	 0.117905755244601 
2081	 0.118725200679102 
2082	 0.119653342444822 
2083	 0.119934370415326 
2084	 0.120268583778768 
2085	 0.120531620328406 
2086	 0.120748328359429 
2087	 0.121073590238703 
2088	 0.121638090271498 
2089	 0.121923389640505 
2090	 0.122173632306992 
2091	 0.12236445193591 
2092	 0.12253108288424 
2093	 0.122851425207888 
2094	 0.123177343774539 
2095	 0.123746890723211 
2096	 0.124157125763379 
2097	 0.124501911859483 
2098	 0.124739339051018 
2099	 0.124682953979836 
2100	 0.124899583562363 
2101	 0.12533840653254 
2102	 0.126002763468831 
2103	 0.126972202632741 
2104	 0.12817765100925 
2105	 0.129202520122092 
2106	 0.129759611926159 
2107	 0.130067583268851 
2108	 0.130183285800646 
2109	 0.130116059841174 
2110	 0.130546191220119 
2111	 0.131056793920583 
2112	 0.131415649746363 
2113	 0.132002463384483 
2114	 0.132382536999958 
2115	 0.132613468281582 
2116	 0.133164958796039 
2117	 0.133470849267597 
2118	 0.133419008627778 
2119	 0.133561947999835 
2120	 0.13368165347549 
2121	 0.13397341576813 
2122	 0.134579847446667 
2123	 0.135638816153167 
2124	 0.136558525611351 
2125	 0.13674927796093 
2126	 0.136562317628839 
2127	 0.136821351395979 
2128	 0.137305144574238 
2129	 0.137752808832003 
2130	 0.138407105783249 
2131	 0.138936298811721 
2132	 0.139171715849963 
2133	 0.139582647402989 
2134	 0.140007471430555 
2135	 0.1405117060639 
2136	 0.140841847723983 
2137	 0.141217872640028 
2138	 0.141565259036068 
2139	 0.141833039213577 
2140	 0.142134760555314 
2141	 0.142251619533313 
2142	 0.142449941116111 
2143	 0.142987788579789 
2144	 0.143121068075318 
2145	 0.143275953131204 
2146	 0.143579559520003 
2147	 0.143584468203509 
2148	 0.143653947250466 
2149	 0.14388670923122 
2150	 0.144390058084759 
2151	 0.144619207546236 
2152	 0.144694911103947 
2153	 0.144905586543029 
2154	 0.145148575783706 
2155	 0.144953896140509 
2156	 0.14526566008454 
2157	 0.145561620344701 
2158	 0.145829251695632 
2159	 0.146280703379978 
2160	 0.146281042381853 
2161	 0.146822402726949 
2162	 0.14715168992939 
2163	 0.147176844805237 
2164	 0.147688072633519 
2165	 0.14797224099083 
2166	 0.148352917931491 
2167	 0.148716870635476 
2168	 0.148794854300647 
2169	 0.148482248460684 
2170	 0.148381044800085 
2171	 0.148157230688184 
2172	 0.148030213660356 
2173	 0.148093527219543 
2174	 0.148711874022025 
2175	 0.148677142270212 
2176	 0.148678586492444 
2177	 0.148866367626934 
2178	 0.148796809020754 
2179	 0.149136830077067 
2180	 0.149529801667004 
2181	 0.150053676270396 
2182	 0.150237277034251 
2183	 0.150233520863968 
2184	 0.150629748202879 
2185	 0.150880356290568 
2186	 0.151183958067033 
2187	 0.151311242144254 
2188	 0.151147067589856 
2189	 0.151304079295644 
2190	 0.151554865680397 
2191	 0.151650612074181 
2192	 0.151839638653637 
2193	 0.152115015317819 
2194	 0.15168760193031 
2195	 0.15137277512658 
2196	 0.151086950790898 
2197	 0.150763375539211 
2198	 0.150904722525085 
2199	 0.150843843581335 
2200	 0.151170523354257 
2201	 0.151859458606905 
2202	 0.152044217580071 
2203	 0.152184631821184 
2204	 0.152413925818378 
2205	 0.15240712628509 
2206	 0.152656092234133 
2207	 0.153030871912431 
2208	 0.153204338455866 
2209	 0.153481268386152 
2210	 0.153438277253607 
2211	 0.15302123349642 
2212	 0.152691804880274 
2213	 0.152793936714116 
2214	 0.15281065991254 
2215	 0.153120814630756 
2216	 0.153230178228217 
2217	 0.152721723515409 
2218	 0.152065285128295 
2219	 0.151807568241058 
2220	 0.151927562757591 
2221	 0.152353637113989 
2222	 0.152549020880588 
2223	 0.152553090446617 
2224	 0.152675911469822 
2225	 0.152621391969652 
2226	 0.152770815114354 
2227	 0.152697912970277 
2228	 0.152237435254488 
2229	 0.152036146894036 
2230	 0.152214061786638 
2231	 0.1521278312667 
2232	 0.152104682685235 
2233	 0.151662194980769 
2234	 0.150939860124967 
2235	 0.150220905079774 
2236	 0.149139540290422 
2237	 0.14882174144098 
2238	 0.14877241672866 
2239	 0.148510997178823 
2240	 0.148681556945037 
2241	 0.148547411499374 
2242	 0.148198015194464 
2243	 0.147731021293557 
2244	 0.146910405526535 
2245	 0.14650755747889 
2246	 0.146563084937075 
2247	 0.146682794399491 
2248	 0.146857144981854 
2249	 0.146774349732986 
2250	 0.146162241238118 
2251	 0.145051268060221 
2252	 0.143856339257187 
2253	 0.143153800317311 
2254	 0.142809617142452 
2255	 0.142267180358198 
2256	 0.141839706208899 
2257	 0.1415708063122 
2258	 0.141076569654568 
2259	 0.140077032346419 
2260	 0.139370954007287 
2261	 0.138955582215416 
2262	 0.138223124480086 
2263	 0.137813733789009 
2264	 0.138136568430436 
2265	 0.137905035361735 
2266	 0.137501572440422 
2267	 0.137391965446105 
2268	 0.137195945854274 
2269	 0.136915675954423 
2270	 0.13618905143505 
2271	 0.13539230476565 
2272	 0.134648489225974 
2273	 0.133993137244441 
2274	 0.133919562601711 
2275	 0.133874388118268 
2276	 0.13372634345186 
2277	 0.133350685457749 
2278	 0.132398040939711 
2279	 0.132029632939919 
2280	 0.131623255543842 
2281	 0.131219964308228 
2282	 0.131581541134774 
2283	 0.131642265275143 
2284	 0.131612776562518 
2285	 0.13135939309084 
2286	 0.131200361517057 
2287	 0.130967843855494 
2288	 0.130821383635627 
2289	 0.130217587468162 
2290	 0.129695458383574 
2291	 0.128615628929328 
2292	 0.127565127219814 
2293	 0.127050302212213 
2294	 0.126427863171835 
2295	 0.125956209804165 
2296	 0.125537898855438 
2297	 0.125717086885689 
2298	 0.125837773123367 
2299	 0.126134713475867 
2300	 0.126639122629614 
2301	 0.1262669592518 
2302	 0.126182632579697 
2303	 0.125976214731693 
2304	 0.124812225186866 
2305	 0.123422126897996 
2306	 0.122443534354973 
2307	 0.121819261948194 
2308	 0.121689297915343 
2309	 0.121830426895572 
2310	 0.121916449459931 
2311	 0.122578602947823 
2312	 0.122649207510321 
2313	 0.121916001300937 
2314	 0.121379380026564 
2315	 0.119690567694328 
2316	 0.118536755779652 
2317	 0.118838811535351 
2318	 0.118114572862367 
2319	 0.117863570628728 
2320	 0.117658855350156 
2321	 0.116954030196091 
2322	 0.115330208239271 
2323	 0.115265150911667 
2324	 0.115723590933543 
2325	 0.115954795889437 
2326	 0.116640136101502 
2327	 0.117105493963088 
2328	 0.116187316447857 
2329	 0.115223560926096 
2330	 0.114992547336189 
2331	 0.115019035210058 
2332	 0.115592552096431 
2333	 0.115865436730716 
2334	 0.115849928371752 
2335	 0.114922636312438 
2336	 0.113482017070171 
2337	 0.112860901835979 
2338	 0.112504555492194 
2339	 0.11284595755674 
2340	 0.112950402012632 
2341	 0.113017928498252 
2342	 0.113467663065537 
2343	 0.112332882575554 
2344	 0.11072133294299 
2345	 0.110110650959991 
2346	 0.109019912862738 
2347	 0.108281296403333 
2348	 0.109131473999238 
2349	 0.10923580458222 
2350	 0.108979324312449 
2351	 0.109260136626387 
2352	 0.108554433894173 
2353	 0.107688761496077 
2354	 0.106672059317828 
2355	 0.106241358017019 
2356	 0.107550952770209 
2357	 0.107413655172624 
2358	 0.1062286938276 
2359	 0.106242460433927 
2360	 0.104975185907361 
2361	 0.103352530413823 
2362	 0.10318518819628 
2363	 0.102262974800867 
2364	 0.101043686812035 
2365	 0.101004315482473 
2366	 0.101870115286575 
2367	 0.102180784320772 
2368	 0.102278464246133 
2369	 0.10331834321928 
2370	 0.104042399300006 
2371	 0.104673600164785 
2372	 0.104814396704485 
2373	 0.104638437211509 
2374	 0.104083859297362 
2375	 0.102377806069851 
2376	 0.102176280050367 
2377	 0.103539973813561 
2378	 0.10353825838002 
2379	 0.102759714062282 
2380	 0.10201805190705 
2381	 0.100381694062471 
2382	 9.92106457260636E-02 
2383	 9.91823084508892E-02 
2384	 0.098716961695984 
2385	 9.71550220743464E-02 
2386	 9.65513320855945E-02 
2387	 9.75537684626146E-02 
2388	 9.72530837340912E-02 
2389	 9.61909385426676E-02 
2390	 9.55064162215947E-02 
2391	 9.38052435901434E-02 
2392	 9.28292942494487E-02 
2393	 9.28736621186978E-02 
2394	 9.27735907789778E-02 
2395	 9.25062578113369E-02 
2396	 9.18729611627295E-02 
2397	 9.20811039204579E-02 
2398	 9.11550982387131E-02 
2399	 8.79456314088845E-02 
2400	 8.75517519918448E-02 
2401	 8.84818716354916E-02 
2402	 8.83797946335324E-02 
2403	 8.83338979219816E-02 
2404	 0.089420231872691 
2405	 8.77443755980432E-02 
2406	 8.65406861253554E-02 
2407	 8.69608887760916E-02 
2408	 8.70936110463128E-02 
2409	 8.67053783923824E-02 
2410	 8.51517530828859E-02 
2411	 8.38160007947781E-02 
2412	 8.48524700657807E-02 
2413	 8.63783819932378E-02 
2414	 8.69090777223819E-02 
2415	 8.85145046107143E-02 
2416	 8.82982373682745E-02 
2417	 8.72045059905033E-02 
2418	 8.60001341712242E-02 
2419	 8.43204357305023E-02 
2420	 8.38287714245011E-02 
2421	 8.25989155460722E-02 
2422	 8.29493920512699E-02 
2423	 8.41536054295317E-02 
2424	 0.08571189711807 
2425	 8.75542736015952E-02 
2426	 8.72413608151936E-02 
2427	 8.83454968833125E-02 
2428	 0.087498146814284 
2429	 8.53443691635856E-02 
2430	 0.085480732765054 
2431	 0.082685375125551 
2432	 8.04958759890916E-02 
2433	 8.17463504810552E-02 
2434	 8.17935780172368E-02 
2435	 8.26617056506042E-02 
2436	 8.44962911950813E-02 
2437	 8.70210058598045E-02 
2438	 8.62856353436253E-02 
2439	 8.63572770815045E-02 
2440	 8.60359293585872E-02 
2441	 8.10672388169949E-02 
2442	 7.89832648599867E-02 
2443	 7.78768546857596E-02 
2444	 7.67718913433447E-02 
2445	 7.79173411532986E-02 
2446	 7.63442678330548E-02 
2447	 7.27184807542712E-02 
2448	 7.24924776426593E-02 
2449	 0.073669472180069 
2450	 7.12515405092905E-02 
2451	 6.97552105048416E-02 
2452	 6.92867846171283E-02 
2453	 6.47471119605774E-02 
2454	 6.33138043372665E-02 
2455	 6.61310495314811E-02 
2456	 6.80643821935526E-02 
2457	 6.89848440541343E-02 
2458	 7.03573060049156E-02 
2459	 7.22848557228902E-02 
2460	 7.44404301622224E-02 
2461	 7.73064491059495E-02 
2462	 7.98672598412848E-02 
2463	 8.67374355982711E-02 
2464	 0.08775246777084 
2465	 8.16480295823276E-02 
2466	 8.00479166321128E-02 
2467	 7.74887870720662E-02 
2468	 7.34761301268599E-02 
2469	 7.19239401326209E-02 
2470	 6.91803168193804E-02 
2471	 6.14118015925515E-02 
2472	 5.92518431484683E-02 
2473	 6.31050441287047E-02 
2474	 6.44655550302932E-02 
2475	 6.55979477020223E-02 
2476	 6.83486370206315E-02 
2477	 7.33550319616163E-02 
2478	 7.28791741146805E-02 
2479	 6.97788728297929E-02 
2480	 6.85188996035641E-02 
2481	 6.28979208906138E-02 
2482	 5.93327132098189E-02 
2483	 6.25107935964508E-02 
2484	 5.73597929421215E-02 
2485	 3.76835945322315E-02 
2486	 2.44646168733155E-02 
2487	 5.07167338556023E-02 
2488	 8.08139288180527E-02 
2489	 0.086428204759967 
2490	 9.36951238718425E-02 
2491	 6.32260847735641E-02 
2492	 5.18767523971244E-02 
2493	 7.40430671559175E-02 
2494	 6.61157198231844E-02 
2495	 7.53093295468392E-02 
2496	 7.26591603470423E-02 
2497	 7.32803082465848E-02 
2498	 0.123583386548547 
2499	 0.156263206008814 
2500	 0.189404557197571 
