Wavelength	ref00078.asd
350	 2.00080682885011E-02 
351	 2.05248870091955E-02 
352	 2.05501858360402E-02 
353	 2.10302135917309E-02 
354	 2.03998904518056E-02 
355	 1.96672447687701E-02 
356	 1.95317674909752E-02 
357	 1.90982615865798E-02 
358	 1.87718268490829E-02 
359	 1.91596659950733E-02 
360	 2.02927551226041E-02 
361	 0.019675044493908 
362	 1.93402515317499E-02 
363	 1.94009225018764E-02 
364	 1.87719836721645E-02 
365	 1.88453478148397E-02 
366	 1.90390325796595E-02 
367	 1.89027717663874E-02 
368	 1.84946847480053E-02 
369	 1.84052346436957E-02 
370	 1.86089324213861E-02 
371	 1.88346786423746E-02 
372	 1.85616759733809E-02 
373	 1.86232784913043E-02 
374	 0.018688357472407 
375	 1.80475018385458E-02 
376	 1.79261148759867E-02 
377	 1.84359746015683E-02 
378	 1.89870021982275E-02 
379	 1.83646445255605E-02 
380	 1.84057377201372E-02 
381	 1.88918638135081E-02 
382	 1.91258364410214E-02 
383	 1.82850745088922E-02 
384	 1.82824756624905E-02 
385	 1.89306869348714E-02 
386	 1.92031481396323E-02 
387	 1.95241547305672E-02 
388	 0.019614450636186 
389	 1.95583085079547E-02 
390	 1.98195546419955E-02 
391	 1.99821494574848E-02 
392	 2.01359257433836E-02 
393	 2.02966107450565E-02 
394	 2.00146466615533E-02 
395	 2.04716084271002E-02 
396	 2.09682137818613E-02 
397	 2.05365993318685E-02 
398	 2.04487220628049E-02 
399	 2.05074041983145E-02 
400	 2.06403817020389E-02 
401	 2.09172683895377E-02 
402	 2.09772214561783E-02 
403	 2.10261850269934E-02 
404	 2.12436642846407E-02 
405	 2.15908803615947E-02 
406	 2.20632740913652E-02 
407	 2.23027078597979E-02 
408	 0.022067848857829 
409	 2.22883287968101E-02 
410	 2.25882104185424E-02 
411	 2.28826558472391E-02 
412	 2.33584495802541E-02 
413	 0.023491588260932 
414	 2.35664158378495E-02 
415	 2.38265720580814E-02 
416	 2.41663066460945E-02 
417	 2.44669237359168E-02 
418	 2.47071008891779E-02 
419	 2.49223893617052E-02 
420	 2.52145709457561E-02 
421	 2.54130636840009E-02 
422	 0.025491195949599 
423	 2.55703127027777E-02 
424	 2.58444238778417E-02 
425	 2.61751537434767E-02 
426	 2.64293020175664E-02 
427	 2.65960946371307E-02 
428	 2.69733221824159E-02 
429	 0.027259290979739 
430	 2.71500789949327E-02 
431	 0.02747216536884 
432	 2.78577662560824E-02 
433	 2.80564795563377E-02 
434	 2.80102358075514E-02 
435	 2.79833571888605E-02 
436	 2.82538608575387E-02 
437	 2.87746114878215E-02 
438	 2.88630602323418E-02 
439	 2.88813644922639E-02 
440	 0.029038668271929 
441	 2.93837966741223E-02 
442	 2.93813524772188E-02 
443	 0.029462959086286 
444	 0.02971729588351 
445	 2.98681839006118E-02 
446	 3.00907632593427E-02 
447	 3.02810740862715E-02 
448	 3.03778824312044E-02 
449	 0.030543862606613 
450	 0.030627027630129 
451	 3.07078299530786E-02 
452	 3.09218848478101E-02 
453	 3.10720106431907E-02 
454	 3.12676306536136E-02 
455	 3.15113453649909E-02 
456	 3.16576384885514E-02 
457	 3.17225165850915E-02 
458	 3.17951458236445E-02 
459	 3.19492465646487E-02 
460	 3.21734084988962E-02 
461	 3.23133893197264E-02 
462	 3.24108421723276E-02 
463	 3.25886964701455E-02 
464	 3.26226390853564E-02 
465	 3.27737743646463E-02 
466	 3.30936246087271E-02 
467	 3.32557079918757E-02 
468	 3.32778461775785E-02 
469	 3.33191974632076E-02 
470	 3.34988367490775E-02 
471	 3.35851099071685E-02 
472	 3.37819328863255E-02 
473	 3.40369800085571E-02 
474	 3.41347638351687E-02 
475	 3.42470678818219E-02 
476	 0.03439540619255 
477	 3.45666701134311E-02 
478	 3.47226113773375E-02 
479	 0.034892031020556 
480	 3.50549349114802E-02 
481	 3.51744749769603E-02 
482	 3.52025255798072E-02 
483	 3.52846624556324E-02 
484	 3.55203520251828E-02 
485	 3.59319296091669E-02 
486	 3.61865264560117E-02 
487	 3.63424405766605E-02 
488	 3.64685220189751E-02 
489	 3.63879277686516E-02 
490	 3.66425549158766E-02 
491	 3.70017932356499E-02 
492	 3.70248619360443E-02 
493	 3.73071387631089E-02 
494	 3.75695686917035E-02 
495	 3.77479399646659E-02 
496	 3.81164694653162E-02 
497	 0.038334168173697 
498	 3.86089868764423E-02 
499	 3.90960248085389E-02 
500	 3.93054204549976E-02 
501	 0.039670686480163 
502	 4.01557581390154E-02 
503	 4.04558572509345E-02 
504	 4.07390393957114E-02 
505	 4.10512528686386E-02 
506	 4.14100896870726E-02 
507	 4.18095484304309E-02 
508	 0.042244436738459 
509	 4.26930456428611E-02 
510	 4.31370966872549E-02 
511	 4.36014482668246E-02 
512	 0.044029364498651 
513	 4.44570666725561E-02 
514	 4.49934352723213E-02 
515	 4.55098592260668E-02 
516	 4.61142028007643E-02 
517	 4.68035919511916E-02 
518	 4.72079021406352E-02 
519	 0.047689548960329 
520	 4.82209761697032E-02 
521	 4.86686579543486E-02 
522	 4.92440961081941E-02 
523	 4.98270242116391E-02 
524	 5.03292115126144E-02 
525	 5.07189369699523E-02 
526	 5.12876433250025E-02 
527	 5.19456236167403E-02 
528	 5.25213289417544E-02 
529	 5.28858162977623E-02 
530	 5.32506125122773E-02 
531	 5.37132251219152E-02 
532	 0.054275738824697 
533	 5.47253580294538E-02 
534	 5.51610496765832E-02 
535	 5.56017630317547E-02 
536	 5.58640624575931E-02 
537	 5.63069162370251E-02 
538	 5.68438761681927E-02 
539	 5.72969082486158E-02 
540	 5.77600413912065E-02 
541	 5.83009392829908E-02 
542	 5.87994157565476E-02 
543	 5.90164014743011E-02 
544	 0.059458883190574 
545	 5.99233184455397E-02 
546	 6.02593350236995E-02 
547	 0.060713707320013 
548	 6.12552647050329E-02 
549	 6.17565388455697E-02 
550	 6.20956784559034E-02 
551	 6.25123757154001E-02 
552	 6.28824071546039E-02 
553	 6.31720173095073E-02 
554	 6.34859094357369E-02 
555	 6.38043148844282E-02 
556	 6.40959284788542E-02 
557	 0.064345713633151 
558	 0.064605508032371 
559	 6.48708677364144E-02 
560	 6.51144808640999E-02 
561	 6.53089152566507E-02 
562	 0.065565371303227 
563	 0.065809809024058 
564	 6.60299797424229E-02 
565	 6.63704663802615E-02 
566	 0.066647092336648 
567	 6.68535551654082E-02 
568	 6.70505831741614E-02 
569	 6.73070998223286E-02 
570	 6.75112559978775E-02 
571	 6.76403034540147E-02 
572	 6.77593011625921E-02 
573	 6.77629723678946E-02 
574	 6.77938273712591E-02 
575	 0.067922171895162 
576	 0.067915557031757 
577	 6.79454871931475E-02 
578	 6.80264311965093E-02 
579	 6.81080514802202E-02 
580	 6.82314092375065E-02 
581	 6.84582057585724E-02 
582	 6.87417920023191E-02 
583	 6.88961902012146E-02 
584	 6.91210800366987E-02 
585	 6.94063251401097E-02 
586	 6.96668432574108E-02 
587	 6.97410026538655E-02 
588	 6.99824373443149E-02 
589	 0.070335073907338 
590	 7.04504615652898E-02 
591	 7.05257211276713E-02 
592	 7.06978167920436E-02 
593	 7.09836429677506E-02 
594	 7.12001263644677E-02 
595	 0.071475244463955 
596	 7.16851044814785E-02 
597	 7.17165738936664E-02 
598	 7.19268052779672E-02 
599	 7.21049387749496E-02 
600	 7.22020780108317E-02 
601	 7.23551835811574E-02 
602	 7.25951496565697E-02 
603	 7.27888777335898E-02 
604	 7.28765401633553E-02 
605	 7.30846092586012E-02 
606	 7.32576590791363E-02 
607	 7.34073438410481E-02 
608	 7.36140168453621E-02 
609	 7.38240533236432E-02 
610	 7.40488186167423E-02 
611	 7.43012442648278E-02 
612	 0.074592000422461 
613	 7.47494721490028E-02 
614	 7.48643749924788E-02 
615	 7.50626881276621E-02 
616	 7.53250684798558E-02 
617	 7.54710447690584E-02 
618	 0.075529282198947 
619	 7.56752698109301E-02 
620	 7.58804204331122E-02 
621	 7.61234767081277E-02 
622	 7.63807953756978E-02 
623	 7.66264247678218E-02 
624	 0.076857841697923 
625	 7.70782022434499E-02 
626	 7.73064586030237E-02 
627	 0.077623644794272 
628	 0.077928958001299 
629	 7.81987779968248E-02 
630	 7.84854089888529E-02 
631	 7.87043488101044E-02 
632	 7.89070247704157E-02 
633	 7.91229172789047E-02 
634	 7.92579468451837E-02 
635	 0.079362139472509 
636	 7.94193718423882E-02 
637	 7.94099806069015E-02 
638	 7.95038237135718E-02 
639	 7.94779207121026E-02 
640	 7.93109719046085E-02 
641	 7.92761030328042E-02 
642	 7.91346897206343E-02 
643	 0.078983769131343 
644	 7.89406069954691E-02 
645	 7.89261095961064E-02 
646	 7.89021863297892E-02 
647	 7.88611384299548E-02 
648	 7.88341873486695E-02 
649	 7.90059242728015E-02 
650	 0.07907482436593 
651	 7.89647279092135E-02 
652	 7.90461795739812E-02 
653	 0.079191544899634 
654	 7.93829048378415E-02 
655	 7.96364079252717E-02 
656	 8.00113488706975E-02 
657	 8.01694666971794E-02 
658	 8.01063514808497E-02 
659	 8.01080517015881E-02 
660	 8.01032779264284E-02 
661	 8.01574876059364E-02 
662	 8.02720115638582E-02 
663	 0.080308100388981 
664	 8.02371375739642E-02 
665	 8.01543366590421E-02 
666	 8.01873559605388E-02 
667	 8.03683471781567E-02 
668	 8.04707995332092E-02 
669	 8.05199400309923E-02 
670	 8.07608282710195E-02 
671	 8.08773062687067E-02 
672	 8.10471431263304E-02 
673	 8.13793882687144E-02 
674	 8.16283757942686E-02 
675	 0.081862251479363 
676	 8.21167109631291E-02 
677	 8.24102231494383E-02 
678	 0.082681650383005 
679	 0.083100604988711 
680	 8.36685666970465E-02 
681	 8.42007509843868E-02 
682	 8.46781585844448E-02 
683	 8.53253927487105E-02 
684	 8.62430834231422E-02 
685	 8.70614562772303E-02 
686	 8.80888772272739E-02 
687	 8.94613060952736E-02 
688	 9.10461895593453E-02 
689	 9.24553054022106E-02 
690	 9.40451123400051E-02 
691	 0.095981714965838 
692	 9.80415560089984E-02 
693	 0.100431074745622 
694	 0.102990858188845 
695	 0.105503106197769 
696	 0.107838996941923 
697	 0.110526512515579 
698	 0.113479912829527 
699	 0.116360057157892 
700	 0.119413603020961 
701	 0.122443397631482 
702	 0.125343992777327 
703	 0.128159162320896 
704	 0.130920008586523 
705	 0.133668095213851 
706	 0.136451454544025 
707	 0.139272175225398 
708	 0.141935997137695 
709	 0.144548443172972 
710	 0.147289252243303 
711	 0.149927357865331 
712	 0.152482591133478 
713	 0.155014922816584 
714	 0.157607777994636 
715	 0.160311569486857 
716	 0.163178870817971 
717	 0.1663148349631 
718	 0.169775156776657 
719	 0.172620274052967 
720	 0.174735048934493 
721	 0.176609710900352 
722	 0.178294637366937 
723	 0.180453749288941 
724	 0.183207381074304 
725	 0.185758965801149 
726	 0.187818591083038 
727	 0.189716703560875 
728	 0.191728104149429 
729	 0.193437218120349 
730	 0.195181589018701 
731	 0.196861742148759 
732	 0.198229260154059 
733	 0.199067652063803 
734	 0.200261069404781 
735	 0.201855731140611 
736	 0.203115084093758 
737	 0.204473683894418 
738	 0.20572888712089 
739	 0.206788029800338 
740	 0.20794210760641 
741	 0.209033641875071 
742	 0.210084838547933 
743	 0.21114849849318 
744	 0.212198059459459 
745	 0.213223285373393 
746	 0.214161004892106 
747	 0.214938434496888 
748	 0.215838628450879 
749	 0.216704147183996 
750	 0.217475598767459 
751	 0.218364836591295 
752	 0.219043554185751 
753	 0.21975083480977 
754	 0.220665348549839 
755	 0.221166035495458 
756	 0.22171944483931 
757	 0.222303450170426 
758	 0.222660904165532 
759	 0.223076074928588 
760	 0.224287815249707 
761	 0.226393198300747 
762	 0.226995867517777 
763	 0.22729604987011 
764	 0.227766355769357 
765	 0.228321975398797 
766	 0.228361454916096 
767	 0.228636819771941 
768	 0.229068014424126 
769	 0.229414278126725 
770	 0.229833232424257 
771	 0.230349660405306 
772	 0.230926152209503 
773	 0.231480944527243 
774	 0.232005833089442 
775	 0.232524843376088 
776	 0.233040370954803 
777	 0.233513358007169 
778	 0.23390818664061 
779	 0.234397618733741 
780	 0.235042333903904 
781	 0.235318915352972 
782	 0.235738224087077 
783	 0.23634012794479 
784	 0.236914400295712 
785	 0.237504282090163 
786	 0.238074207703754 
787	 0.23862033165844 
788	 0.239177809490432 
789	 0.23988494173445 
790	 0.240458962476839 
791	 0.240789366700353 
792	 0.241282038137616 
793	 0.241826876351381 
794	 0.24231519261794 
795	 0.24271980925755 
796	 0.24337422835322 
797	 0.243930728326862 
798	 0.244304005206244 
799	 0.244613704682775 
800	 0.245122952197888 
801	 0.245721997985954 
802	 0.246263417003211 
803	 0.246633482329747 
804	 0.247094570880922 
805	 0.24752527342152 
806	 0.247870235296773 
807	 0.248370393847221 
808	 0.24886051093133 
809	 0.249386329260797 
810	 0.250034274812898 
811	 0.250796308325106 
812	 0.251632255651733 
813	 0.252630928232209 
814	 0.253870530757401 
815	 0.254808213960649 
816	 0.255652323320194 
817	 0.256362149292388 
818	 0.256598587497383 
819	 0.256532175959331 
820	 0.256349808495899 
821	 0.256405764457911 
822	 0.257332982808248 
823	 0.258162829748367 
824	 0.258359650235507 
825	 0.257904280984871 
826	 0.257686922667548 
827	 0.258021324347945 
828	 0.258665672195901 
829	 0.259120785721589 
830	 0.259199940147446 
831	 0.259355406830444 
832	 0.259655555019234 
833	 0.259851267018713 
834	 0.259908121442259 
835	 0.259879900178134 
836	 0.259902178172611 
837	 0.260162222406246 
838	 0.260372849686463 
839	 0.260727186414086 
840	 0.261220344096065 
841	 0.261276766482444 
842	 0.261556037471097 
843	 0.261887460487069 
844	 0.262052488436663 
845	 0.262547363854421 
846	 0.262783419382962 
847	 0.262869708964921 
848	 0.263188237533983 
849	 0.263683626649704 
850	 0.264309914014827 
851	 0.264757942930785 
852	 0.264720818854069 
853	 0.265441101037533 
854	 0.266303691390077 
855	 0.266686456170727 
856	 0.266340063407404 
857	 0.266444962472947 
858	 0.266811728344993 
859	 0.267206118909518 
860	 0.267710620236731 
861	 0.268054996635827 
862	 0.268157309690195 
863	 0.268174292656414 
864	 0.268706761904612 
865	 0.269274545872735 
866	 0.269742641995022 
867	 0.270085925496763 
868	 0.27023407121029 
869	 0.270300353557306 
870	 0.270510039709051 
871	 0.271023655783154 
872	 0.271518387928241 
873	 0.271703431922464 
874	 0.271724029243063 
875	 0.272011303854673 
876	 0.272649242862423 
877	 0.272890490116533 
878	 0.272775661246046 
879	 0.273134878916493 
880	 0.273548099542375 
881	 0.273831957610968 
882	 0.273963815352209 
883	 0.274104563681048 
884	 0.274531155595937 
885	 0.274789227362159 
886	 0.274751691728977 
887	 0.275142749515303 
888	 0.275351742937935 
889	 0.275511756965835 
890	 0.275798326084273 
891	 0.27596148529399 
892	 0.2767820482961 
893	 0.277636159531342 
894	 0.277934558611879 
895	 0.278986126677461 
896	 0.280059455288777 
897	 0.280878402623014 
898	 0.281465719403082 
899	 0.282181719189412 
900	 0.282784467553632 
901	 0.282647415562036 
902	 0.281481802101381 
903	 0.281385134419895 
904	 0.280825993390867 
905	 0.280426940588838 
906	 0.28176654652449 
907	 0.282755398821263 
908	 0.283614178298671 
909	 0.284066162202794 
910	 0.283574553052112 
911	 0.283866288494544 
912	 0.284609157135122 
913	 0.285069555717478 
914	 0.284620255365495 
915	 0.284839161680984 
916	 0.284997168234366 
917	 0.284666580645306 
918	 0.284136771761441 
919	 0.283585698241171 
920	 0.283087249568869 
921	 0.282780001957161 
922	 0.28287340857602 
923	 0.282998563744554 
924	 0.283309458405321 
925	 0.283749168136885 
926	 0.283848160966448 
927	 0.284893306465139 
928	 0.285819800205859 
929	 0.286372747923001 
930	 0.288854530151498 
931	 0.291225942819585 
932	 0.293155786904254 
933	 0.29484270277185 
934	 0.296660097316566 
935	 0.297036090850823 
936	 0.296215830671223 
937	 0.294554172905771 
938	 0.291459567825081 
939	 0.290848306930311 
940	 0.290333732052392 
941	 0.288480384805066 
942	 0.288295774013013 
943	 0.289856279335019 
944	 0.290101835864939 
945	 0.287989850963724 
946	 0.288565615549099 
947	 0.287600645701989 
948	 0.286158839235605 
949	 0.285638274374736 
950	 0.28511605779879 
951	 0.284091549550243 
952	 0.283464895965664 
953	 0.283282915879054 
954	 0.281188316986223 
955	 0.280450843056992 
956	 0.280214938267586 
957	 0.279358377250426 
958	 0.27841151263006 
959	 0.27670903261283 
960	 0.275262981818233 
961	 0.274758776939071 
962	 0.27455603542035 
963	 0.27396870722017 
964	 0.273248307944394 
965	 0.272244410077082 
966	 0.269869567298335 
967	 0.269767382228042 
968	 0.269406038579447 
969	 0.267670149286327 
970	 0.267525708336535 
971	 0.266742810573361 
972	 0.267486810441855 
973	 0.269473538597763 
974	 0.268285266346254 
975	 0.269474627903997 
976	 0.270121469831154 
977	 0.268715909115651 
978	 0.267640402106913 
979	 0.268191522728455 
980	 0.2679018973216 
981	 0.266743861322919 
982	 0.26751682014472 
983	 0.267305602967371 
984	 0.267623555022371 
985	 0.267950100969124 
986	 0.266214089622878 
987	 0.267026361428595 
988	 0.26763751973232 
989	 0.267374733227241 
990	 0.267723893970173 
991	 0.269015097519418 
992	 0.268675449956432 
993	 0.26772496166507 
994	 0.268806386088722 
995	 0.269760923021045 
996	 0.270688379738613 
997	 0.270659643788777 
998	 0.269187608367496 
999	 0.269377851241032 
1000	 0.269917021487731 
1001	 0.277057870864037 
1002	 0.277498971272641 
1003	 0.277835945964149 
1004	 0.277982968182133 
1005	 0.278292228616529 
1006	 0.27861679603943 
1007	 0.278956842995703 
1008	 0.279341646953476 
1009	 0.279762078342621 
1010	 0.280174237409497 
1011	 0.280645666859308 
1012	 0.281184131627765 
1013	 0.281690604619149 
1014	 0.282057540182625 
1015	 0.282407672883704 
1016	 0.282803495110561 
1017	 0.283185030053246 
1018	 0.283583132165032 
1019	 0.284032628941962 
1020	 0.28446783689327 
1021	 0.28486435296074 
1022	 0.285299265983553 
1023	 0.285806890331232 
1024	 0.286283148734548 
1025	 0.286604626683976 
1026	 0.286997960012199 
1027	 0.28728499157178 
1028	 0.28751146028016 
1029	 0.287880464320483 
1030	 0.288371637314202 
1031	 0.288877248625737 
1032	 0.289320766542812 
1033	 0.289756574169753 
1034	 0.290172688488213 
1035	 0.290534298414442 
1036	 0.290942178160515 
1037	 0.291231151567363 
1038	 0.291447766276508 
1039	 0.291511899160359 
1040	 0.291703450154308 
1041	 0.291959040879669 
1042	 0.292249783682622 
1043	 0.292586111851234 
1044	 0.292805569332872 
1045	 0.292911807409526 
1046	 0.293101743036202 
1047	 0.293375770185386 
1048	 0.29361852667068 
1049	 0.293953147199513 
1050	 0.294209932523283 
1051	 0.294448706028008 
1052	 0.294543405201688 
1053	 0.294749370458305 
1054	 0.295048927966119 
1055	 0.295302434299287 
1056	 0.295600559754871 
1057	 0.295821469829752 
1058	 0.295929376674154 
1059	 0.296125947791161 
1060	 0.296352678242564 
1061	 0.2966376457358 
1062	 0.296953313686493 
1063	 0.297159857888918 
1064	 0.29732000724775 
1065	 0.297488847173667 
1066	 0.297645192670392 
1067	 0.297763795697538 
1068	 0.297985958054796 
1069	 0.298373631547986 
1070	 0.298804338867821 
1071	 0.299153384784957 
1072	 0.299394849307907 
1073	 0.299540658034084 
1074	 0.299708386088972 
1075	 0.300005488780574 
1076	 0.300300231636665 
1077	 0.300528173439779 
1078	 0.300749581363822 
1079	 0.300947593552319 
1080	 0.301155512862114 
1081	 0.301435531053767 
1082	 0.301844184976734 
1083	 0.302192269870661 
1084	 0.302322498560168 
1085	 0.302455748499133 
1086	 0.302540318878478 
1087	 0.302579554762846 
1088	 0.302779790602702 
1089	 0.303026602179883 
1090	 0.303286861596057 
1091	 0.303607267018775 
1092	 0.303932130437272 
1093	 0.304255652832408 
1094	 0.304601133150082 
1095	 0.304838246705588 
1096	 0.30506966927233 
1097	 0.305312863881913 
1098	 0.30555731377714 
1099	 0.305736861311175 
1100	 0.305952949841792 
1101	 0.306239702769859 
1102	 0.306432926246371 
1103	 0.306776273356588 
1104	 0.307183130232455 
1105	 0.307623942434826 
1106	 0.308228885602212 
1107	 0.308764550010048 
1108	 0.309361746398276 
1109	 0.310096500852838 
1110	 0.310752389455936 
1111	 0.311527824156063 
1112	 0.312439772928881 
1113	 0.313391171464715 
1114	 0.314456645985874 
1115	 0.315656836761373 
1116	 0.317050902013896 
1117	 0.318455159505864 
1118	 0.319909209021443 
1119	 0.321243684068279 
1120	 0.322316380070771 
1121	 0.323128755038786 
1122	 0.323576970628898 
1123	 0.323573687972221 
1124	 0.323367594120961 
1125	 0.323095590004983 
1126	 0.322481880181135 
1127	 0.321835051042064 
1128	 0.320682754524645 
1129	 0.319089142093827 
1130	 0.317436817058816 
1131	 0.3154031777976 
1132	 0.313623320643142 
1133	 0.311878805662565 
1134	 0.310127241333936 
1135	 0.308524727916874 
1136	 0.307079763362746 
1137	 0.30573742033572 
1138	 0.304520963591793 
1139	 0.303371230983603 
1140	 0.302244663168783 
1141	 0.301157094979431 
1142	 0.300139390068682 
1143	 0.299105673333173 
1144	 0.298217994519686 
1145	 0.297068361973826 
1146	 0.295840117945755 
1147	 0.294511858456246 
1148	 0.29319317826642 
1149	 0.291634228012331 
1150	 0.289949002100007 
1151	 0.288282762998832 
1152	 0.286518384510441 
1153	 0.284784497970495 
1154	 0.283222839672127 
1155	 0.281783095962758 
1156	 0.280500289633002 
1157	 0.27929445654867 
1158	 0.278238928249362 
1159	 0.277314306078594 
1160	 0.276409539450009 
1161	 0.275523168797477 
1162	 0.274774438874421 
1163	 0.274072817788587 
1164	 0.273450025868963 
1165	 0.272908341498406 
1166	 0.272404785915874 
1167	 0.271900863966498 
1168	 0.27152342795895 
1169	 0.271263251871618 
1170	 0.270979856532395 
1171	 0.270723566695097 
1172	 0.270530144442216 
1173	 0.270262716556622 
1174	 0.270037507848458 
1175	 0.269988023353232 
1176	 0.269838687325853 
1177	 0.269713335413922 
1178	 0.269639116625046 
1179	 0.269545583234257 
1180	 0.269389792356423 
1181	 0.269307674771851 
1182	 0.269350656393998 
1183	 0.269235310744297 
1184	 0.269002937325558 
1185	 0.268894666436033 
1186	 0.268791106388591 
1187	 0.268630887255183 
1188	 0.268512053359421 
1189	 0.268415622456724 
1190	 0.268190076513908 
1191	 0.268009249691347 
1192	 0.267918908954997 
1193	 0.267880331520479 
1194	 0.267868994768907 
1195	 0.267930572875065 
1196	 0.267924719881738 
1197	 0.26792033056606 
1198	 0.267919806728031 
1199	 0.267840979893588 
1200	 0.267872154478791 
1201	 0.267980822524669 
1202	 0.268084497938606 
1203	 0.268251961231388 
1204	 0.268384181828215 
1205	 0.268514712093231 
1206	 0.268643986593854 
1207	 0.268763359963913 
1208	 0.268882189488155 
1209	 0.269025100837688 
1210	 0.269091399729528 
1211	 0.269214089411788 
1212	 0.269340334711725 
1213	 0.269524039381794 
1214	 0.269769892937232 
1215	 0.269968407382303 
1216	 0.270165598398561 
1217	 0.270412589285835 
1218	 0.270675464139551 
1219	 0.270924208674338 
1220	 0.271205667568457 
1221	 0.271479171611573 
1222	 0.271715877710072 
1223	 0.271977011206513 
1224	 0.272269597976687 
1225	 0.272580117779142 
1226	 0.272956782487945 
1227	 0.273234442224295 
1228	 0.273469637307189 
1229	 0.273702193519938 
1230	 0.273969845271906 
1231	 0.274129602939623 
1232	 0.274375674938877 
1233	 0.274736549514892 
1234	 0.274954605624735 
1235	 0.275054566407756 
1236	 0.275305218003064 
1237	 0.275583568595901 
1238	 0.275853451296726 
1239	 0.276232798126754 
1240	 0.276511547797556 
1241	 0.276670235695881 
1242	 0.276942411581266 
1243	 0.27729946174005 
1244	 0.277571812601994 
1245	 0.277908184142637 
1246	 0.278125049556839 
1247	 0.278125600116698 
1248	 0.278274504217149 
1249	 0.278455789159212 
1250	 0.278641479583108 
1251	 0.278929126562144 
1252	 0.279214072085814 
1253	 0.279393226941582 
1254	 0.279507640177757 
1255	 0.279616058942104 
1256	 0.279634310253313 
1257	 0.279740931638272 
1258	 0.279874124817872 
1259	 0.279989212202087 
1260	 0.280161026679575 
1261	 0.280253571753966 
1262	 0.280272450588987 
1263	 0.280335442046262 
1264	 0.28037841064047 
1265	 0.280436592158184 
1266	 0.280504408986486 
1267	 0.280591349967512 
1268	 0.28067421260449 
1269	 0.280781689479023 
1270	 0.28094928223089 
1271	 0.281079946158661 
1272	 0.281279012165464 
1273	 0.281327681038016 
1274	 0.281384622166028 
1275	 0.281381353886792 
1276	 0.2814377271663 
1277	 0.281450534897108 
1278	 0.281553120691183 
1279	 0.28173356100866 
1280	 0.281874934202897 
1281	 0.282031709844514 
1282	 0.282192456144419 
1283	 0.282378364612548 
1284	 0.282509465265489 
1285	 0.282615306229026 
1286	 0.282737767110115 
1287	 0.282771641741074 
1288	 0.282922175117846 
1289	 0.283198111796664 
1290	 0.283394402221746 
1291	 0.283613837600084 
1292	 0.283811169818943 
1293	 0.283903186372701 
1294	 0.284083811467175 
1295	 0.284336890059015 
1296	 0.284597743342226 
1297	 0.284785333410691 
1298	 0.285017158002881 
1299	 0.285105953516051 
1300	 0.285027603851482 
1301	 0.28510553716774 
1302	 0.285199719331576 
1303	 0.285270783681344 
1304	 0.285428459563508 
1305	 0.285483441198221 
1306	 0.285430037162916 
1307	 0.285436266628861 
1308	 0.285446401599611 
1309	 0.28545004495297 
1310	 0.285467788063224 
1311	 0.285463968787404 
1312	 0.285492777846241 
1313	 0.285425875357492 
1314	 0.28532519763555 
1315	 0.285165448975752 
1316	 0.284841923179933 
1317	 0.284613748596458 
1318	 0.284387185994544 
1319	 0.284178927944997 
1320	 0.28401633400315 
1321	 0.283875796940884 
1322	 0.283726098758493 
1323	 0.283580744803126 
1324	 0.283416422725613 
1325	 0.283245758532842 
1326	 0.283085972726442 
1327	 0.282918056059819 
1328	 0.282730434084925 
1329	 0.282549012191911 
1330	 0.282357038972192 
1331	 0.282205022725108 
1332	 0.281901213644638 
1333	 0.281529346700357 
1334	 0.281134791575181 
1335	 0.280442955513269 
1336	 0.280086795735968 
1337	 0.279874719926024 
1338	 0.279731695617193 
1339	 0.279734613453696 
1340	 0.279872029380101 
1341	 0.280165367421278 
1342	 0.280547694681667 
1343	 0.28127250374582 
1344	 0.282046082635071 
1345	 0.283000514643813 
1346	 0.284141300084575 
1347	 0.286144295382091 
1348	 0.288172177908146 
1349	 0.290381729018109 
1350	 0.293396064599532 
1351	 0.296549362523241 
1352	 0.299469083573663 
1353	 0.303484082714237 
1354	 0.308389227834838 
1355	 0.314434788518342 
1356	 0.319380001681552 
1357	 0.327309192143143 
1358	 0.331878111015137 
1359	 0.344018794550413 
1360	 0.356213176538836 
1361	 0.373392701364904 
1362	 0.384543954639695 
1363	 0.402176363260429 
1364	 0.394443799481324 
1365	 0.390414705775075 
1366	 0.379133022117707 
1367	 0.376816486395543 
1368	 0.374400250382462 
1369	 0.372242151870058 
1370	 0.377513979935364 
1371	 0.376414236882219 
1372	 0.368694162657453 
1373	 0.366274744751649 
1374	 0.363737595445892 
1375	 0.366671008478886 
1376	 0.36085934438679 
1377	 0.353422800717137 
1378	 0.35172636997499 
1379	 0.34758774592188 
1380	 0.345790541560838 
1381	 0.351587009961158 
1382	 0.350743849658165 
1383	 0.346878190021398 
1384	 0.340930131620819 
1385	 0.335164288356501 
1386	 0.328425247769029 
1387	 0.317363592545745 
1388	 0.312480886554244 
1389	 0.311220277439891 
1390	 0.307890694184135 
1391	 0.306267813263553 
1392	 0.302734253257332 
1393	 0.298179738582289 
1394	 0.292879312887109 
1395	 0.285180802625229 
1396	 0.280910073064802 
1397	 0.278506475632084 
1398	 0.274550748640348 
1399	 0.27236182263229 
1400	 0.268375155448636 
1401	 0.261545657369801 
1402	 0.256467343468862 
1403	 0.252728240202821 
1404	 0.248488990605774 
1405	 0.244749368613143 
1406	 0.241705859478272 
1407	 0.236384846347112 
1408	 0.230936247865523 
1409	 0.226177549649628 
1410	 0.221651875185875 
1411	 0.218618508704158 
1412	 0.217054233137499 
1413	 0.214462371444888 
1414	 0.212407528768875 
1415	 0.209354498092147 
1416	 0.205624955933992 
1417	 0.202792221957435 
1418	 0.199932118073323 
1419	 0.197346802312806 
1420	 0.195257683199009 
1421	 0.193013539090335 
1422	 0.190439495948446 
1423	 0.188547510897731 
1424	 0.186835560318371 
1425	 0.185405009746372 
1426	 0.184229014770432 
1427	 0.183174985023259 
1428	 0.18229963669357 
1429	 0.181360678615887 
1430	 0.18044167344711 
1431	 0.179607729415963 
1432	 0.178675627524089 
1433	 0.177919204263941 
1434	 0.177139967501504 
1435	 0.176728955793959 
1436	 0.177041891335284 
1437	 0.176601957030036 
1438	 0.175979414356008 
1439	 0.175374307918286 
1440	 0.174071368729566 
1441	 0.173261680030961 
1442	 0.172829387228398 
1443	 0.172589493150878 
1444	 0.172033502714099 
1445	 0.171492464772218 
1446	 0.170951192800654 
1447	 0.170104558796884 
1448	 0.169452933912576 
1449	 0.168927661273267 
1450	 0.16824318957024 
1451	 0.167495990065043 
1452	 0.166827042696044 
1453	 0.16602769056362 
1454	 0.165567451428875 
1455	 0.165162137625377 
1456	 0.165009950408112 
1457	 0.165121929120039 
1458	 0.165128901960724 
1459	 0.165216973638362 
1460	 0.165319314647185 
1461	 0.165368409988092 
1462	 0.165572487813042 
1463	 0.165832198064542 
1464	 0.166327795259451 
1465	 0.167190472152189 
1466	 0.167764739194683 
1467	 0.16848313440758 
1468	 0.168973668501918 
1469	 0.169102668306253 
1470	 0.169341354347861 
1471	 0.169658826681346 
1472	 0.169745781553638 
1473	 0.169551210463531 
1474	 0.169550973114337 
1475	 0.169471778584851 
1476	 0.169488195239006 
1477	 0.169723491067767 
1478	 0.169818251791363 
1479	 0.169884291753052 
1480	 0.169871995895793 
1481	 0.16976318028085 
1482	 0.169689499769277 
1483	 0.169551447568665 
1484	 0.1694846130073 
1485	 0.169546283037305 
1486	 0.169473098166987 
1487	 0.169380785886719 
1488	 0.169229931728167 
1489	 0.168954315490256 
1490	 0.168727267834291 
1491	 0.168695021584981 
1492	 0.168749723943441 
1493	 0.168868198867066 
1494	 0.169013746739537 
1495	 0.169033792808371 
1496	 0.168935945992721 
1497	 0.168986562181595 
1498	 0.169009073550385 
1499	 0.16918436866238 
1500	 0.169494513561259 
1501	 0.169753402921474 
1502	 0.170059302783549 
1503	 0.170352562459685 
1504	 0.1706260993909 
1505	 0.170984510209283 
1506	 0.171416873179341 
1507	 0.17177122070087 
1508	 0.172156667622801 
1509	 0.17246079235177 
1510	 0.172655871128098 
1511	 0.172948267351316 
1512	 0.173240969050513 
1513	 0.173591591888489 
1514	 0.174016605641609 
1515	 0.174405431789009 
1516	 0.174833451735772 
1517	 0.175199274233891 
1518	 0.175509217745505 
1519	 0.175873695473284 
1520	 0.176257832664944 
1521	 0.176603847153466 
1522	 0.176966263594494 
1523	 0.177309106308842 
1524	 0.177574195781918 
1525	 0.177918182068654 
1526	 0.17833749014272 
1527	 0.178691475361303 
1528	 0.179044438184274 
1529	 0.179392343417581 
1530	 0.179670711025414 
1531	 0.180025082494521 
1532	 0.180469677592772 
1533	 0.180831614735044 
1534	 0.181203308688032 
1535	 0.181528941374465 
1536	 0.181734883925071 
1537	 0.182031292621086 
1538	 0.182367408787515 
1539	 0.182694142123472 
1540	 0.183072797024786 
1541	 0.183418244309215 
1542	 0.183705644394695 
1543	 0.184045661106639 
1544	 0.184442298030925 
1545	 0.184782534902421 
1546	 0.185121351595283 
1547	 0.185453903245182 
1548	 0.18573082435304 
1549	 0.186032145162527 
1550	 0.186348382768361 
1551	 0.186676444024874 
1552	 0.187012255141957 
1553	 0.187350958081945 
1554	 0.187715724638211 
1555	 0.188065371095204 
1556	 0.18842861822961 
1557	 0.188750754875878 
1558	 0.189050749546055 
1559	 0.189338795962796 
1560	 0.189579640181393 
1561	 0.18982859592619 
1562	 0.190043772992285 
1563	 0.190307224597087 
1564	 0.190575558360573 
1565	 0.190902050958646 
1566	 0.191216822873713 
1567	 0.191609335343091 
1568	 0.191930324383926 
1569	 0.192244996353214 
1570	 0.192517682668764 
1571	 0.1927356892055 
1572	 0.193035350302884 
1573	 0.193348896932133 
1574	 0.193624756489549 
1575	 0.193936634603476 
1576	 0.19420045278713 
1577	 0.194376689694029 
1578	 0.194652248323528 
1579	 0.194964625712643 
1580	 0.195285705084398 
1581	 0.195631083659677 
1582	 0.195982823497759 
1583	 0.196397017290312 
1584	 0.196660412654396 
1585	 0.196867842768312 
1586	 0.197093527766663 
1587	 0.19719837073238 
1588	 0.197463927453082 
1589	 0.197840686948902 
1590	 0.198134945727871 
1591	 0.198456947036886 
1592	 0.198732753161892 
1593	 0.198952727660196 
1594	 0.199220335095723 
1595	 0.199489928763546 
1596	 0.19978160693605 
1597	 0.200087152490943 
1598	 0.200420928738612 
1599	 0.200836249174312 
1600	 0.201085411243758 
1601	 0.201233660017002 
1602	 0.201531167697561 
1603	 0.2017705975535 
1604	 0.202110599145837 
1605	 0.202667166905103 
1606	 0.202995871307971 
1607	 0.203234400956326 
1608	 0.203445329939338 
1609	 0.203558883807176 
1610	 0.203740028527443 
1611	 0.203881077355091 
1612	 0.204106558278672 
1613	 0.204384684944851 
1614	 0.20466424363183 
1615	 0.205022263051419 
1616	 0.205252134536072 
1617	 0.205444298135525 
1618	 0.205634303226913 
1619	 0.205706982260055 
1620	 0.205933840768414 
1621	 0.206259491804303 
1622	 0.206496188957854 
1623	 0.206770563603453 
1624	 0.206983861830035 
1625	 0.207131304681872 
1626	 0.207301577283573 
1627	 0.207462646071749 
1628	 0.207642077875932 
1629	 0.207807231159196 
1630	 0.207983559971113 
1631	 0.208193605898537 
1632	 0.208374351725182 
1633	 0.208559902617756 
1634	 0.208689929075302 
1635	 0.208773030214031 
1636	 0.208914765362601 
1637	 0.209025544875325 
1638	 0.209196988153909 
1639	 0.209496317614649 
1640	 0.209576337450688 
1641	 0.209586952003154 
1642	 0.209550106954907 
1643	 0.209338929116381 
1644	 0.209307373358996 
1645	 0.209286238317599 
1646	 0.209371801285075 
1647	 0.209605335885056 
1648	 0.209667067967628 
1649	 0.209786181447639 
1650	 0.20970299107203 
1651	 0.209452635868204 
1652	 0.209240940590401 
1653	 0.208892817976434 
1654	 0.208732708229295 
1655	 0.208607732590539 
1656	 0.208526759731656 
1657	 0.208632106097667 
1658	 0.20842302375819 
1659	 0.208187244715326 
1660	 0.207937651602118 
1661	 0.207667746092056 
1662	 0.207710956089023 
1663	 0.207763142918587 
1664	 0.207700140924527 
1665	 0.207604751063564 
1666	 0.207325320692092 
1667	 0.207085661560553 
1668	 0.206857292905418 
1669	 0.206579800844544 
1670	 0.206396899795422 
1671	 0.20624912615323 
1672	 0.206292272214171 
1673	 0.206276730215552 
1674	 0.206086746121089 
1675	 0.205755669633613 
1676	 0.205199184323368 
1677	 0.204837792495731 
1678	 0.204689005248861 
1679	 0.204540881941912 
1680	 0.204404124631878 
1681	 0.204231814535342 
1682	 0.20393942793898 
1683	 0.203671163541142 
1684	 0.203467915064711 
1685	 0.203081142367582 
1686	 0.202651817984676 
1687	 0.202285836231885 
1688	 0.201825203482416 
1689	 0.201553497061162 
1690	 0.201327431182522 
1691	 0.20095464360523 
1692	 0.200466101376422 
1693	 0.200097742448138 
1694	 0.199809256197179 
1695	 0.1994046855209 
1696	 0.19895178784248 
1697	 0.19862334689259 
1698	 0.198194839348149 
1699	 0.197823078376132 
1700	 0.197667568075587 
1701	 0.197419226428608 
1702	 0.197162501156375 
1703	 0.196821658846578 
1704	 0.196444676134971 
1705	 0.196025465771671 
1706	 0.195436358026125 
1707	 0.194944447378098 
1708	 0.194465060714614 
1709	 0.194058993403726 
1710	 0.19379502322609 
1711	 0.193369134657708 
1712	 0.192940476770366 
1713	 0.192480652895147 
1714	 0.191833388141782 
1715	 0.19127619870337 
1716	 0.190772944684788 
1717	 0.190302981301753 
1718	 0.189809178964521 
1719	 0.189447976349412 
1720	 0.18922664002285 
1721	 0.18888137820647 
1722	 0.188545358235703 
1723	 0.188244561964811 
1724	 0.18793142959293 
1725	 0.187592294378982 
1726	 0.187242483505194 
1727	 0.186949178436646 
1728	 0.186554038031449 
1729	 0.186424692267851 
1730	 0.18644734275934 
1731	 0.186786374324273 
1732	 0.187094341550402 
1733	 0.187307877702642 
1734	 0.187570539436803 
1735	 0.187631337190035 
1736	 0.187594189077495 
1737	 0.187732738254985 
1738	 0.187856912318512 
1739	 0.187915863722762 
1740	 0.187975967783219 
1741	 0.18805734336021 
1742	 0.188251996124755 
1743	 0.188436741149107 
1744	 0.188586355172992 
1745	 0.188541074997926 
1746	 0.188320780441701 
1747	 0.188114029039693 
1748	 0.187896673399692 
1749	 0.187816440464676 
1750	 0.187727373735522 
1751	 0.187549359426406 
1752	 0.18745226657844 
1753	 0.187235523300003 
1754	 0.18702483446739 
1755	 0.186823225074238 
1756	 0.186659796372735 
1757	 0.186634947798391 
1758	 0.186547663745587 
1759	 0.186560774069137 
1760	 0.186557571848001 
1761	 0.18644471004106 
1762	 0.186477643671315 
1763	 0.186663540336153 
1764	 0.186736769326044 
1765	 0.186798548438684 
1766	 0.187009192233049 
1767	 0.187319181608725 
1768	 0.187422823429754 
1769	 0.187487280205925 
1770	 0.187535620133832 
1771	 0.187175690534188 
1772	 0.18744686927308 
1773	 0.188187609519641 
1774	 0.188712795670156 
1775	 0.189621003312076 
1776	 0.190011695244838 
1777	 0.19019445276174 
1778	 0.190462405708624 
1779	 0.190554234946189 
1780	 0.190882356535396 
1781	 0.191060214402579 
1782	 0.191136789676126 
1783	 0.191301128399523 
1784	 0.191095639741796 
1785	 0.191368739494827 
1786	 0.192005404325249 
1787	 0.192391388091715 
1788	 0.192769756017946 
1789	 0.192839372751285 
1790	 0.192965467921234 
1791	 0.193264920471004 
1792	 0.193660799877937 
1793	 0.194408534274924 
1794	 0.194852399584776 
1795	 0.195084696950759 
1796	 0.195602452922657 
1797	 0.196517443798759 
1798	 0.198268092331253 
1799	 0.200552118601069 
1800	 0.202223593021203 
1801	 0.202900138078226 
1802	 0.203936350355816 
1803	 0.205107810376622 
1804	 0.206672869037758 
1805	 0.208458843489127 
1806	 0.210954693607811 
1807	 0.21278903117836 
1808	 0.214685501486882 
1809	 0.216706892796721 
1810	 0.217800095012955 
1811	 0.21664211438715 
1812	 0.218063139806439 
1813	 0.220489645772562 
1814	 0.222615826141237 
1815	 0.227425633981204 
1816	 0.230041460182605 
1817	 0.229613618579309 
1818	 0.230992640282794 
1819	 0.232555987574103 
1820	 0.232927525445218 
1821	 0.235613819683877 
1822	 0.240932945855706 
1823	 0.245667890703812 
1824	 0.251898469020465 
1825	 0.258330539696215 
1826	 0.270845691268274 
1827	 0.277386974465799 
1828	 0.280718983756195 
1829	 0.280118358777855 
1830	 0.275961342016659 
1831	 0.243190009201304 
1832	 0.233953040420668 
1833	 0.235207565781003 
1834	 0.246125206376324 
1835	 0.324643034890874 
1836	 0.381250191231521 
1837	 0.442807162665478 
1838	 0.466973162958139 
1839	 0.450672185435413 
1840	 0.355146347233097 
1841	 0.320020130979026 
1842	 0.26420771383157 
1843	 0.243602750452192 
1844	 0.264304688340084 
1845	 0.262661618244109 
1846	 0.257798412891063 
1847	 0.248380097669387 
1848	 0.236430273116368 
1849	 0.215554392808979 
1850	 0.21827428125213 
1851	 0.227513505645652 
1852	 0.240437548799925 
1853	 0.282054257354574 
1854	 0.304224846841421 
1855	 0.325910165496915 
1856	 0.326777666082307 
1857	 0.298227348818857 
1858	 0.295747518089422 
1859	 0.291411017317178 
1860	 0.284699157792835 
1861	 0.274337044247301 
1862	 0.254868246379012 
1863	 0.257062511738158 
1864	 0.255855101682102 
1865	 0.266985290041378 
1866	 0.288635849236038 
1867	 0.374701603620115 
1868	 0.419027282663948 
1869	 0.461618078683383 
1870	 0.457009968146698 
1871	 0.416558137857281 
1872	 0.370932591715273 
1873	 0.274282480431167 
1874	 0.232895593064252 
1875	 0.21441215797008 
1876	 0.206039768588496 
1877	 0.201779321890475 
1878	 0.227423184864923 
1879	 0.214448197863794 
1880	 0.219796697065474 
1881	 0.231282348310519 
1882	 0.246636460030187 
1883	 0.251165392661466 
1884	 0.272822148902702 
1885	 0.2705326639999 
1886	 0.246057443155109 
1887	 0.233321403217683 
1888	 0.221049489576536 
1889	 0.209722284594121 
1890	 0.20435505097402 
1891	 0.206621230227094 
1892	 0.204525390756455 
1893	 0.199396151656971 
1894	 0.198033642508704 
1895	 0.204432694646443 
1896	 0.206528029679113 
1897	 0.201394028171532 
1898	 0.212762044738527 
1899	 0.239297787612466 
1900	 0.237170734781154 
1901	 0.237727394043974 
1902	 0.246533188347865 
1903	 0.242230699068379 
1904	 0.189844619148779 
1905	 0.179501518305518 
1906	 0.204042402106444 
1907	 0.2093320906818 
1908	 0.191045243500685 
1909	 0.198496030081609 
1910	 0.177611305638611 
1911	 0.147200934388366 
1912	 0.14001632386031 
1913	 0.144362448137293 
1914	 0.135968433944505 
1915	 0.126606380944036 
1916	 0.125696263183385 
1917	 0.123812565886917 
1918	 0.124344696961288 
1919	 0.126800247340428 
1920	 0.128718456983428 
1921	 0.12803791017529 
1922	 0.126956912526282 
1923	 0.125444515542309 
1924	 0.123562756690473 
1925	 0.122071133352672 
1926	 0.120049906244761 
1927	 0.117954890713117 
1928	 0.115481616640319 
1929	 0.116228822884761 
1930	 0.113476965242114 
1931	 0.110045229099718 
1932	 0.109960766826334 
1933	 0.111348342903066 
1934	 0.112221770405439 
1935	 0.11412212731757 
1936	 0.115050437048634 
1937	 0.11698423636239 
1938	 0.115724425289788 
1939	 0.112459314137335 
1940	 0.111962260006888 
1941	 0.108928633000344 
1942	 0.106035421965401 
1943	 0.105955774547695 
1944	 0.104918104416536 
1945	 0.105376861696245 
1946	 0.107078434236071 
1947	 0.106421981986115 
1948	 0.104417077231258 
1949	 0.103395231361828 
1950	 0.101643048515187 
1951	 9.88023662658496E-02 
1952	 0.100031880691122 
1953	 0.102066762251384 
1954	 0.103996326350511 
1955	 0.106504348168234 
1956	 0.105890153407582 
1957	 0.104984757912059 
1958	 0.104912312713493 
1959	 0.104467057243608 
1960	 0.10435489118511 
1961	 0.104962033854753 
1962	 0.105484211501849 
1963	 0.104786444479061 
1964	 0.104314402784554 
1965	 0.104041608716101 
1966	 0.103715097666763 
1967	 0.103946710371837 
1968	 0.104064534291848 
1969	 0.10406902255267 
1970	 0.104002620967739 
1971	 0.10407354051881 
1972	 0.104036694218282 
1973	 0.104159699374592 
1974	 0.104644602405248 
1975	 0.105042101802587 
1976	 0.105593132198094 
1977	 0.105949559569344 
1978	 0.106157117721926 
1979	 0.106899109906659 
1980	 0.107177517415478 
1981	 0.107443922450219 
1982	 0.107721285232375 
1983	 0.108130559008842 
1984	 0.10772172696447 
1985	 0.108014677196511 
1986	 0.108369095250746 
1987	 0.108515830540437 
1988	 0.109635196437046 
1989	 0.110308376163821 
1990	 0.110730764483339 
1991	 0.111277390718087 
1992	 0.111369584310575 
1993	 0.111575371527823 
1994	 0.111849296528967 
1995	 0.112014732079499 
1996	 0.112268581930125 
1997	 0.112401569780529 
1998	 0.112274582163465 
1999	 0.11229808634517 
2000	 0.112804258329461 
2001	 0.113708056194733 
2002	 0.114471941181458 
2003	 0.114651462383999 
2004	 0.11459121572011 
2005	 0.114175119437607 
2006	 0.114257005600751 
2007	 0.114384400814012 
2008	 0.115087095316323 
2009	 0.11542084136397 
2010	 0.11561040068408 
2011	 0.114962573352442 
2012	 0.114462066137686 
2013	 0.114464674057937 
2014	 0.113821224471414 
2015	 0.114384912516017 
2016	 0.115408612417004 
2017	 0.115743813512417 
2018	 0.11653746616124 
2019	 0.116749268634624 
2020	 0.116522893912419 
2021	 0.115843594698788 
2022	 0.115748916959438 
2023	 0.115488932045028 
2024	 0.115142472601526 
2025	 0.114978548309094 
2026	 0.114385872057527 
2027	 0.113798703618863 
2028	 0.113702771629113 
2029	 0.113779017181526 
2030	 0.114044406783444 
2031	 0.114303021051618 
2032	 0.114237493311586 
2033	 0.11395563449623 
2034	 0.113520777221228 
2035	 0.113176591781838 
2036	 0.112973103925447 
2037	 0.113200329832842 
2038	 0.113247178865476 
2039	 0.113172004178673 
2040	 0.113237072231352 
2041	 0.112792011268497 
2042	 0.112231910293506 
2043	 0.111872655786272 
2044	 0.111249147310565 
2045	 0.110904039921496 
2046	 0.110758022712245 
2047	 0.111062777899357 
2048	 0.111095995767714 
2049	 0.11139360381368 
2050	 0.111597230233553 
2051	 0.111172903648929 
2052	 0.110525858354395 
2053	 0.109981380737834 
2054	 0.109478822984954 
2055	 0.109406845198534 
2056	 0.110114447843014 
2057	 0.110068766750021 
2058	 0.109825970219649 
2059	 0.109645530423087 
2060	 0.109275443404574 
2061	 0.108636993064219 
2062	 0.1087575273885 
2063	 0.108822614342989 
2064	 0.109029000502837 
2065	 0.108699141992535 
2066	 0.108210797186435 
2067	 0.108555557646663 
2068	 0.108245339314804 
2069	 0.108225507371642 
2070	 0.10849885065503 
2071	 0.107810435552482 
2072	 0.107517447759657 
2073	 0.107335472646514 
2074	 0.107275696987253 
2075	 0.107329291685901 
2076	 0.108044607734041 
2077	 0.10857011908061 
2078	 0.10888930179605 
2079	 0.108887591485461 
2080	 0.108980285311711 
2081	 0.108978234593262 
2082	 0.108929037761381 
2083	 0.109295244478601 
2084	 0.109021198608095 
2085	 0.108695852854137 
2086	 0.108686853673644 
2087	 0.108688921655612 
2088	 0.108679151788901 
2089	 0.108913302184049 
2090	 0.109048967871024 
2091	 0.109012170983051 
2092	 0.109037985743775 
2093	 0.108958804280892 
2094	 0.109047806497167 
2095	 0.109521994762332 
2096	 0.10966015179308 
2097	 0.109558759816592 
2098	 0.109303940438024 
2099	 0.108831052152323 
2100	 0.108716136091126 
2101	 0.108759547185695 
2102	 0.108737412643585 
2103	 0.108847229242496 
2104	 0.108882595393885 
2105	 0.10869634026609 
2106	 0.108571005615699 
2107	 0.108547193096807 
2108	 0.108499738250964 
2109	 0.108500343435673 
2110	 0.108299206938357 
2111	 0.107863731101855 
2112	 0.108003835435571 
2113	 0.108386618160397 
2114	 0.10879243605636 
2115	 0.109336334665045 
2116	 0.10963266152061 
2117	 0.109806573456273 
2118	 0.109672245616853 
2119	 0.109572598896253 
2120	 0.10936314130608 
2121	 0.10933262354162 
2122	 0.109423075095373 
2123	 0.109511024563631 
2124	 0.109684715509466 
2125	 0.109543173220899 
2126	 0.109072284124046 
2127	 0.108539132807613 
2128	 0.108304943433614 
2129	 0.108610201244853 
2130	 0.10883668349786 
2131	 0.109244974149848 
2132	 0.109845820544429 
2133	 0.110198274244597 
2134	 0.110455531911325 
2135	 0.11068191392951 
2136	 0.11079879164237 
2137	 0.110752943450406 
2138	 0.110597975908712 
2139	 0.110249970473571 
2140	 0.110346340274968 
2141	 0.11034820519455 
2142	 0.109920392754316 
2143	 0.109984550293892 
2144	 0.109580207629081 
2145	 0.109365261142857 
2146	 0.109836777155303 
2147	 0.109763193049134 
2148	 0.109912345461453 
2149	 0.1102708120936 
2150	 0.110234931485867 
2151	 0.110080865483035 
2152	 0.109720415219041 
2153	 0.109829380078308 
2154	 0.109951159119372 
2155	 0.109960872854964 
2156	 0.110692913845236 
2157	 0.111250831548517 
2158	 0.11101994385195 
2159	 0.110949938054679 
2160	 0.110999418536897 
2161	 0.110830657532263 
2162	 0.110868706232662 
2163	 0.111252306070672 
2164	 0.111178197217278 
2165	 0.111164919021983 
2166	 0.111291980831167 
2167	 0.110827164290301 
2168	 0.110818174173916 
2169	 0.111035913441488 
2170	 0.111308384370793 
2171	 0.111678447630622 
2172	 0.112528411575547 
2173	 0.112932473436808 
2174	 0.113031198497178 
2175	 0.112888419939442 
2176	 0.112579646435566 
2177	 0.112823459766438 
2178	 0.112944663716325 
2179	 0.113343964278248 
2180	 0.114097863948519 
2181	 0.113894770713369 
2182	 0.113461236669564 
2183	 0.113511926705127 
2184	 0.113625784378845 
2185	 0.113953420956109 
2186	 0.11438143778981 
2187	 0.114626419270172 
2188	 0.114422200560191 
2189	 0.114661427528236 
2190	 0.114999400728997 
2191	 0.11550468565077 
2192	 0.116260348409474 
2193	 0.116831593913035 
2194	 0.116883210292921 
2195	 0.116751139770134 
2196	 0.116243324756202 
2197	 0.116050462508184 
2198	 0.116107574375552 
2199	 0.116079017744517 
2200	 0.116430891410737 
2201	 0.116410309421169 
2202	 0.116108719358753 
2203	 0.11638646066699 
2204	 0.116573962356705 
2205	 0.117071424991078 
2206	 0.117466515080034 
2207	 0.116771691620108 
2208	 0.116732720834749 
2209	 0.11689046223907 
2210	 0.116938527546455 
2211	 0.11687320925195 
2212	 0.117955793930321 
2213	 0.118286645885451 
2214	 0.117987501740247 
2215	 0.118153728123259 
2216	 0.117716525298149 
2217	 0.117235528488534 
2218	 0.11750306432033 
2219	 0.117553264589411 
2220	 0.117426090615468 
2221	 0.11742672119678 
2222	 0.117027175314577 
2223	 0.11657160498015 
2224	 0.11683096837574 
2225	 0.117368617464332 
2226	 0.117450158369608 
2227	 0.117581533398079 
2228	 0.117540208184319 
2229	 0.117141242851591 
2230	 0.117165144241807 
2231	 0.116993680241945 
2232	 0.116763049714574 
2233	 0.116438722974771 
2234	 0.116089239702535 
2235	 0.115146243547066 
2236	 0.114810679668607 
2237	 0.114869106010897 
2238	 0.114458943776867 
2239	 0.114597097385555 
2240	 0.114273259297281 
2241	 0.112698608942722 
2242	 0.111593444633372 
2243	 0.11089805500909 
2244	 0.110396611073215 
2245	 0.109722333774195 
2246	 0.109420128942224 
2247	 0.109584930626048 
2248	 0.108886110174558 
2249	 0.108581217527412 
2250	 0.10817963913695 
2251	 0.107110701651286 
2252	 0.106388441249196 
2253	 0.105421218383694 
2254	 0.104838756212429 
2255	 0.10458480145894 
2256	 0.10408728764983 
2257	 0.103503560367774 
2258	 0.103498725570149 
2259	 0.103456118868752 
2260	 0.103075404330992 
2261	 0.103081551765472 
2262	 0.103000708071897 
2263	 0.10242987918094 
2264	 0.101940226460113 
2265	 0.101331832525525 
2266	 0.101239475570347 
2267	 0.101348689604447 
2268	 0.10067712864179 
2269	 9.98939583694105E-02 
2270	 0.098697658116922 
2271	 9.77860745548256E-02 
2272	 9.74308928417523E-02 
2273	 9.70862667348087E-02 
2274	 9.74668771024677E-02 
2275	 9.72481650250268E-02 
2276	 9.66885977239881E-02 
2277	 9.65939415264586E-02 
2278	 9.59389175902072E-02 
2279	 9.59992085091192E-02 
2280	 9.63002005774923E-02 
2281	 0.095686129735893 
2282	 9.48049547073791E-02 
2283	 0.093488737415901 
2284	 9.30855854222943E-02 
2285	 9.35799032337314E-02 
2286	 9.35647344641052E-02 
2287	 9.40161210140869E-02 
2288	 9.44770423768203E-02 
2289	 9.35013834212019E-02 
2290	 9.20870462277558E-02 
2291	 9.15358272596582E-02 
2292	 9.10032421028877E-02 
2293	 9.04988157810506E-02 
2294	 0.090295190566159 
2295	 9.08054399579287E-02 
2296	 9.07965691081599E-02 
2297	 8.99845447425559E-02 
2298	 8.95383442111975E-02 
2299	 8.84382510400107E-02 
2300	 8.74575890905796E-02 
2301	 8.74769416545986E-02 
2302	 0.087385092253016 
2303	 8.67847232470923E-02 
2304	 8.60924564661784E-02 
2305	 8.61174509491563E-02 
2306	 8.64695788686937E-02 
2307	 8.64998954293569E-02 
2308	 8.58729212868078E-02 
2309	 8.43242617579269E-02 
2310	 0.083159599230066 
2311	 8.30565345111223E-02 
2312	 0.083636958492562 
2313	 8.47560400788197E-02 
2314	 8.48367611330926E-02 
2315	 8.43017477565649E-02 
2316	 8.40365736282331E-02 
2317	 8.38733332122295E-02 
2318	 8.51290527858419E-02 
2319	 8.57145480378477E-02 
2320	 8.61654195797429E-02 
2321	 8.64688233932635E-02 
2322	 0.085492644710364 
2323	 8.51840454223973E-02 
2324	 8.54224500379636E-02 
2325	 8.56920315903626E-02 
2326	 8.52011353607707E-02 
2327	 8.72207036129625E-02 
2328	 8.79118439252399E-02 
2329	 8.67145684836276E-02 
2330	 8.70211126268975E-02 
2331	 8.61383456673733E-02 
2332	 8.50050391798117E-02 
2333	 8.61686452585758E-02 
2334	 8.66310286377905E-02 
2335	 8.63482270287831E-02 
2336	 8.59810472676621E-02 
2337	 8.45952190964233E-02 
2338	 8.26865052536635E-02 
2339	 8.18535916298529E-02 
2340	 8.17313602163159E-02 
2341	 8.18659312103142E-02 
2342	 8.35661600367226E-02 
2343	 8.48372507891281E-02 
2344	 0.083959973122616 
2345	 8.29484054804071E-02 
2346	 8.28444446505835E-02 
2347	 8.14198648251853E-02 
2348	 8.06347599763201E-02 
2349	 8.30680116559607E-02 
2350	 8.46644064916691E-02 
2351	 8.53965042983244E-02 
2352	 8.62315596528176E-02 
2353	 8.55733387649432E-02 
2354	 8.42529879781435E-02 
2355	 8.38108676092202E-02 
2356	 8.57493045230054E-02 
2357	 8.70706427644648E-02 
2358	 8.75256029587514E-02 
2359	 8.92902022251004E-02 
2360	 8.95621731073459E-02 
2361	 8.90914687874722E-02 
2362	 9.00520612193756E-02 
2363	 8.98164417034555E-02 
2364	 8.82403360156905E-02 
2365	 8.87758293042231E-02 
2366	 8.82628559952831E-02 
2367	 8.55749428619372E-02 
2368	 8.49486966846779E-02 
2369	 8.44733215295629E-02 
2370	 0.083771549514072 
2371	 8.41642281546796E-02 
2372	 8.51563199565908E-02 
2373	 8.72967213766097E-02 
2374	 8.80114081765521E-02 
2375	 8.95010852969995E-02 
2376	 9.03273725539909E-02 
2377	 8.93337303252449E-02 
2378	 8.79851658145519E-02 
2379	 8.59788059587132E-02 
2380	 8.39262049499113E-02 
2381	 8.14749843363226E-02 
2382	 8.09757108452159E-02 
2383	 8.11269934728891E-02 
2384	 8.14806578882556E-02 
2385	 8.26309210931836E-02 
2386	 8.22136519056071E-02 
2387	 8.20088629554561E-02 
2388	 8.16754365917957E-02 
2389	 7.97953243232442E-02 
2390	 8.04905987152813E-02 
2391	 8.30906878020499E-02 
2392	 8.38891647347522E-02 
2393	 8.54327667723191E-02 
2394	 8.56323029549503E-02 
2395	 8.36350311315016E-02 
2396	 8.32687779761689E-02 
2397	 8.28724110574594E-02 
2398	 8.34733290250153E-02 
2399	 8.47719714764421E-02 
2400	 8.49597491130252E-02 
2401	 8.58707278218886E-02 
2402	 8.66991220003323E-02 
2403	 8.35824762231225E-02 
2404	 8.53240724123965E-02 
2405	 8.48222773130956E-02 
2406	 8.27437194590054E-02 
2407	 8.31900862680359E-02 
2408	 8.07130737770716E-02 
2409	 7.94028657349905E-02 
2410	 7.81794052029249E-02 
2411	 7.79960175184159E-02 
2412	 7.83921191416588E-02 
2413	 7.47670949574842E-02 
2414	 7.45123709133882E-02 
2415	 7.43348617969453E-02 
2416	 0.073198265162243 
2417	 7.66996244377125E-02 
2418	 0.079085325850887 
2419	 0.079956520016477 
2420	 7.97883187475273E-02 
2421	 7.70909277973853E-02 
2422	 0.076764153507654 
2423	 7.86961644232478E-02 
2424	 7.96648092213617E-02 
2425	 8.23650652501645E-02 
2426	 8.19531525307786E-02 
2427	 7.72986306924623E-02 
2428	 7.75622430761634E-02 
2429	 7.70763771746338E-02 
2430	 7.45800562482039E-02 
2431	 7.53884460605643E-02 
2432	 0.070197617868449 
2433	 6.63773421400281E-02 
2434	 6.56260930298891E-02 
2435	 6.86396161300111E-02 
2436	 7.01784260394947E-02 
2437	 7.07925679003475E-02 
2438	 7.15928171079026E-02 
2439	 7.15810270161981E-02 
2440	 7.18471677194742E-02 
2441	 7.45514053154518E-02 
2442	 7.59428535915842E-02 
2443	 7.54970317789482E-02 
2444	 7.66935839304635E-02 
2445	 8.09017840736413E-02 
2446	 8.02057287596204E-02 
2447	 7.39719912541123E-02 
2448	 7.38939363947434E-02 
2449	 7.38057471928091E-02 
2450	 7.16775775889575E-02 
2451	 7.89500536083077E-02 
2452	 0.074822138555725 
2453	 5.53370644344715E-02 
2454	 5.06932410678551E-02 
2455	 4.74647208462496E-02 
2456	 4.82723650194162E-02 
2457	 6.43042933697929E-02 
2458	 6.70486024018717E-02 
2459	 0.061192638710916 
2460	 6.07769108790445E-02 
2461	 5.74371475065172E-02 
2462	 5.76614419926236E-02 
2463	 6.18267488021981E-02 
2464	 6.64974682410999E-02 
2465	 7.52481203684542E-02 
2466	 7.79275341491972E-02 
2467	 8.23854136168211E-02 
2468	 8.04378531415833E-02 
2469	 0.063911064091291 
2470	 5.82223624561905E-02 
2471	 5.60285590485332E-02 
2472	 5.41621500371857E-02 
2473	 5.56470105381727E-02 
2474	 6.24177444269568E-02 
2475	 7.71169360300315E-02 
2476	 7.54011035037989E-02 
2477	 7.38044355893035E-02 
2478	 6.84413736918425E-02 
2479	 3.82437878765696E-02 
2480	 2.90914082851557E-02 
2481	 3.60084744757286E-02 
2482	 4.22519656568448E-02 
2483	 5.43235836343115E-02 
2484	 5.89895215688237E-02 
2485	 6.46578576796134E-02 
2486	 7.06169634924362E-02 
2487	 0.102386565523287 
2488	 0.14015567378912 
2489	 0.161585084364622 
2490	 0.16092707598268 
2491	 0.133449212754174 
2492	 9.79887797572631E-02 
2493	 4.52267122108808E-02 
2494	 2.14528863534102E-02 
2495	 3.09576413930673E-02 
2496	 7.58523936672685E-03 
2497	-4.57189705801314E-03 
2498	 2.37701245409679E-02 
2499	 3.89566137467294E-02 
2500	 0.042735590643496 
