Wavelength	ref00114.asd
350	 1.60255800754172 
351	 1.60517815141419 
352	 1.63769926052409 
353	 1.58124065601889 
354	 1.61860314568801 
355	 1.65561229849507 
356	 1.61964236354918 
357	 1.5893629422403 
358	 1.61123677248841 
359	 1.62760445605463 
360	 1.58239098875539 
361	 1.57820824316286 
362	 1.57796517472445 
363	 1.57800302514034 
364	 1.59337570663705 
365	 1.57857039105857 
366	 1.57045112815349 
367	 1.5823983462923 
368	 1.58384470144789 
369	 1.56738258171054 
370	 1.55713941241057 
371	 1.56580953890935 
372	 1.55100481610958 
373	 1.53083754360297 
374	 1.5210047797622 
375	 1.53002323048556 
376	 1.52581082321912 
377	 1.50860900925334 
378	 1.49450674396872 
379	 1.51164673700361 
380	 1.49911631530764 
381	 1.47582978018457 
382	 1.46788067849343 
383	 1.47552912327046 
384	 1.47319304354114 
385	 1.4646140069753 
386	 1.46322724817163 
387	 1.45282079322927 
388	 1.43127815329328 
389	 1.41381532431259 
390	 1.42598453833241 
391	 1.41234558168453 
392	 1.40206391790792 
393	 1.41188146063746 
394	 1.40008984251768 
395	 1.3836431989323 
396	 1.37086326810153 
397	 1.36403674521627 
398	 1.35039044175365 
399	 1.34250133600437 
400	 1.33788357512797 
401	 1.3236016294595 
402	 1.31764600844679 
403	 1.31289912427847 
404	 1.30407818340442 
405	 1.29585672388888 
406	 1.28623288068978 
407	 1.27692158438642 
408	 1.26967274304295 
409	 1.26033797606268 
410	 1.25486371382484 
411	 1.25069188198285 
412	 1.23900940198804 
413	 1.22959026185723 
414	 1.22280986018291 
415	 1.21649509297922 
416	 1.20617991920556 
417	 1.19756562654061 
418	 1.19114830500231 
419	 1.18511903451954 
420	 1.17496323872166 
421	 1.16855758552515 
422	 1.16582844863321 
423	 1.15991039152327 
424	 1.15299033879796 
425	 1.14466315675662 
426	 1.13669980359597 
427	 1.13668241630481 
428	 1.13360834473701 
429	 1.12697128951761 
430	 1.11980156553063 
431	 1.11177819990612 
432	 1.10646209019871 
433	 1.10313738164456 
434	 1.09776937039409 
435	 1.09274201099909 
436	 1.08987333989558 
437	 1.08830488403215 
438	 1.08190824551435 
439	 1.07636441497723 
440	 1.07066808538817 
441	 1.06312636736568 
442	 1.06028657782218 
443	 1.05654997459015 
444	 1.05089627545972 
445	 1.04692998170355 
446	 1.04358859963293 
447	 1.04049578468495 
448	 1.0372543245085 
449	 1.03335162335133 
450	 1.02854894192185 
451	 1.02384674484098 
452	 1.02051770174915 
453	 1.01826088292607 
454	 1.01546609631421 
455	 1.01183556393561 
456	 1.00867759378992 
457	 1.00452780357556 
458	 1.00032719520732 
459	 0.996913295662821 
460	 0.993317573639231 
461	 0.989705723942562 
462	 0.986676575025434 
463	 0.984778429403339 
464	 0.982188748708628 
465	 0.979032989856185 
466	 0.975723274020864 
467	 0.972692579014196 
468	 0.970446593281053 
469	 0.967708121844437 
470	 0.963574651407142 
471	 0.960429963999758 
472	 0.957451019880688 
473	 0.954476853427112 
474	 0.951736554899276 
475	 0.948162261575997 
476	 0.94537073094086 
477	 0.943437662536192 
478	 0.9388595867865 
479	 0.935624899398238 
480	 0.933578927278807 
481	 0.93132418366697 
482	 0.928662658704739 
483	 0.926975145625397 
484	 0.925659381566054 
485	 0.92233928895009 
486	 0.920646675146226 
487	 0.918296532145063 
488	 0.913992526077468 
489	 0.911819253306486 
490	 0.909147433887352 
491	 0.906179297297104 
492	 0.904027977619893 
493	 0.902164547074943 
494	 0.899720684526166 
495	 0.896748085175701 
496	 0.89439655505736 
497	 0.891981700261871 
498	 0.889942882111385 
499	 0.888535039887655 
500	 0.886699478861518 
501	 0.883874242982791 
502	 0.880543356069335 
503	 0.877711060405411 
504	 0.874851826336885 
505	 0.871050680770328 
506	 0.867283752771325 
507	 0.867693173393887 
508	 0.865790429589362 
509	 0.862184797285252 
510	 0.859218262137349 
511	 0.856402644311435 
512	 0.854289114228478 
513	 0.852318614956512 
514	 0.849151423480283 
515	 0.846977678121952 
516	 0.846253963531118 
517	 0.845891113288274 
518	 0.841875789245528 
519	 0.838187159236054 
520	 0.835276128016266 
521	 0.832223361543382 
522	 0.828743179761716 
523	 0.826788051985085 
524	 0.826331899927562 
525	 0.825123150395544 
526	 0.822341996500479 
527	 0.820169352497849 
528	 0.819887464200849 
529	 0.818080165277919 
530	 0.815689421870757 
531	 0.813580515800934 
532	 0.812400124712316 
533	 0.811087140839021 
534	 0.810620594129943 
535	 0.810576192440834 
536	 0.807866928565736 
537	 0.805921361062509 
538	 0.80515185005618 
539	 0.80479749481885 
540	 0.803323273948212 
541	 0.802545455980631 
542	 0.802027960855972 
543	 0.799588033519823 
544	 0.797872135232338 
545	 0.796404250384987 
546	 0.794909935376227 
547	 0.794958234654133 
548	 0.794365000878666 
549	 0.793510926267021 
550	 0.793469928800127 
551	 0.792516403046956 
552	 0.791089611175476 
553	 0.789951705405492 
554	 0.79001945790696 
555	 0.789135894077329 
556	 0.787656311617252 
557	 0.786505214744788 
558	 0.786393890113168 
559	 0.786061537579723 
560	 0.785551673849373 
561	 0.785695071153475 
562	 0.786107680077563 
563	 0.786044788606212 
564	 0.785340276756453 
565	 0.78484334831433 
566	 0.784933171353744 
567	 0.78486062893809 
568	 0.783926485955581 
569	 0.783684937535044 
570	 0.78355411595001 
571	 0.783088249280756 
572	 0.782128162935625 
573	 0.781846520385531 
574	 0.781606433258151 
575	 0.780774532012197 
576	 0.779524873222063 
577	 0.77847524188188 
578	 0.778028027840207 
579	 0.77820334614951 
580	 0.77759391200939 
581	 0.776096697584889 
582	 0.774250551703494 
583	 0.773210824556004 
584	 0.771586699962957 
585	 0.770247265313846 
586	 0.769934534039938 
587	 0.768693030305941 
588	 0.767491115603032 
589	 0.76654694988919 
590	 0.76554305806055 
591	 0.764758242662189 
592	 0.763799637533993 
593	 0.762539314598664 
594	 0.761474531825508 
595	 0.761069647898306 
596	 0.760726213741674 
597	 0.759638765544567 
598	 0.758047564512128 
599	 0.756380892240576 
600	 0.754975621018758 
601	 0.754000106912603 
602	 0.751739222060602 
603	 0.749859714007645 
604	 0.74943712852123 
605	 0.748259691851871 
606	 0.747138177621535 
607	 0.746084554663312 
608	 0.744826072013328 
609	 0.743786925672536 
610	 0.74251389074985 
611	 0.741028913782945 
612	 0.740095187428839 
613	 0.739377111365496 
614	 0.738505281111113 
615	 0.737301765989647 
616	 0.736390165738467 
617	 0.734997484690488 
618	 0.733272153748926 
619	 0.731939069433906 
620	 0.730560493519491 
621	 0.729499508879107 
622	 0.728582450382618 
623	 0.726333596606091 
624	 0.724814551337081 
625	 0.723713901288244 
626	 0.722062014010887 
627	 0.720208042233828 
628	 0.718511823505079 
629	 0.717153087691617 
630	 0.716114166000351 
631	 0.715012235846361 
632	 0.71325007509322 
633	 0.710916527975349 
634	 0.709842354326092 
635	 0.708768575605056 
636	 0.707530530664412 
637	 0.7064705612533 
638	 0.70596265018542 
639	 0.704829195825867 
640	 0.703028819685443 
641	 0.702128180935337 
642	 0.701467950801501 
643	 0.70052161440664 
644	 0.69900143321669 
645	 0.697307931369704 
646	 0.695580285387149 
647	 0.694065028881455 
648	 0.693028309823221 
649	 0.692463726389076 
650	 0.691400273908586 
651	 0.689787319929953 
652	 0.689132885314778 
653	 0.688111814741472 
654	 0.68671580180196 
655	 0.685395912695085 
656	 0.685038596380921 
657	 0.684962339371201 
658	 0.684304316220228 
659	 0.682429849431006 
660	 0.681297611502859 
661	 0.679782263955174 
662	 0.677600691703378 
663	 0.676805818797672 
664	 0.676143865416181 
665	 0.67487478143303 
666	 0.672892355412243 
667	 0.672375004287365 
668	 0.671277514529386 
669	 0.669420247753391 
670	 0.668396529153357 
671	 0.667379665037087 
672	 0.666272080778068 
673	 0.665064323913988 
674	 0.663589303981804 
675	 0.662382472171848 
676	 0.661071354092785 
677	 0.659145034772354 
678	 0.657403563324913 
679	 0.656130719421762 
680	 0.654934785768896 
681	 0.652860868441617 
682	 0.65152371952388 
683	 0.649943611551102 
684	 0.647451839701527 
685	 0.64545031664679 
686	 0.643556288405747 
687	 0.641646078364703 
688	 0.639955805444926 
689	 0.639060424892978 
690	 0.637076096223774 
691	 0.634156451649633 
692	 0.6326172273582 
693	 0.629934860949483 
694	 0.627709747865136 
695	 0.626930014392658 
696	 0.624723298514262 
697	 0.623375789737916 
698	 0.62246050485108 
699	 0.620609882104784 
700	 0.618663628701622 
701	 0.616665394637345 
702	 0.614724981251123 
703	 0.613065788932333 
704	 0.611577827338365 
705	 0.610256317922425 
706	 0.60899734223887 
707	 0.607401609143144 
708	 0.605903722859071 
709	 0.604289826797848 
710	 0.602262317071721 
711	 0.600961886949513 
712	 0.59938307556474 
713	 0.597312217254518 
714	 0.595582853843516 
715	 0.593444411569583 
716	 0.590748032033783 
717	 0.587723025369571 
718	 0.585605417892747 
719	 0.583897751812824 
720	 0.58280977285057 
721	 0.582422670201565 
722	 0.581007597272086 
723	 0.579269516579744 
724	 0.57752307841853 
725	 0.575740073452144 
726	 0.573790177424019 
727	 0.571863068412456 
728	 0.570339694564667 
729	 0.57024857561546 
730	 0.569279061590404 
731	 0.567750576308575 
732	 0.566836855882731 
733	 0.566258725110976 
734	 0.565414604779245 
735	 0.564151921810437 
736	 0.562779988115596 
737	 0.561983824912362 
738	 0.561110519518217 
739	 0.559831388872525 
740	 0.559012080819904 
741	 0.558371420348297 
742	 0.557625972254867 
743	 0.55666706732194 
744	 0.556240171249058 
745	 0.555262046824026 
746	 0.553915293115788 
747	 0.553263869298928 
748	 0.552457650337525 
749	 0.551417676809992 
750	 0.550328376062113 
751	 0.549626141510187 
752	 0.548956903054263 
753	 0.548418641125688 
754	 0.5479794987631 
755	 0.546707734423203 
756	 0.545660951588316 
757	 0.544542924629335 
758	 0.542557350942358 
759	 0.542350668413566 
760	 0.543459870516973 
761	 0.544510795482401 
762	 0.5429889283167 
763	 0.542080102041428 
764	 0.541760500020769 
765	 0.541360376406716 
766	 0.540247512886072 
767	 0.538350729747635 
768	 0.536881516124208 
769	 0.536752539475463 
770	 0.535855252768705 
771	 0.534669378149602 
772	 0.533747185964825 
773	 0.533476117317863 
774	 0.532607516345862 
775	 0.531945368447977 
776	 0.531769815955951 
777	 0.530970118297142 
778	 0.529903463678744 
779	 0.52906067174021 
780	 0.528686490109942 
781	 0.527991227893004 
782	 0.527521006746677 
783	 0.527048259826849 
784	 0.526046045730219 
785	 0.524976353054834 
786	 0.52396919068022 
787	 0.523145052894197 
788	 0.522618695278413 
789	 0.521995000927901 
790	 0.521249098353703 
791	 0.520390969054549 
792	 0.519281134440386 
793	 0.519094909158256 
794	 0.518944258681794 
795	 0.517818701156173 
796	 0.517050144888419 
797	 0.51635664056161 
798	 0.515535027408245 
799	 0.514552170806232 
800	 0.514166957336423 
801	 0.513605864410807 
802	 0.512693128777656 
803	 0.512067703666361 
804	 0.511618397058069 
805	 0.510966314626274 
806	 0.510059740267198 
807	 0.509623614455219 
808	 0.509008201157317 
809	 0.508276935873476 
810	 0.507546235808614 
811	 0.506213356426009 
812	 0.504950657592243 
813	 0.50384063837833 
814	 0.502649129302599 
815	 0.501552263045292 
816	 0.50105686998606 
817	 0.500895194410171 
818	 0.50005951959258 
819	 0.49959692478355 
820	 0.498924296744733 
821	 0.49798022746364 
822	 0.498004366017195 
823	 0.4974604258385 
824	 0.496843569975157 
825	 0.496699700791872 
826	 0.49591031007586 
827	 0.495653644735129 
828	 0.495602582006457 
829	 0.494989658398092 
830	 0.494356473060215 
831	 0.49373472276228 
832	 0.493164557562408 
833	 0.492697803267012 
834	 0.492354072926947 
835	 0.491616937085412 
836	 0.490918674574372 
837	 0.491693257174388 
838	 0.491746028809483 
839	 0.491066432044756 
840	 0.490173019331543 
841	 0.489688384431987 
842	 0.489327675108774 
843	 0.488910369676132 
844	 0.488329252861292 
845	 0.48762966971581 
846	 0.486805381120498 
847	 0.486439925917386 
848	 0.486905505428877 
849	 0.486192964256805 
850	 0.485714059187059 
851	 0.485326744356895 
852	 0.483972861580847 
853	 0.484172137176955 
854	 0.484372826712785 
855	 0.483733529682079 
856	 0.482770462712551 
857	 0.481340927147 
858	 0.480399197260041 
859	 0.48034838545091 
860	 0.480568636026771 
861	 0.480042614662377 
862	 0.479643211673701 
863	 0.479792653102724 
864	 0.478357519688147 
865	 0.478105669615098 
866	 0.478966385382357 
867	 0.479470938790366 
868	 0.477217160524691 
869	 0.475269222017893 
870	 0.474556167865174 
871	 0.474649487487526 
872	 0.474838220383057 
873	 0.474103907295688 
874	 0.47296538232901 
875	 0.472780922352574 
876	 0.472342797805327 
877	 0.471674643666274 
878	 0.4711537457008 
879	 0.471276958408437 
880	 0.471289287182443 
881	 0.470786316002616 
882	 0.469996308708418 
883	 0.469824049109879 
884	 0.469359230089291 
885	 0.468526047829598 
886	 0.467777301590507 
887	 0.468163775239037 
888	 0.467555256950422 
889	 0.46658855964177 
890	 0.466046111922751 
891	 0.465140949609422 
892	 0.464580808501352 
893	 0.463848111706436 
894	 0.462585409094711 
895	 0.462429187486578 
896	 0.462206382167602 
897	 0.461667093150793 
898	 0.461114999630199 
899	 0.461288268762575 
900	 0.460971795039121 
901	 0.459605000045712 
902	 0.457690171212062 
903	 0.45861035276973 
904	 0.457482004280636 
905	 0.455389633722482 
906	 0.456416601493521 
907	 0.456786709701888 
908	 0.455731757944208 
909	 0.454590096719879 
910	 0.455554346944311 
911	 0.454259201751036 
912	 0.453668980331566 
913	 0.453844669574691 
914	 0.451945855139129 
915	 0.452652802207708 
916	 0.452692318169376 
917	 0.451762063295801 
918	 0.453401538525067 
919	 0.452196596282529 
920	 0.451047871203931 
921	 0.45128769630147 
922	 0.450764447722932 
923	 0.450851790386936 
924	 0.4508446256377 
925	 0.450031777945352 
926	 0.448311706024229 
927	 0.446406338386151 
928	 0.446037616257377 
929	 0.447147780557167 
930	 0.446038594002078 
931	 0.447150860873969 
932	 0.44625259278527 
933	 0.441595329170906 
934	 0.442033699512273 
935	 0.442667420725879 
936	 0.441718691094183 
937	 0.439150288330214 
938	 0.43636177293389 
939	 0.435778367518375 
940	 0.437557342412034 
941	 0.440048047403709 
942	 0.439616156917696 
943	 0.441757325445706 
944	 0.442423339784309 
945	 0.43929973619606 
946	 0.43902950704409 
947	 0.438167030527069 
948	 0.438001835453219 
949	 0.439454233546394 
950	 0.440405344723014 
951	 0.439761216390197 
952	 0.438994763859568 
953	 0.439414891687407 
954	 0.440393330893458 
955	 0.442671370941798 
956	 0.444646595489583 
957	 0.444503084534439 
958	 0.441352549421693 
959	 0.439118763983017 
960	 0.44092498366717 
961	 0.445213404731018 
962	 0.443408328719509 
963	 0.443781678491765 
964	 0.445532475348007 
965	 0.446114920732029 
966	 0.444022030529382 
967	 0.445951843762874 
968	 0.446612870263284 
969	 0.443720857091084 
970	 0.443461873404561 
971	 0.448374414950882 
972	 0.450493609898928 
973	 0.44753394588688 
974	 0.447878328252712 
975	 0.443305632511611 
976	 0.444137462013415 
977	 0.45005811473535 
978	 0.445350841584363 
979	 0.446497168494702 
980	 0.447766337071002 
981	 0.44622695320959 
982	 0.445569644829783 
983	 0.444735417066438 
984	 0.443247529481937 
985	 0.444225735014366 
986	 0.45123424725324 
987	 0.44697795483118 
988	 0.44301112858766 
989	 0.444433950051821 
990	 0.447943341636486 
991	 0.449824094036475 
992	 0.447805468841316 
993	 0.445190293524345 
994	 0.446766539776224 
995	 0.446613080676589 
996	 0.445643983919815 
997	 0.445493912241384 
998	 0.446540225889628 
999	 0.443278617042074 
1000	 0.443006282615292 
1001	 0.468554775473028 
1002	 0.467962357448462 
1003	 0.467692788542964 
1004	 0.467858011937814 
1005	 0.467673172242113 
1006	 0.467217398977044 
1007	 0.46711969121315 
1008	 0.467108794472362 
1009	 0.466958391251086 
1010	 0.466964421476962 
1011	 0.467165004085807 
1012	 0.466641776315456 
1013	 0.466023305642596 
1014	 0.465861950117148 
1015	 0.465617965050994 
1016	 0.465235089026094 
1017	 0.465046189596001 
1018	 0.465001707885259 
1019	 0.464884063092758 
1020	 0.464923428741172 
1021	 0.465548571042115 
1022	 0.465563324328923 
1023	 0.465387133891874 
1024	 0.464715530407027 
1025	 0.464259312019303 
1026	 0.464024591415143 
1027	 0.463853967996082 
1028	 0.464158973134882 
1029	 0.463841094387603 
1030	 0.462983702003442 
1031	 0.462408141570364 
1032	 0.461858603094121 
1033	 0.461624579591929 
1034	 0.462207404974872 
1035	 0.461996023137529 
1036	 0.461321626188644 
1037	 0.460940900527409 
1038	 0.460322967592457 
1039	 0.45999463848865 
1040	 0.45989182471124 
1041	 0.459755228505194 
1042	 0.459553659660258 
1043	 0.459384733791319 
1044	 0.459313410696009 
1045	 0.459539988767098 
1046	 0.459194791324073 
1047	 0.458540912868553 
1048	 0.458324957005779 
1049	 0.45778879868632 
1050	 0.457604361630948 
1051	 0.457795201899477 
1052	 0.458294124517508 
1053	 0.45811425840468 
1054	 0.45805402077151 
1055	 0.458331461593606 
1056	 0.458351191200399 
1057	 0.458382044711931 
1058	 0.4588666748683 
1059	 0.459259966919899 
1060	 0.459315243218688 
1061	 0.459602877918397 
1062	 0.459871488242476 
1063	 0.459881588621425 
1064	 0.460109696447317 
1065	 0.460314220887541 
1066	 0.460616940046406 
1067	 0.460745374100865 
1068	 0.460640018141048 
1069	 0.460573839915745 
1070	 0.46085067106867 
1071	 0.46104787303459 
1072	 0.461096987559132 
1073	 0.461257845940081 
1074	 0.461160708530545 
1075	 0.461031528281748 
1076	 0.461224528625874 
1077	 0.461425652277064 
1078	 0.46160829817889 
1079	 0.461599894237066 
1080	 0.461670362106874 
1081	 0.461683900692985 
1082	 0.461602563777262 
1083	 0.461419760052247 
1084	 0.461784302245129 
1085	 0.462061749321898 
1086	 0.462217810300087 
1087	 0.462496908987933 
1088	 0.462656289726307 
1089	 0.462489610726884 
1090	 0.462153726397062 
1091	 0.462184654759587 
1092	 0.461917097776445 
1093	 0.461400556324811 
1094	 0.461215553022641 
1095	 0.461064874990233 
1096	 0.461019813309294 
1097	 0.461136318872888 
1098	 0.461099814750377 
1099	 0.461188150626088 
1100	 0.461064666125037 
1101	 0.460703525478778 
1102	 0.46065131142124 
1103	 0.46071159145657 
1104	 0.460385749639054 
1105	 0.459914732861112 
1106	 0.45963107189524 
1107	 0.459194029847939 
1108	 0.458659173949547 
1109	 0.45813677801927 
1110	 0.457303872166758 
1111	 0.456585954865394 
1112	 0.455664871539632 
1113	 0.45502959309946 
1114	 0.454856368792559 
1115	 0.454175151324219 
1116	 0.453226471646138 
1117	 0.452315853759602 
1118	 0.451443865655364 
1119	 0.450033879444742 
1120	 0.449006420175918 
1121	 0.448600476330465 
1122	 0.448215542866845 
1123	 0.448106044902962 
1124	 0.447858309172151 
1125	 0.447664221073809 
1126	 0.447946103144813 
1127	 0.448303935352006 
1128	 0.448967227216303 
1129	 0.450249660577244 
1130	 0.451116756050126 
1131	 0.452020536661505 
1132	 0.452659070706067 
1133	 0.452931806208795 
1134	 0.453704870095083 
1135	 0.454614245809426 
1136	 0.4549965848553 
1137	 0.45623768180244 
1138	 0.457257840601066 
1139	 0.457366621002044 
1140	 0.45775033592722 
1141	 0.45767726267065 
1142	 0.457564512332646 
1143	 0.457861820476774 
1144	 0.458461293773977 
1145	 0.45906767537044 
1146	 0.459978614036471 
1147	 0.460672670977227 
1148	 0.461171723266622 
1149	 0.46205390764337 
1150	 0.463126240525167 
1151	 0.464008596226458 
1152	 0.46497795270401 
1153	 0.46586605223553 
1154	 0.466710985709962 
1155	 0.467672119747755 
1156	 0.468721290812436 
1157	 0.469635308321986 
1158	 0.470359826277817 
1159	 0.470675836599714 
1160	 0.471212830972906 
1161	 0.471818002479374 
1162	 0.472378036524039 
1163	 0.473017389692031 
1164	 0.473451086479476 
1165	 0.473752755408957 
1166	 0.474026781396613 
1167	 0.474201525906836 
1168	 0.474416606979536 
1169	 0.474728003195838 
1170	 0.474801004096317 
1171	 0.474874578533752 
1172	 0.475017000506037 
1173	 0.474774504963739 
1174	 0.474467919872408 
1175	 0.474352059012528 
1176	 0.474058690960393 
1177	 0.473915636401875 
1178	 0.474060783876443 
1179	 0.473904050742652 
1180	 0.473515471260394 
1181	 0.473399896010228 
1182	 0.473168136045446 
1183	 0.473196233518304 
1184	 0.473632960892283 
1185	 0.473748572741605 
1186	 0.473928909959165 
1187	 0.47398391072297 
1188	 0.473871862083167 
1189	 0.473670744362737 
1190	 0.473527438120658 
1191	 0.473318217272977 
1192	 0.473199585691942 
1193	 0.473081075590908 
1194	 0.473074265411152 
1195	 0.473157889690583 
1196	 0.473268122715469 
1197	 0.473568811298215 
1198	 0.473565949257901 
1199	 0.473454318861894 
1200	 0.473380236665206 
1201	 0.473117690900208 
1202	 0.472956070725704 
1203	 0.472922708812802 
1204	 0.472792271644544 
1205	 0.472530465181546 
1206	 0.472383888407327 
1207	 0.472309129428549 
1208	 0.472207019778017 
1209	 0.472058744880556 
1210	 0.472025927314033 
1211	 0.472218210295244 
1212	 0.472296394442714 
1213	 0.472185340898633 
1214	 0.471975220247139 
1215	 0.471937138262616 
1216	 0.471715390625564 
1217	 0.471738994320888 
1218	 0.47224069914804 
1219	 0.472246004208773 
1220	 0.471962839544466 
1221	 0.471804554593058 
1222	 0.471457726024631 
1223	 0.471268164073411 
1224	 0.471291890163404 
1225	 0.471187323838598 
1226	 0.47101598449812 
1227	 0.470869752488921 
1228	 0.470778120246923 
1229	 0.470461718472016 
1230	 0.470315616428802 
1231	 0.47046507962344 
1232	 0.470477317724832 
1233	 0.470682278924725 
1234	 0.470506832600977 
1235	 0.470082537492846 
1236	 0.469844753386709 
1237	 0.469451013548604 
1238	 0.469221878910927 
1239	 0.469270042857317 
1240	 0.469053599277458 
1241	 0.468567904777164 
1242	 0.468404780926932 
1243	 0.468389379754949 
1244	 0.468239971730101 
1245	 0.468337923737146 
1246	 0.468190200168864 
1247	 0.467655040632665 
1248	 0.46733572700265 
1249	 0.467021789999089 
1250	 0.466768133519056 
1251	 0.466618727800895 
1252	 0.466573056038141 
1253	 0.466315837406419 
1254	 0.466028207907972 
1255	 0.465647169189837 
1256	 0.465036084499502 
1257	 0.464632850292139 
1258	 0.464306735382363 
1259	 0.463905559089033 
1260	 0.463468354974596 
1261	 0.463162887377626 
1262	 0.462901275340096 
1263	 0.462594517428676 
1264	 0.462350719115655 
1265	 0.462175526746015 
1266	 0.461925475687268 
1267	 0.461783820703264 
1268	 0.461889805050297 
1269	 0.461863778317444 
1270	 0.46171666853721 
1271	 0.461692727231321 
1272	 0.461546953367921 
1273	 0.461717867668942 
1274	 0.461884450721615 
1275	 0.462218047307022 
1276	 0.462410608654952 
1277	 0.462588763217733 
1278	 0.46286669600621 
1279	 0.462999421852145 
1280	 0.463525335862167 
1281	 0.464527537844998 
1282	 0.465026130908961 
1283	 0.465495423736833 
1284	 0.465923326703021 
1285	 0.465967241980267 
1286	 0.466279080207948 
1287	 0.466832777678999 
1288	 0.467264899790282 
1289	 0.467716135124934 
1290	 0.468070794753383 
1291	 0.468277553323124 
1292	 0.468628048927288 
1293	 0.469071556878643 
1294	 0.469391107863028 
1295	 0.469904874229532 
1296	 0.470124781912799 
1297	 0.470270154654429 
1298	 0.470054314212524 
1299	 0.470371667664658 
1300	 0.470879750238024 
1301	 0.471203470483751 
1302	 0.47187676126142 
1303	 0.472031439161212 
1304	 0.471621866567641 
1305	 0.471684748856743 
1306	 0.471771627700013 
1307	 0.47191926127258 
1308	 0.47245570874057 
1309	 0.472577258932932 
1310	 0.472250707343011 
1311	 0.472369433383288 
1312	 0.472618538802079 
1313	 0.47277933472827 
1314	 0.473314389856118 
1315	 0.473550730318173 
1316	 0.473399155028672 
1317	 0.473384685426573 
1318	 0.473425895783005 
1319	 0.47337649639409 
1320	 0.473264914184789 
1321	 0.473136190506151 
1322	 0.473128873861531 
1323	 0.473117483667882 
1324	 0.473130381027876 
1325	 0.473381880159019 
1326	 0.473255335935752 
1327	 0.472783490019648 
1328	 0.472664108416391 
1329	 0.472531360382173 
1330	 0.472473764395547 
1331	 0.472835179899718 
1332	 0.472715463963092 
1333	 0.472045680170594 
1334	 0.471952443332113 
1335	 0.472048200027342 
1336	 0.472058248522039 
1337	 0.472548767181083 
1338	 0.47264487111922 
1339	 0.472392244012272 
1340	 0.47209772864473 
1341	 0.471739209683734 
1342	 0.4711471175829 
1343	 0.469728581594837 
1344	 0.468878933243077 
1345	 0.468222102877631 
1346	 0.467656765567934 
1347	 0.46658638998313 
1348	 0.464964386618667 
1349	 0.463056472153324 
1350	 0.458774557492147 
1351	 0.455821309517868 
1352	 0.4546485371541 
1353	 0.451137776546888 
1354	 0.445900527667375 
1355	 0.440595275445664 
1356	 0.434190900993275 
1357	 0.427237723076934 
1358	 0.428932126889692 
1359	 0.425453772588194 
1360	 0.424602365219354 
1361	 0.421936562729494 
1362	 0.421259693228491 
1363	 0.422963036296978 
1364	 0.433565838850139 
1365	 0.437237638846402 
1366	 0.440295464679715 
1367	 0.438131213465955 
1368	 0.427766991911561 
1369	 0.424716394426887 
1370	 0.425758168568108 
1371	 0.422830146268719 
1372	 0.414698235095472 
1373	 0.414880638113965 
1374	 0.420429067498596 
1375	 0.419822869402088 
1376	 0.423546880238658 
1377	 0.431447480715017 
1378	 0.430642320644627 
1379	 0.422533876442505 
1380	 0.422297750352307 
1381	 0.42176289832827 
1382	 0.421956547688517 
1383	 0.427900425064133 
1384	 0.42783611686227 
1385	 0.420992985497257 
1386	 0.422899037473614 
1387	 0.430395611389275 
1388	 0.429586004795588 
1389	 0.426136348667007 
1390	 0.428481561686649 
1391	 0.427048089304809 
1392	 0.429594007754731 
1393	 0.443213736441991 
1394	 0.445957476394161 
1395	 0.438972369030624 
1396	 0.441913454246562 
1397	 0.446153978359321 
1398	 0.449867694258901 
1399	 0.460432252307135 
1400	 0.466739370490515 
1401	 0.468684395299733 
1402	 0.471482550649962 
1403	 0.473909251277011 
1404	 0.476387183613388 
1405	 0.47613758105338 
1406	 0.47981108991878 
1407	 0.486979625744935 
1408	 0.490967583724953 
1409	 0.494152833657626 
1410	 0.49857338207463 
1411	 0.50122696311598 
1412	 0.501226762337118 
1413	 0.504542171307346 
1414	 0.509303071030689 
1415	 0.512215069554315 
1416	 0.514790625378196 
1417	 0.518239922194394 
1418	 0.521212535773679 
1419	 0.524489729837866 
1420	 0.52955051378788 
1421	 0.531877233947382 
1422	 0.532301693276752 
1423	 0.534282779757759 
1424	 0.536131687391326 
1425	 0.53779234600055 
1426	 0.540233780193047 
1427	 0.542317785015799 
1428	 0.544158182152247 
1429	 0.54554748223811 
1430	 0.547048605678546 
1431	 0.548206844922078 
1432	 0.548572810288624 
1433	 0.549242080038879 
1434	 0.55025553584381 
1435	 0.550963485044684 
1436	 0.551138787650742 
1437	 0.551825551694784 
1438	 0.552780210705498 
1439	 0.553468477270839 
1440	 0.553892469196721 
1441	 0.554843466956505 
1442	 0.55563269316947 
1443	 0.55708724829992 
1444	 0.558371189917987 
1445	 0.560155466910909 
1446	 0.562286537643746 
1447	 0.563660891134883 
1448	 0.564506201284011 
1449	 0.565071381390725 
1450	 0.566041173182343 
1451	 0.56635311967611 
1452	 0.567358591957391 
1453	 0.569204815885301 
1454	 0.570241957497495 
1455	 0.57126014015584 
1456	 0.571592774663106 
1457	 0.571563607269199 
1458	 0.571401663664816 
1459	 0.570796621206978 
1460	 0.5701735429718 
1461	 0.569355350323187 
1462	 0.568683964585811 
1463	 0.567503690028202 
1464	 0.566953929129542 
1465	 0.567173498311887 
1466	 0.566740598070457 
1467	 0.566100886398838 
1468	 0.565739328727154 
1469	 0.565169761939383 
1470	 0.564735045044213 
1471	 0.564879548100054 
1472	 0.564616548626117 
1473	 0.563945572371871 
1474	 0.563569211286241 
1475	 0.563121340407558 
1476	 0.562992039317297 
1477	 0.563121195606642 
1478	 0.563170038798358 
1479	 0.563514079092594 
1480	 0.563667071914764 
1481	 0.563513900843071 
1482	 0.563642727828091 
1483	 0.564066382167772 
1484	 0.564115325157529 
1485	 0.564121766086147 
1486	 0.56414626101402 
1487	 0.564012433856184 
1488	 0.563672309692984 
1489	 0.56372581290576 
1490	 0.563842068689851 
1491	 0.564008546229032 
1492	 0.56414443986049 
1493	 0.56421392418767 
1494	 0.56392155165146 
1495	 0.563733739521186 
1496	 0.563419342280371 
1497	 0.563179866802709 
1498	 0.562897732838424 
1499	 0.562800119172933 
1500	 0.562889384625312 
1501	 0.562527997805756 
1502	 0.562165803412611 
1503	 0.561597265644047 
1504	 0.56051567388507 
1505	 0.559921814340549 
1506	 0.559579280297522 
1507	 0.558992169380573 
1508	 0.558345728169735 
1509	 0.557876901478468 
1510	 0.557441370097222 
1511	 0.556896388556157 
1512	 0.556467827367383 
1513	 0.555952809880552 
1514	 0.555200295912722 
1515	 0.554610797398669 
1516	 0.55421365646352 
1517	 0.553620984042791 
1518	 0.552841317562649 
1519	 0.552270272334529 
1520	 0.551762084214039 
1521	 0.551228495800868 
1522	 0.55079081571172 
1523	 0.550318223093042 
1524	 0.549814000911048 
1525	 0.549266977605127 
1526	 0.548666773106686 
1527	 0.548178732188187 
1528	 0.547625342429101 
1529	 0.547195061917551 
1530	 0.547032547238476 
1531	 0.546679096985436 
1532	 0.546318134287758 
1533	 0.545839706664073 
1534	 0.545142048567141 
1535	 0.544593315482611 
1536	 0.544088771833897 
1537	 0.543522646060153 
1538	 0.543082960558713 
1539	 0.542470043194019 
1540	 0.54150481806828 
1541	 0.540870544934642 
1542	 0.540395246335536 
1543	 0.539853638597994 
1544	 0.539517975972616 
1545	 0.539080532457118 
1546	 0.538544136056659 
1547	 0.537950351375163 
1548	 0.537204081073722 
1549	 0.536660345152555 
1550	 0.53604837429843 
1551	 0.535644400611328 
1552	 0.535827246471666 
1553	 0.535504807175654 
1554	 0.534972360103707 
1555	 0.534405925127478 
1556	 0.533207467891859 
1557	 0.532518941833023 
1558	 0.532305272466389 
1559	 0.531888832962654 
1560	 0.531659364784583 
1561	 0.531347743197424 
1562	 0.530785803148845 
1563	 0.53031004201601 
1564	 0.52995416189663 
1565	 0.529503650800717 
1566	 0.528962960925123 
1567	 0.528732942934211 
1568	 0.52843073617588 
1569	 0.5281869720995 
1570	 0.52795539460935 
1571	 0.527825785533462 
1572	 0.527489430580498 
1573	 0.527085776063631 
1574	 0.526721295360562 
1575	 0.52628898643913 
1576	 0.525789672025011 
1577	 0.525259906646376 
1578	 0.524892795943974 
1579	 0.524454867995228 
1580	 0.5241665160749 
1581	 0.524147051720574 
1582	 0.523895425120515 
1583	 0.523508748071272 
1584	 0.523286034819836 
1585	 0.52319365140228 
1586	 0.522796818362266 
1587	 0.522317096553763 
1588	 0.521879786492645 
1589	 0.521228940313012 
1590	 0.52075556747108 
1591	 0.520475649628948 
1592	 0.52000388029953 
1593	 0.519499610245703 
1594	 0.518808706318314 
1595	 0.517931119355443 
1596	 0.517263403163973 
1597	 0.516400682895015 
1598	 0.515976607792128 
1599	 0.515972407841418 
1600	 0.515632846355249 
1601	 0.515424667524856 
1602	 0.514920820487852 
1603	 0.513954530517311 
1604	 0.513675437398433 
1605	 0.513662253917342 
1606	 0.5134324751456 
1607	 0.513543746703536 
1608	 0.513300298297746 
1609	 0.512617730782222 
1610	 0.512325532498189 
1611	 0.512233570906871 
1612	 0.512011692392047 
1613	 0.511946367263042 
1614	 0.511429410542951 
1615	 0.510513420756633 
1616	 0.510114318693168 
1617	 0.509651645770747 
1618	 0.50937791310005 
1619	 0.50962917897661 
1620	 0.50936618183383 
1621	 0.508777071193881 
1622	 0.508427047190168 
1623	 0.508167159012861 
1624	 0.507702757153274 
1625	 0.507090527241471 
1626	 0.506780590580136 
1627	 0.506458399516658 
1628	 0.506157362431941 
1629	 0.506105182349782 
1630	 0.505981945632701 
1631	 0.505698575042086 
1632	 0.505479099690565 
1633	 0.505517235292054 
1634	 0.505268533462714 
1635	 0.504744071771372 
1636	 0.504490180165094 
1637	 0.50419678765569 
1638	 0.504052374012448 
1639	 0.504182521843741 
1640	 0.504060619355449 
1641	 0.50396966532208 
1642	 0.503678122889629 
1643	 0.503091638303783 
1644	 0.502759923812008 
1645	 0.502359526234152 
1646	 0.502312215778857 
1647	 0.502585186146915 
1648	 0.502610288211213 
1649	 0.502634419781846 
1650	 0.502795762057037 
1651	 0.503022064571673 
1652	 0.502968980216685 
1653	 0.502957630671972 
1654	 0.503028417906431 
1655	 0.5029338166411 
1656	 0.502654966678868 
1657	 0.502490576143108 
1658	 0.501697067209427 
1659	 0.501123804005073 
1660	 0.501422531695661 
1661	 0.501775114989832 
1662	 0.501978323734886 
1663	 0.502328742747218 
1664	 0.502004825031794 
1665	 0.501720182412332 
1666	 0.50175481042737 
1667	 0.501468996805959 
1668	 0.501300595277737 
1669	 0.501275044907014 
1670	 0.501745136297034 
1671	 0.502075269533048 
1672	 0.502000214958447 
1673	 0.502222283261629 
1674	 0.50197180485885 
1675	 0.501435907625201 
1676	 0.50128609705918 
1677	 0.501129511461941 
1678	 0.500676343563853 
1679	 0.500666482536746 
1680	 0.500900491234482 
1681	 0.500927707692357 
1682	 0.50145262307883 
1683	 0.501669194503845 
1684	 0.501337825985968 
1685	 0.501449957207018 
1686	 0.501475847653895 
1687	 0.501223672341433 
1688	 0.501504747166933 
1689	 0.502019314408567 
1690	 0.502527549614009 
1691	 0.502710667365294 
1692	 0.502492326373507 
1693	 0.502527838975766 
1694	 0.502313384989122 
1695	 0.502337123765121 
1696	 0.502948807720975 
1697	 0.503217468864644 
1698	 0.503144136305476 
1699	 0.503465574870988 
1700	 0.504102292307908 
1701	 0.504311756727481 
1702	 0.504616192076218 
1703	 0.504707264999041 
1704	 0.503992189886325 
1705	 0.503988683973815 
1706	 0.504523243196249 
1707	 0.50473957655988 
1708	 0.505117399826287 
1709	 0.505503312875418 
1710	 0.505575495159879 
1711	 0.50588176156952 
1712	 0.506683760911611 
1713	 0.506919198052992 
1714	 0.506782348459093 
1715	 0.506851674946348 
1716	 0.506663441457964 
1717	 0.506758383290921 
1718	 0.507024636105713 
1719	 0.50748718357876 
1720	 0.508446831318206 
1721	 0.508758196563787 
1722	 0.508927258864194 
1723	 0.509010523222784 
1724	 0.508519479032343 
1725	 0.508259620053093 
1726	 0.508164872437263 
1727	 0.508174585470501 
1728	 0.508280883763472 
1729	 0.508124887580235 
1730	 0.507797056310684 
1731	 0.507957232367246 
1732	 0.508018972078781 
1733	 0.507385560242919 
1734	 0.507195251587584 
1735	 0.507162427648588 
1736	 0.507243810870396 
1737	 0.507997510000596 
1738	 0.508878447610167 
1739	 0.508938029639293 
1740	 0.507897965885918 
1741	 0.507268564104271 
1742	 0.507385801373822 
1743	 0.507234396016219 
1744	 0.507372232984823 
1745	 0.50791652200161 
1746	 0.508017884366576 
1747	 0.5082676906909 
1748	 0.509028472412345 
1749	 0.509398834786324 
1750	 0.510050677717767 
1751	 0.511017992645014 
1752	 0.511442220395318 
1753	 0.512267992930733 
1754	 0.512838279276993 
1755	 0.512913262622765 
1756	 0.513052489077174 
1757	 0.51175836641829 
1758	 0.511450873145835 
1759	 0.51145994854976 
1760	 0.51146499999859 
1761	 0.512194894462904 
1762	 0.512533389773311 
1763	 0.512464171905969 
1764	 0.512596025928632 
1765	 0.513154000990294 
1766	 0.513107397840867 
1767	 0.512344589836077 
1768	 0.512047580896568 
1769	 0.512024764195689 
1770	 0.5115555822361 
1771	 0.510971432048522 
1772	 0.510630233324083 
1773	 0.509926409095154 
1774	 0.509162225813178 
1775	 0.508942871981544 
1776	 0.508986827469391 
1777	 0.508354217891097 
1778	 0.507706676947663 
1779	 0.508185791767132 
1780	 0.508072639687593 
1781	 0.507301375476828 
1782	 0.507330462857605 
1783	 0.50707511306322 
1784	 0.506143746161614 
1785	 0.505993758919826 
1786	 0.506235105394386 
1787	 0.505290292143287 
1788	 0.504670735907278 
1789	 0.504619838220628 
1790	 0.503906570132501 
1791	 0.503078447274808 
1792	 0.502447320101641 
1793	 0.500966726173727 
1794	 0.498156212266139 
1795	 0.496572595161554 
1796	 0.495519064050274 
1797	 0.4941242704525 
1798	 0.493889566651189 
1799	 0.49255012069258 
1800	 0.490276342031577 
1801	 0.488677609324849 
1802	 0.484149540643258 
1803	 0.481688287866403 
1804	 0.479948575966791 
1805	 0.478781154455173 
1806	 0.479211597912914 
1807	 0.478193279052976 
1808	 0.47889987821502 
1809	 0.476377993950931 
1810	 0.473985566868327 
1811	 0.466747775237159 
1812	 0.466653875627474 
1813	 0.472687427910062 
1814	 0.473858881545172 
1815	 0.478974414330983 
1816	 0.480063126352219 
1817	 0.472010964226658 
1818	 0.46784890240036 
1819	 0.464358336874263 
1820	 0.460884244555736 
1821	 0.461183342747681 
1822	 0.468981341684933 
1823	 0.468392369810243 
1824	 0.464541523437407 
1825	 0.464173164536326 
1826	 0.456133173585827 
1827	 0.452350261312611 
1828	 0.452451553444427 
1829	 0.467091192098025 
1830	 0.477760866220323 
1831	 0.500127170002283 
1832	 0.505553510077706 
1833	 0.512636518507664 
1834	 0.493329145971318 
1835	 0.368522841348336 
1836	 0.310014655715738 
1837	 0.285713048859789 
1838	 0.28100885285655 
1839	 0.312176654208756 
1840	 0.458608303890374 
1841	 0.50422663093199 
1842	 0.548299884234648 
1843	 0.530362071837526 
1844	 0.421298256244569 
1845	 0.381456533712299 
1846	 0.310810160504981 
1847	 0.281481239453785 
1848	 0.274819245882558 
1849	 0.290614838045928 
1850	 0.329183882175745 
1851	 0.442290617513389 
1852	 0.475326242375792 
1853	 0.504893815630155 
1854	 0.508416368034328 
1855	 0.457078796808734 
1856	 0.419775778547439 
1857	 0.347562371444435 
1858	 0.349585011782019 
1859	 0.348525460873086 
1860	 0.353674196148809 
1861	 0.3412596667391 
1862	 0.358261689899121 
1863	 0.342135016588227 
1864	 0.261148279694742 
1865	 0.235171259665219 
1866	 0.23041535264267 
1867	 0.204786885742818 
1868	 0.256976444209236 
1869	 0.332761104553832 
1870	 0.389181418971528 
1871	 0.475439240193262 
1872	 0.509629523681868 
1873	 0.503787756853881 
1874	 0.501319543053977 
1875	 0.442817987422822 
1876	 0.442852508524516 
1877	 0.470278406749382 
1878	 0.490018479211638 
1879	 0.487672991901032 
1880	 0.521886869498826 
1881	 0.528157960306919 
1882	 0.512260930279012 
1883	 0.515216557304507 
1884	 0.52912980060142 
1885	 0.528574447538067 
1886	 0.520804408335283 
1887	 0.523866949466531 
1888	 0.516945114236996 
1889	 0.495545615327106 
1890	 0.493843606174534 
1891	 0.503710745058008 
1892	 0.501242521209352 
1893	 0.505256851145801 
1894	 0.509334804661934 
1895	 0.490132525416575 
1896	 0.498465653097824 
1897	 0.53663136208331 
1898	 0.580565961240713 
1899	 0.621131172419148 
1900	 0.665308088218763 
1901	 0.677816529694898 
1902	 0.59403557991846 
1903	 0.568888815837717 
1904	 0.551286197660615 
1905	 0.525047930806366 
1906	 0.493624452129168 
1907	 0.518943854764334 
1908	 0.446994642438702 
1909	 0.464955201656289 
1910	 0.478667482808029 
1911	 0.44634543999848 
1912	 0.497502214772852 
1913	 0.583856611562528 
1914	 0.617208653727063 
1915	 0.682302482689472 
1916	 0.706622528743026 
1917	 0.698754159825656 
1918	 0.700939557380687 
1919	 0.716600846250628 
1920	 0.674293367699024 
1921	 0.628642137763088 
1922	 0.61705508775565 
1923	 0.617818935919438 
1924	 0.630533208506075 
1925	 0.63725639436115 
1926	 0.662330137073858 
1927	 0.666875706873985 
1928	 0.655377062944596 
1929	 0.655286040646764 
1930	 0.652520164435064 
1931	 0.649981259202215 
1932	 0.649716016501521 
1933	 0.649781840246862 
1934	 0.652242276028184 
1935	 0.656808064036616 
1936	 0.662038753025481 
1937	 0.670679103983436 
1938	 0.673388605059696 
1939	 0.673396902907097 
1940	 0.67459046027419 
1941	 0.677146759615199 
1942	 0.677114710480232 
1943	 0.682836773811507 
1944	 0.687017021824073 
1945	 0.681879903420089 
1946	 0.67975259397832 
1947	 0.682028501943415 
1948	 0.687047210599273 
1949	 0.688708950514326 
1950	 0.693166704797387 
1951	 0.697249857669312 
1952	 0.694955230269854 
1953	 0.692164061387486 
1954	 0.692935589401672 
1955	 0.692333227681261 
1956	 0.692176630619051 
1957	 0.688813325895046 
1958	 0.686939457772474 
1959	 0.685616838525424 
1960	 0.686093437619738 
1961	 0.687142290803962 
1962	 0.68794292692744 
1963	 0.689754239732356 
1964	 0.686825234938707 
1965	 0.68427822438027 
1966	 0.682005993240691 
1967	 0.679715243766982 
1968	 0.678919391140104 
1969	 0.678959360800942 
1970	 0.680226018575076 
1971	 0.680961620528823 
1972	 0.682544674828137 
1973	 0.682604272198373 
1974	 0.683285684075451 
1975	 0.684103491604462 
1976	 0.684314840183872 
1977	 0.685163881019442 
1978	 0.68362638543899 
1979	 0.681260173473878 
1980	 0.678418557091578 
1981	 0.676306448151276 
1982	 0.675467105185522 
1983	 0.676172212885753 
1984	 0.675048353516307 
1985	 0.676060155515735 
1986	 0.676743989780857 
1987	 0.6740410546171 
1988	 0.673357029330381 
1989	 0.671411873735837 
1990	 0.668155578182821 
1991	 0.667457268043585 
1992	 0.667575808993927 
1993	 0.66737970008158 
1994	 0.666344280809954 
1995	 0.666081627547704 
1996	 0.665981994507857 
1997	 0.665623105994755 
1998	 0.664615815174328 
1999	 0.665591103311833 
2000	 0.665289220776774 
2001	 0.663894210882291 
2002	 0.664035130784811 
2003	 0.663037514302261 
2004	 0.660850172388322 
2005	 0.656947926920161 
2006	 0.654259618864373 
2007	 0.651165379292494 
2008	 0.649556751018819 
2009	 0.648341275895914 
2010	 0.649485833212588 
2011	 0.649318476135201 
2012	 0.647351400680759 
2013	 0.645656159278685 
2014	 0.645480818429093 
2015	 0.647352179817098 
2016	 0.649379674243807 
2017	 0.650867286269631 
2018	 0.648415884778107 
2019	 0.646487813806386 
2020	 0.642138822358489 
2021	 0.640823677428954 
2022	 0.640988068220526 
2023	 0.642663317232531 
2024	 0.64502399870057 
2025	 0.645602953770176 
2026	 0.644955945851782 
2027	 0.643958152546833 
2028	 0.643558703245305 
2029	 0.64366993181711 
2030	 0.643162946728906 
2031	 0.644378901985149 
2032	 0.645164539431399 
2033	 0.645987670330635 
2034	 0.645179374142718 
2035	 0.646469232401774 
2036	 0.646783713189627 
2037	 0.645689313935004 
2038	 0.646399952345693 
2039	 0.646540613064118 
2040	 0.646241996495982 
2041	 0.646910720029382 
2042	 0.647353674837232 
2043	 0.646950688507951 
2044	 0.646838242057168 
2045	 0.647052258564561 
2046	 0.647408765111208 
2047	 0.647496820709378 
2048	 0.64934488522855 
2049	 0.650840565501499 
2050	 0.650880098972747 
2051	 0.652697847530192 
2052	 0.65370468735045 
2053	 0.653279408895666 
2054	 0.653685155550986 
2055	 0.653398878068933 
2056	 0.65198477202473 
2057	 0.651193271152592 
2058	 0.651553872678442 
2059	 0.651307424280596 
2060	 0.650659233960319 
2061	 0.650580387090571 
2062	 0.651292197849926 
2063	 0.650308834136443 
2064	 0.650202750135706 
2065	 0.650767487128284 
2066	 0.650115365169933 
2067	 0.649619605988102 
2068	 0.649639653688253 
2069	 0.64901969432778 
2070	 0.647920072418647 
2071	 0.649440629484624 
2072	 0.650943098407188 
2073	 0.653325346628052 
2074	 0.654610472922871 
2075	 0.656353777677186 
2076	 0.655607728300421 
2077	 0.653258700923487 
2078	 0.653224585487705 
2079	 0.653871528736017 
2080	 0.654225186713522 
2081	 0.654907092514389 
2082	 0.654690748767417 
2083	 0.653590337089602 
2084	 0.652335264440381 
2085	 0.651876405610891 
2086	 0.651743414163514 
2087	 0.651675165771633 
2088	 0.651384777823319 
2089	 0.652571126229561 
2090	 0.653466888695245 
2091	 0.652090659955677 
2092	 0.651210551303285 
2093	 0.649962364522102 
2094	 0.647717570541234 
2095	 0.648301778329815 
2096	 0.648687960350019 
2097	 0.648135184956619 
2098	 0.648180340643874 
2099	 0.646990150137103 
2100	 0.646760646653865 
2101	 0.646715809841452 
2102	 0.646287552543807 
2103	 0.645497163904272 
2104	 0.646151806810788 
2105	 0.647622583805611 
2106	 0.648186097318532 
2107	 0.649271723996016 
2108	 0.650753908535405 
2109	 0.648418924095508 
2110	 0.646891815022717 
2111	 0.647349516755441 
2112	 0.645200778660652 
2113	 0.64454192501345 
2114	 0.645211903520529 
2115	 0.644286715711914 
2116	 0.64513670647999 
2117	 0.645788140848033 
2118	 0.646846847282778 
2119	 0.646581058501153 
2120	 0.646011842498507 
2121	 0.645401848406218 
2122	 0.644141860065522 
2123	 0.643572745721542 
2124	 0.64208918461303 
2125	 0.639897462344444 
2126	 0.637568916952603 
2127	 0.637116675762716 
2128	 0.638295831966803 
2129	 0.638399455793532 
2130	 0.639217731057469 
2131	 0.639408454438926 
2132	 0.637303619406766 
2133	 0.636054424166718 
2134	 0.635984004692427 
2135	 0.636777242484416 
2136	 0.636337681980883 
2137	 0.635943331934087 
2138	 0.636518074605967 
2139	 0.635074645223904 
2140	 0.63378064051299 
2141	 0.634211039108956 
2142	 0.63335623970442 
2143	 0.63348893101884 
2144	 0.633855738298496 
2145	 0.632780397674022 
2146	 0.633538773496879 
2147	 0.634037517493987 
2148	 0.631070522914191 
2149	 0.628792617104201 
2150	 0.628800085371677 
2151	 0.628077676984074 
2152	 0.626720110769176 
2153	 0.626701641073801 
2154	 0.628491603765251 
2155	 0.627804652968278 
2156	 0.625455259383604 
2157	 0.625298444988382 
2158	 0.622706821970846 
2159	 0.618583762632544 
2160	 0.61873496730711 
2161	 0.619058621483748 
2162	 0.619755262659386 
2163	 0.620881933826937 
2164	 0.620902859623153 
2165	 0.620861091997039 
2166	 0.618931796638388 
2167	 0.617910845195006 
2168	 0.617296301288977 
2169	 0.615472100683171 
2170	 0.61462070512273 
2171	 0.614776202858187 
2172	 0.616386013559309 
2173	 0.616565206054321 
2174	 0.616200714816213 
2175	 0.616219502463334 
2176	 0.614039608926919 
2177	 0.611904720189103 
2178	 0.610314606889699 
2179	 0.608040112569612 
2180	 0.607514475411254 
2181	 0.607208194481397 
2182	 0.607373344894424 
2183	 0.607945856049998 
2184	 0.606995142487155 
2185	 0.605410097610868 
2186	 0.604741107979682 
2187	 0.604274507932213 
2188	 0.60406629203547 
2189	 0.604209071932679 
2190	 0.605034263732516 
2191	 0.605529025406676 
2192	 0.605273095836188 
2193	 0.604708147567553 
2194	 0.603564992497272 
2195	 0.601330591435633 
2196	 0.60014305424608 
2197	 0.599781720373218 
2198	 0.5993121334638 
2199	 0.599664551718868 
2200	 0.599543604742572 
2201	 0.598934578927541 
2202	 0.598143326909831 
2203	 0.595765063577891 
2204	 0.592495459014075 
2205	 0.591020416349942 
2206	 0.590986597850896 
2207	 0.592002529403813 
2208	 0.593119566111266 
2209	 0.595576068685291 
2210	 0.596338466657937 
2211	 0.596481667799747 
2212	 0.597392193590124 
2213	 0.595456034383584 
2214	 0.594877527111205 
2215	 0.595218891526176 
2216	 0.593045820767443 
2217	 0.594058543598696 
2218	 0.593922943456841 
2219	 0.592008539939608 
2220	 0.593327265553907 
2221	 0.593281428364288 
2222	 0.594791243069579 
2223	 0.596598496426997 
2224	 0.596586017829277 
2225	 0.596795351978985 
2226	 0.595382520555587 
2227	 0.595708344386094 
2228	 0.597346067780816 
2229	 0.599282523008227 
2230	 0.602818487615173 
2231	 0.604465325772024 
2232	 0.604711468302421 
2233	 0.604827416673149 
2234	 0.603471059696765 
2235	 0.603564114345342 
2236	 0.604198544223037 
2237	 0.605585993883505 
2238	 0.607759219243058 
2239	 0.606105738146749 
2240	 0.605427190477894 
2241	 0.607049967331261 
2242	 0.607803987936247 
2243	 0.610944739785615 
2244	 0.614014627835608 
2245	 0.615390603818234 
2246	 0.617205918111148 
2247	 0.61882616953296 
2248	 0.620601125739701 
2249	 0.622236671878588 
2250	 0.622303325785171 
2251	 0.624463607914893 
2252	 0.626620983666291 
2253	 0.62698978803497 
2254	 0.631524831899044 
2255	 0.634535894991213 
2256	 0.635521132487357 
2257	 0.634953884343255 
2258	 0.636451804297306 
2259	 0.634930257909253 
2260	 0.633838002141778 
2261	 0.634736676135868 
2262	 0.63495309977409 
2263	 0.635366784819155 
2264	 0.636710762722909 
2265	 0.640258472686495 
2266	 0.643486856310515 
2267	 0.645817321530311 
2268	 0.646760197977838 
2269	 0.644611113414984 
2270	 0.642591220190368 
2271	 0.641993093385619 
2272	 0.643460153690632 
2273	 0.645904462974745 
2274	 0.646976525407106 
2275	 0.648017500719323 
2276	 0.64708847554694 
2277	 0.647420200907182 
2278	 0.649389840290864 
2279	 0.648236312900591 
2280	 0.64693096131018 
2281	 0.644838171615009 
2282	 0.646472549916382 
2283	 0.650136889755093 
2284	 0.652435430273522 
2285	 0.655468804015074 
2286	 0.656837846153954 
2287	 0.654678072252224 
2288	 0.65328342576901 
2289	 0.654822245367927 
2290	 0.656402045242426 
2291	 0.655757813097669 
2292	 0.65422212426098 
2293	 0.65526633288378 
2294	 0.654724995716133 
2295	 0.654624883715687 
2296	 0.659891351054561 
2297	 0.660303057568802 
2298	 0.660167020705175 
2299	 0.662656844358372 
2300	 0.661412661879075 
2301	 0.662710102814229 
2302	 0.662197630604856 
2303	 0.661678365540732 
2304	 0.663012066664 
2305	 0.662332065978361 
2306	 0.666183464653358 
2307	 0.669999340140064 
2308	 0.674400604567835 
2309	 0.682014663422721 
2310	 0.684364216351462 
2311	 0.687436801718084 
2312	 0.690300982533911 
2313	 0.689543097983817 
2314	 0.687001575820898 
2315	 0.680502197654731 
2316	 0.673964457273248 
2317	 0.668828052491404 
2318	 0.669306873761085 
2319	 0.672125800554671 
2320	 0.673924842857951 
2321	 0.675608147229123 
2322	 0.675848084642624 
2323	 0.67647787359079 
2324	 0.677724365350962 
2325	 0.677448187693244 
2326	 0.68000048596631 
2327	 0.678776110197896 
2328	 0.675084916164359 
2329	 0.67967982683166 
2330	 0.677910767289915 
2331	 0.677036155855765 
2332	 0.684587441643614 
2333	 0.682866347015464 
2334	 0.682897510278785 
2335	 0.687940022293121 
2336	 0.686537248135746 
2337	 0.686140092004886 
2338	 0.684582658129209 
2339	 0.683568760950396 
2340	 0.685221604482667 
2341	 0.688251044825754 
2342	 0.694187861890215 
2343	 0.691164820406802 
2344	 0.68557830957144 
2345	 0.68302044899581 
2346	 0.681117142553929 
2347	 0.684585110283696 
2348	 0.690386404267348 
2349	 0.694100707154725 
2350	 0.695626745847302 
2351	 0.698218111866622 
2352	 0.697722361990025 
2353	 0.696671854015363 
2354	 0.696464014411775 
2355	 0.695553442239705 
2356	 0.700404688411124 
2357	 0.702195486668241 
2358	 0.697073882586017 
2359	 0.694259189366591 
2360	 0.687828019624569 
2361	 0.68355466311217 
2362	 0.685788719470781 
2363	 0.687130412631427 
2364	 0.691171562489005 
2365	 0.690844976394934 
2366	 0.686414730714675 
2367	 0.685872522329625 
2368	 0.685789841293094 
2369	 0.690132436752491 
2370	 0.70145521768763 
2371	 0.705431290747718 
2372	 0.70411104224646 
2373	 0.691893339045093 
2374	 0.690273795292249 
2375	 0.688573873189474 
2376	 0.691825452560525 
2377	 0.706530007774659 
2378	 0.708858671596721 
2379	 0.703324229179618 
2380	 0.700080172908584 
2381	 0.693585390232804 
2382	 0.691987253505067 
2383	 0.69549689143827 
2384	 0.695949105927544 
2385	 0.696140639326034 
2386	 0.693776100634551 
2387	 0.684268354602322 
2388	 0.685161037469979 
2389	 0.693387643314429 
2390	 0.694884971005718 
2391	 0.697369688609155 
2392	 0.699486134482181 
2393	 0.694638163863802 
2394	 0.699459175559355 
2395	 0.722321611562236 
2396	 0.728299854196783 
2397	 0.724990086423313 
2398	 0.719952092115397 
2399	 0.696999102205723 
2400	 0.688041162615499 
2401	 0.682482160576221 
2402	 0.693545829262474 
2403	 0.704579390942077 
2404	 0.71116297103506 
2405	 0.718949689657358 
2406	 0.717023912256607 
2407	 0.70700767547661 
2408	 0.718045909054832 
2409	 0.723380726665689 
2410	 0.716685136390192 
2411	 0.727341885496192 
2412	 0.723711128027072 
2413	 0.719990916548898 
2414	 0.725053807963756 
2415	 0.725039325016868 
2416	 0.741636421304106 
2417	 0.747358502011962 
2418	 0.749955620782045 
2419	 0.754371087829701 
2420	 0.73424353758428 
2421	 0.722096082233297 
2422	 0.724402196272852 
2423	 0.719936431096785 
2424	 0.708766669323084 
2425	 0.694626463733105 
2426	 0.691691416505309 
2427	 0.697952237816089 
2428	 0.703419314794149 
2429	 0.730030274811189 
2430	 0.758876976979261 
2431	 0.779958585591601 
2432	 0.797987827820933 
2433	 0.776339819340705 
2434	 0.758818511473819 
2435	 0.719523319073683 
2436	 0.703056084089931 
2437	 0.689427877554039 
2438	 0.693148263392677 
2439	 0.731686935726551 
2440	 0.746758649403166 
2441	 0.77187030460476 
2442	 0.780918943353092 
2443	 0.755200882034327 
2444	 0.748203519425289 
2445	 0.736560511193533 
2446	 0.738919541273672 
2447	 0.769332262847054 
2448	 0.782923120671819 
2449	 0.798427746855921 
2450	 0.808044384433356 
2451	 0.787925772085114 
2452	 0.78248463548707 
2453	 0.799638803136919 
2454	 0.807570932678062 
2455	 0.826981874061157 
2456	 0.812205016865755 
2457	 0.761391102479901 
2458	 0.737768665891821 
2459	 0.703591132814809 
2460	 0.693970547622756 
2461	 0.710474270178336 
2462	 0.714479119085546 
2463	 0.717531971228934 
2464	 0.714854234391019 
2465	 0.712343821907259 
2466	 0.723484033502944 
2467	 0.725031010905891 
2468	 0.757997604320401 
2469	 0.864401020375033 
2470	 0.885099926885084 
2471	 0.86643679602123 
2472	 0.859285263107667 
2473	 0.758809417710989 
2474	 0.744516384471235 
2475	 0.796417822934371 
2476	 0.842671719301456 
2477	 0.999607919564068 
2478	 1.02748172312525 
2479	 0.985230135631179 
2480	 0.9117118225299 
2481	 0.625388025651399 
2482	 0.56512829435754 
2483	 0.615150113885952 
2484	 0.665543491051923 
2485	 0.996997257378902 
2486	 0.97463852855953 
2487	 0.800131389477221 
2488	 0.837181842521007 
2489	 0.661065200203536 
2490	 0.645830806608142 
2491	 1.01948519767376 
2492	 0.825150774457146 
2493	 0.699679869893061 
2494	 0.661728872535788 
2495	 0.463073702426805 
2496	 0.676495058306746 
2497	 0.934508161173861 
2498	 0.819655179853143 
2499	 0.942792342177013 
2500	 0.885122510229697 
