Wavelength	ref00062.asd
350	 4.01953461048264E-02 
351	 4.05267057417628E-02 
352	 4.04652285400601E-02 
353	 4.17427590209001E-02 
354	 0.041792099397568 
355	 4.20095117492835E-02 
356	 4.30769452209659E-02 
357	 4.26032407905422E-02 
358	 4.35815912273629E-02 
359	 4.49866034694375E-02 
360	 4.52085998498004E-02 
361	 4.57702240974279E-02 
362	 4.66316747856543E-02 
363	 4.75704539533812E-02 
364	 4.82782145346641E-02 
365	 4.85034068616333E-02 
366	 4.87925577930941E-02 
367	 4.94835905624837E-02 
368	 5.04998888152539E-02 
369	 5.15633975853717E-02 
370	 5.24678059968398E-02 
371	 5.33030920261283E-02 
372	 5.49689680507708E-02 
373	 5.65035163228997E-02 
374	 5.77698511309887E-02 
375	 5.90662884589122E-02 
376	 6.03599419843532E-02 
377	 6.19783220076558E-02 
378	 6.39266609704055E-02 
379	 6.58050919382925E-02 
380	 6.78232471187392E-02 
381	 7.00875683262058E-02 
382	 0.072522821404948 
383	 7.46026249273625E-02 
384	 7.70661635066508E-02 
385	 7.99422290448403E-02 
386	 8.29003669630786E-02 
387	 8.56850887328259E-02 
388	 8.88134454306438E-02 
389	 9.20591502487147E-02 
390	 9.44408329272372E-02 
391	 0.097311101361235 
392	 0.100444613683511 
393	 0.103525382501905 
394	 0.106636835073125 
395	 0.110337372062027 
396	 0.114023150072533 
397	 0.116998050544934 
398	 0.120382660642157 
399	 0.12332243470462 
400	 0.125838346751791 
401	 0.128678356371767 
402	 0.131053242493484 
403	 0.133243118147597 
404	 0.135533447194356 
405	 0.137939248214836 
406	 0.140120599182428 
407	 0.142158002659867 
408	 0.144261718353674 
409	 0.146466456411777 
410	 0.148575248034695 
411	 0.150552989787139 
412	 0.152500524400941 
413	 0.154065320770961 
414	 0.155488500120038 
415	 0.156946557257492 
416	 0.158276700193809 
417	 0.159542892026456 
418	 0.160656527008351 
419	 0.161562224034373 
420	 0.162573322805334 
421	 0.163557752190979 
422	 0.164390592524709 
423	 0.165010224110566 
424	 0.165927626832715 
425	 0.166617053916912 
426	 0.166849571580527 
427	 0.167407380288272 
428	 0.167958461391521 
429	 0.168389927603962 
430	 0.16868788593578 
431	 0.168999736853869 
432	 0.169129773136025 
433	 0.169107751356509 
434	 0.169151332440409 
435	 0.16905125372062 
436	 0.168771389398255 
437	 0.168371258968623 
438	 0.168044922485148 
439	 0.167665045195592 
440	 0.167118457523802 
441	 0.166344274824847 
442	 0.165507384941299 
443	 0.164642664006058 
444	 0.163745957013755 
445	 0.162783210358401 
446	 0.161834005195198 
447	 0.160729574268512 
448	 0.15940240513844 
449	 0.158129648469147 
450	 0.156852022675642 
451	 0.155487750187546 
452	 0.153974090870278 
453	 0.152489392306804 
454	 0.150820885451116 
455	 0.149004287304699 
456	 0.147384825375725 
457	 0.145585703587398 
458	 0.143621934268263 
459	 0.141602283350056 
460	 0.139648356008445 
461	 0.137583586143108 
462	 0.13538075446784 
463	 0.133116211347505 
464	 0.130916715331679 
465	 0.128656842330182 
466	 0.126282488084965 
467	 0.123897428243032 
468	 0.121385256730282 
469	 0.118798948404363 
470	 0.116213923685301 
471	 0.113585820766292 
472	 0.110975623468496 
473	 0.108369992782948 
474	 0.105719302146669 
475	 0.103221402110997 
476	 0.100666249686843 
477	 9.79603737987676E-02 
478	 9.53332959147033E-02 
479	 9.28006563456822E-02 
480	 9.03430924789678E-02 
481	 8.79114461142052E-02 
482	 8.54381473894556E-02 
483	 8.30503051886189E-02 
484	 8.07493074904625E-02 
485	 7.84109045732326E-02 
486	 0.076078865975626 
487	 7.36917919198265E-02 
488	 7.12797515665162E-02 
489	 6.91318991140774E-02 
490	 6.70145513425502E-02 
491	 6.49982964845083E-02 
492	 6.32085883920779E-02 
493	 6.13795454181651E-02 
494	 5.95235526867606E-02 
495	 5.77235258637576E-02 
496	 0.056111710337618 
497	 5.45514522443556E-02 
498	 5.29944989695829E-02 
499	 5.14484434884175E-02 
500	 4.99973413485389E-02 
501	 4.87486353689267E-02 
502	 4.75377430695414E-02 
503	 4.60984200604061E-02 
504	 4.49728413757013E-02 
505	 4.38464899569423E-02 
506	 4.26259332113329E-02 
507	 4.17551398965277E-02 
508	 4.07955915514012E-02 
509	 3.98469670888746E-02 
510	 3.90975657764791E-02 
511	 3.83442771794399E-02 
512	 3.76896423053791E-02 
513	 3.70999125085148E-02 
514	 3.64317890983823E-02 
515	 3.58756769455561E-02 
516	 3.53629413096725E-02 
517	 3.48464763463539E-02 
518	 3.44552261652935E-02 
519	 0.033932779510788 
520	 3.34073116939745E-02 
521	 3.30834146584843E-02 
522	 3.26274881873595E-02 
523	 3.22802895704842E-02 
524	 3.20721024187309E-02 
525	 3.17665156269054E-02 
526	 3.15045571928895E-02 
527	 3.13295449342716E-02 
528	 3.12098051753529E-02 
529	 3.09563365273734E-02 
530	 3.07322953460885E-02 
531	 3.05838571410576E-02 
532	 3.04851937337928E-02 
533	 0.030422425855473 
534	 3.03452152558138E-02 
535	 3.02449827452425E-02 
536	 3.01805168636797E-02 
537	 3.02104267029706E-02 
538	 0.030263461641524 
539	 3.02828989237964E-02 
540	 3.04969971819546E-02 
541	 3.06352730434864E-02 
542	 3.06288104138114E-02 
543	 3.06159886285538E-02 
544	 3.08908959325335E-02 
545	 3.12193290711145E-02 
546	 3.14510933810445E-02 
547	 3.18582488072998E-02 
548	 3.21670393805875E-02 
549	 3.24973177585496E-02 
550	 3.30570885072046E-02 
551	 0.033504711762781 
552	 3.39463870607133E-02 
553	 3.44580240632705E-02 
554	 0.035035324991569 
555	 3.56915599298202E-02 
556	 3.64555313939903E-02 
557	 3.73358404738679E-02 
558	 3.82479112022796E-02 
559	 3.93202345351077E-02 
560	 0.040507203837397 
561	 4.16838531974253E-02 
562	 4.30916003937017E-02 
563	 4.46244286363187E-02 
564	 4.62484162101708E-02 
565	 4.81228618126318E-02 
566	 5.01180365275924E-02 
567	 5.22616155817585E-02 
568	 5.46220479661924E-02 
569	 5.72077196842182E-02 
570	 5.99533123119193E-02 
571	 6.28504254373693E-02 
572	 0.065951072287545 
573	 6.92131591777094E-02 
574	 7.27478501741344E-02 
575	 7.66222437207515E-02 
576	 8.06349248000585E-02 
577	 8.48847923524795E-02 
578	 8.93382894537452E-02 
579	 9.39372355240116E-02 
580	 9.88021278338742E-02 
581	 0.103842917885347 
582	 0.109093605568932 
583	 0.11478853993294 
584	 0.120736269726315 
585	 0.12705320892783 
586	 0.133812000968879 
587	 0.140716274441388 
588	 0.148040752393872 
589	 0.156071096896249 
590	 0.164840265528447 
591	 0.173637025329088 
592	 0.182487771483372 
593	 0.191671034103352 
594	 0.201185965713761 
595	 0.211119111266059 
596	 0.221295923704205 
597	 0.231541192726842 
598	 0.241890778617148 
599	 0.252342810426647 
600	 0.262935034708995 
601	 0.273709124863039 
602	 0.284516227093494 
603	 0.295427025410638 
604	 0.30642887392519 
605	 0.317237415166276 
606	 0.328168969280655 
607	 0.339229131242449 
608	 0.350209104525075 
609	 0.361001019790968 
610	 0.371661059500693 
611	 0.382128955564198 
612	 0.39224690114939 
613	 0.402051553557503 
614	 0.411661298704066 
615	 0.421129165469968 
616	 0.430313877422095 
617	 0.439176632216983 
618	 0.447685027300535 
619	 0.455938312511437 
620	 0.463687861253341 
621	 0.471130725914314 
622	 0.478409156767894 
623	 0.485436236445406 
624	 0.492247619213593 
625	 0.498835289807197 
626	 0.505156251164113 
627	 0.511180117950336 
628	 0.516936121254562 
629	 0.522503826007208 
630	 0.52794011710139 
631	 0.533200388977997 
632	 0.538212029018438 
633	 0.542943905103595 
634	 0.547514301542731 
635	 0.551852071508961 
636	 0.556008625993249 
637	 0.560053169357593 
638	 0.563937997367839 
639	 0.567484584540811 
640	 0.570788998786829 
641	 0.574198603112877 
642	 0.577315021110349 
643	 0.580152609610798 
644	 0.582854275855863 
645	 0.585513514540972 
646	 0.587855989333053 
647	 0.589997317221072 
648	 0.592303965981572 
649	 0.594938171508326 
650	 0.597351540129585 
651	 0.599323117864337 
652	 0.601410700360406 
653	 0.603493220002538 
654	 0.605287338121006 
655	 0.606734279577959 
656	 0.608815609181502 
657	 0.610974982852918 
658	 0.612628876272953 
659	 0.613729530995727 
660	 0.614600850811154 
661	 0.615296454446013 
662	 0.615861052256042 
663	 0.616482923121811 
664	 0.616997104625782 
665	 0.61735699574644 
666	 0.617588854411513 
667	 0.617794588075635 
668	 0.618117967754176 
669	 0.618515318323524 
670	 0.618788095746679 
671	 0.619058768540991 
672	 0.619371928831058 
673	 0.619745986945563 
674	 0.620184449998612 
675	 0.620645658689289 
676	 0.621162759375091 
677	 0.621785190518 
678	 0.622477526518397 
679	 0.623207247411916 
680	 0.624062204408363 
681	 0.625239891424946 
682	 0.626623576511763 
683	 0.628268350324023 
684	 0.630228496258643 
685	 0.632473599767881 
686	 0.634931134156431 
687	 0.637964441881326 
688	 0.641690805313541 
689	 0.645178852405491 
690	 0.64827495033094 
691	 0.651155904161934 
692	 0.653924902210534 
693	 0.656495512700179 
694	 0.65920099445828 
695	 0.662291110922304 
696	 0.665709556493894 
697	 0.66899153201553 
698	 0.671821916196767 
699	 0.674089538414201 
700	 0.67658345316991 
701	 0.67922204493979 
702	 0.681915132360716 
703	 0.68464289539781 
704	 0.687174730072842 
705	 0.689549162149019 
706	 0.691855832095477 
707	 0.694054549860072 
708	 0.69623557837659 
709	 0.698332368039048 
710	 0.700233364544859 
711	 0.702172190887058 
712	 0.704033861106886 
713	 0.705759787763748 
714	 0.707385501656525 
715	 0.708611197909896 
716	 0.709178097001111 
717	 0.709200972563129 
718	 0.709706802826202 
719	 0.711384955799027 
720	 0.714108748763458 
721	 0.717015954736359 
722	 0.719013431507088 
723	 0.720060750054142 
724	 0.720722464869803 
725	 0.722028472282945 
726	 0.723572757734238 
727	 0.725067647965137 
728	 0.726450383438761 
729	 0.728045424025105 
730	 0.72947690764995 
731	 0.730995316380639 
732	 0.732937923721891 
733	 0.734795199145167 
734	 0.736215609310324 
735	 0.737260432509294 
736	 0.738310106723614 
737	 0.739642964328215 
738	 0.740815888972624 
739	 0.74166963603226 
740	 0.742878682566199 
741	 0.743851205122575 
742	 0.744684056040934 
743	 0.745614930254599 
744	 0.746445711638763 
745	 0.747199438118127 
746	 0.747878580669594 
747	 0.74847110069473 
748	 0.749026980655273 
749	 0.749630414164833 
750	 0.750297851648647 
751	 0.750928299950067 
752	 0.751568985963074 
753	 0.752128895563241 
754	 0.752563518849505 
755	 0.75312879396288 
756	 0.75356343253912 
757	 0.753660187517969 
758	 0.753325401678566 
759	 0.75290538179441 
760	 0.753715016497319 
761	 0.75659111028807 
762	 0.75867646247081 
763	 0.759215952762877 
764	 0.75937409818978 
765	 0.759770855229246 
766	 0.759748699712132 
767	 0.759585536123226 
768	 0.759504060035105 
769	 0.759629365442765 
770	 0.759686154086722 
771	 0.760059928605696 
772	 0.760670674409673 
773	 0.761050125568331 
774	 0.761334609093693 
775	 0.761660702210862 
776	 0.762082360013896 
777	 0.762512072640069 
778	 0.762821420997895 
779	 0.763217266555763 
780	 0.763824103766608 
781	 0.764158741481256 
782	 0.764456638068497 
783	 0.764818789530644 
784	 0.765247860259005 
785	 0.765634506333009 
786	 0.765989213773397 
787	 0.766276277716415 
788	 0.766416430039597 
789	 0.766724702456396 
790	 0.767138007339587 
791	 0.767554704859936 
792	 0.767936568384617 
793	 0.768755581794342 
794	 0.769566538691531 
795	 0.76987360195384 
796	 0.770260200974285 
797	 0.770648569204992 
798	 0.77102205834382 
799	 0.771396405718295 
800	 0.771731531563967 
801	 0.77213102294819 
802	 0.772601497581521 
803	 0.773045427883816 
804	 0.773803440651916 
805	 0.774566642406189 
806	 0.775061686823109 
807	 0.775358340158867 
808	 0.77563703060957 
809	 0.775869819262555 
810	 0.77592996075607 
811	 0.775630343147549 
812	 0.775206715068699 
813	 0.77471869251629 
814	 0.774165334497672 
815	 0.773879170120948 
816	 0.774041046458419 
817	 0.774616047604833 
818	 0.775372145479364 
819	 0.776666122516353 
820	 0.77765195607296 
821	 0.777967515778378 
822	 0.778330172989177 
823	 0.778640933145882 
824	 0.779271437822239 
825	 0.780327285325067 
826	 0.781003117256271 
827	 0.78126324380339 
828	 0.781339719274321 
829	 0.78157175967173 
830	 0.782052137757179 
831	 0.78279805468516 
832	 0.783466184413828 
833	 0.783655752526357 
834	 0.784757769963225 
835	 0.785708055065942 
836	 0.786165882470548 
837	 0.78695493871505 
838	 0.787642156010917 
839	 0.788193186040909 
840	 0.788667538484667 
841	 0.789168034542379 
842	 0.789643443021387 
843	 0.790062566875438 
844	 0.790447801758237 
845	 0.790996766237035 
846	 0.791398845986412 
847	 0.791649505756446 
848	 0.791899524781622 
849	 0.792244805526946 
850	 0.792721521053371 
851	 0.793241636033135 
852	 0.793645180956893 
853	 0.793950551164759 
854	 0.794330007054285 
855	 0.794960305097954 
856	 0.795921869403358 
857	 0.796534115753271 
858	 0.796777135450084 
859	 0.796873350575872 
860	 0.797181996513769 
861	 0.797639768849072 
862	 0.798039709896052 
863	 0.798283808591708 
864	 0.798660195444605 
865	 0.798987928051802 
866	 0.799341524408687 
867	 0.799865394098915 
868	 0.800677514552123 
869	 0.801052598143809 
870	 0.801041386599361 
871	 0.801113826166455 
872	 0.801640471940109 
873	 0.802187713609089 
874	 0.802603356397554 
875	 0.803001017670991 
876	 0.803592190868886 
877	 0.803972205930911 
878	 0.804180152967989 
879	 0.804683920415112 
880	 0.804884141435509 
881	 0.805212131062768 
882	 0.805824009511279 
883	 0.806298775370063 
884	 0.806291740247349 
885	 0.806477772687158 
886	 0.807051115857089 
887	 0.806968401955913 
888	 0.80703829116153 
889	 0.807307395236592 
890	 0.80761923553845 
891	 0.807884931210604 
892	 0.807300887874455 
893	 0.806600700859252 
894	 0.806551628128817 
895	 0.806047223463681 
896	 0.805730503729431 
897	 0.805271332480337 
898	 0.804406280017335 
899	 0.805047342312973 
900	 0.80593182886014 
901	 0.806639787116216 
902	 0.807269194398783 
903	 0.807631617345839 
904	 0.808044283143445 
905	 0.808549867826408 
906	 0.808889226631674 
907	 0.808174811125062 
908	 0.807883086012672 
909	 0.808117347932125 
910	 0.807797365766611 
911	 0.807768992012133 
912	 0.807576685043732 
913	 0.80762362089546 
914	 0.808936495401114 
915	 0.809289300886291 
916	 0.809445274337795 
917	 0.810190014954891 
918	 0.811648095064577 
919	 0.811756201570975 
920	 0.811850439216396 
921	 0.812674570951063 
922	 0.813460937146067 
923	 0.812930191642889 
924	 0.811719790672986 
925	 0.810719603646223 
926	 0.810474504770044 
927	 0.808865620651766 
928	 0.806789318879475 
929	 0.804891938214119 
930	 0.801990692275693 
931	 0.799591942984627 
932	 0.796758930206719 
933	 0.793490254186287 
934	 0.793152444814007 
935	 0.792258148693114 
936	 0.791981186619794 
937	 0.793372803381973 
938	 0.794852233680533 
939	 0.79564398420313 
940	 0.795691631618057 
941	 0.795618829487509 
942	 0.796808182108616 
943	 0.796648858315614 
944	 0.7950167698615 
945	 0.793096320610013 
946	 0.793285887847692 
947	 0.792254415061907 
948	 0.791575913940264 
949	 0.792462041322794 
950	 0.792688185869386 
951	 0.792070952733223 
952	 0.791627137150661 
953	 0.791748139511023 
954	 0.790882163522591 
955	 0.791182606954834 
956	 0.792296107280452 
957	 0.792718262866329 
958	 0.790265533449049 
959	 0.789469713637108 
960	 0.790606964237704 
961	 0.792255105613154 
962	 0.792248962222512 
963	 0.793250271182751 
964	 0.795009202698018 
965	 0.796667245650903 
966	 0.797609911754849 
967	 0.79797487020487 
968	 0.798301030388957 
969	 0.798634061946776 
970	 0.798217622129262 
971	 0.798919733249936 
972	 0.799924686925153 
973	 0.800743737612077 
974	 0.802021590975174 
975	 0.801234467772146 
976	 0.80046625504721 
977	 0.801313860964554 
978	 0.803299114355995 
979	 0.804074528248094 
980	 0.804280859417741 
981	 0.804664384431854 
982	 0.805315341597034 
983	 0.804873003915373 
984	 0.805580148782182 
985	 0.806790080008104 
986	 0.805818868143043 
987	 0.808917891719084 
988	 0.810506418636154 
989	 0.809624729960837 
990	 0.809728793248178 
991	 0.810866365211663 
992	 0.813087081084087 
993	 0.814877532688912 
994	 0.814501095159918 
995	 0.813644345796754 
996	 0.814542446678355 
997	 0.815886005932552 
998	 0.815317383798599 
999	 0.814174310903862 
1000	 0.81419772578795 
1001	 0.809521002742856 
1002	 0.810013041318158 
1003	 0.810587802451989 
1004	 0.81113077676937 
1005	 0.811654369119821 
1006	 0.812111325257443 
1007	 0.812702342321331 
1008	 0.81321194427521 
1009	 0.813903101026501 
1010	 0.81486182055009 
1011	 0.815713270174634 
1012	 0.816213395884367 
1013	 0.816885093000629 
1014	 0.817291941370575 
1015	 0.817756057820852 
1016	 0.818571288360669 
1017	 0.819412009216779 
1018	 0.820098855862745 
1019	 0.820712799431262 
1020	 0.821346149353454 
1021	 0.821890249209931 
1022	 0.822437107315934 
1023	 0.822967120744142 
1024	 0.823672299193851 
1025	 0.82422794172254 
1026	 0.824675947727561 
1027	 0.825305898271204 
1028	 0.825929872887067 
1029	 0.826609542350981 
1030	 0.82739768949481 
1031	 0.828055278595124 
1032	 0.828735889682529 
1033	 0.829363614604063 
1034	 0.829869710697935 
1035	 0.830449652375954 
1036	 0.831062953772344 
1037	 0.831582940352083 
1038	 0.832060104494577 
1039	 0.832571861043843 
1040	 0.833019710004632 
1041	 0.833549249063288 
1042	 0.83383550461522 
1043	 0.834137063571274 
1044	 0.834470193998508 
1045	 0.834780953496375 
1046	 0.835386249056151 
1047	 0.835693952583974 
1048	 0.835904026703665 
1049	 0.836386499289367 
1050	 0.836742970759986 
1051	 0.836970220780382 
1052	 0.837399595628647 
1053	 0.837840569325031 
1054	 0.837941692905154 
1055	 0.838107304826682 
1056	 0.838345831804273 
1057	 0.838539440204614 
1058	 0.838606201573957 
1059	 0.838645971599048 
1060	 0.838807486049444 
1061	 0.838980210629457 
1062	 0.839151551412527 
1063	 0.839312177527884 
1064	 0.839379051736188 
1065	 0.839360599950157 
1066	 0.839199638740472 
1067	 0.839144037551503 
1068	 0.83911989359847 
1069	 0.839103882204694 
1070	 0.839276043174544 
1071	 0.839421512683935 
1072	 0.839492130354627 
1073	 0.839670969437352 
1074	 0.839662530595761 
1075	 0.839467646016894 
1076	 0.839526579629637 
1077	 0.839363510443339 
1078	 0.839004745801921 
1079	 0.8390035865761 
1080	 0.838944846599858 
1081	 0.838826602519156 
1082	 0.838686563267234 
1083	 0.838685417135253 
1084	 0.838485121222234 
1085	 0.838221960947777 
1086	 0.837938234755325 
1087	 0.837614239263739 
1088	 0.837379735184503 
1089	 0.837243571350006 
1090	 0.837169264698067 
1091	 0.836999666270273 
1092	 0.836698169169903 
1093	 0.836319350950016 
1094	 0.835836306358085 
1095	 0.835231668190817 
1096	 0.834688235502159 
1097	 0.834149895502113 
1098	 0.833628222232088 
1099	 0.833089360456091 
1100	 0.832623081644035 
1101	 0.832161140891114 
1102	 0.831499966010626 
1103	 0.8305999155986 
1104	 0.829829832088419 
1105	 0.829212175881985 
1106	 0.828430127109218 
1107	 0.827591068815197 
1108	 0.826557498009588 
1109	 0.825160431169174 
1110	 0.82355414702243 
1111	 0.822057852681025 
1112	 0.820666412459688 
1113	 0.818951611578288 
1114	 0.816912833400426 
1115	 0.814908258552119 
1116	 0.812708387577732 
1117	 0.810103618178167 
1118	 0.807816625725308 
1119	 0.805864682168347 
1120	 0.803689817776391 
1121	 0.801853518145225 
1122	 0.800526534767303 
1123	 0.799465980950706 
1124	 0.798550854404098 
1125	 0.797971666832721 
1126	 0.797480968403611 
1127	 0.796980116487502 
1128	 0.796656148195844 
1129	 0.796839925892558 
1130	 0.796727737573798 
1131	 0.796834990723143 
1132	 0.796495490269896 
1133	 0.796013833462855 
1134	 0.79519554424075 
1135	 0.794346694190635 
1136	 0.793128541762858 
1137	 0.792033624610443 
1138	 0.791056506257908 
1139	 0.789481331897127 
1140	 0.787519239421312 
1141	 0.785516172833066 
1142	 0.783353471350674 
1143	 0.781283794880441 
1144	 0.779174354049251 
1145	 0.777290218896864 
1146	 0.775262656575519 
1147	 0.773730936631466 
1148	 0.772562276921973 
1149	 0.771522288659547 
1150	 0.770777874518011 
1151	 0.770206365960709 
1152	 0.76973831831211 
1153	 0.76957401015516 
1154	 0.769626015987732 
1155	 0.76975252326125 
1156	 0.770080938976506 
1157	 0.770542115153626 
1158	 0.770933792792923 
1159	 0.771417215994716 
1160	 0.771771398233834 
1161	 0.7720360859185 
1162	 0.772287732573393 
1163	 0.772497182396091 
1164	 0.772716426055851 
1165	 0.772935504270605 
1166	 0.773103401405754 
1167	 0.773207911065925 
1168	 0.773412508985869 
1169	 0.773638938956388 
1170	 0.773909019819182 
1171	 0.774057717464991 
1172	 0.774228811526495 
1173	 0.77426204739673 
1174	 0.774165733323406 
1175	 0.774358003252891 
1176	 0.774522309823059 
1177	 0.77461637353778 
1178	 0.774780267213109 
1179	 0.77480367314537 
1180	 0.774656317378083 
1181	 0.77461436227349 
1182	 0.774550774443231 
1183	 0.774512279281094 
1184	 0.774534496850326 
1185	 0.774490198845439 
1186	 0.774347758064127 
1187	 0.774355147826019 
1188	 0.774419106616062 
1189	 0.774451831872844 
1190	 0.774681550280503 
1191	 0.774846367980329 
1192	 0.774940371253318 
1193	 0.77506909740355 
1194	 0.775132310675457 
1195	 0.775132675130811 
1196	 0.775193891804366 
1197	 0.775219197881976 
1198	 0.775306849848231 
1199	 0.775458093252275 
1200	 0.775587691783401 
1201	 0.775706915286112 
1202	 0.775895077350284 
1203	 0.776083981988235 
1204	 0.776341375288077 
1205	 0.776707714646613 
1206	 0.777019777238889 
1207	 0.777337034932861 
1208	 0.77767041080928 
1209	 0.777991502277771 
1210	 0.778292549971236 
1211	 0.778716746406602 
1212	 0.77918642778486 
1213	 0.779607770690575 
1214	 0.780080003425544 
1215	 0.780469353422467 
1216	 0.780766042851458 
1217	 0.781155863734462 
1218	 0.78155543801916 
1219	 0.781971989125907 
1220	 0.782434525718284 
1221	 0.782887726482117 
1222	 0.783308935932233 
1223	 0.783806212300456 
1224	 0.78436850752739 
1225	 0.784913167801158 
1226	 0.785595527925425 
1227	 0.786092675861836 
1228	 0.786481291834575 
1229	 0.786826757209791 
1230	 0.787239972118185 
1231	 0.787599032911934 
1232	 0.788015492478744 
1233	 0.788575398146776 
1234	 0.788987082752504 
1235	 0.789281341227747 
1236	 0.789674038844199 
1237	 0.790094299080111 
1238	 0.790480081957356 
1239	 0.790893021661134 
1240	 0.791272725809131 
1241	 0.791597354655499 
1242	 0.791948555936102 
1243	 0.792340526562844 
1244	 0.792680697850884 
1245	 0.792987736792009 
1246	 0.793304844192124 
1247	 0.793620770513653 
1248	 0.793890254361742 
1249	 0.794134286241761 
1250	 0.794387020203676 
1251	 0.794625721716842 
1252	 0.794805118153517 
1253	 0.795040317286194 
1254	 0.795297138336606 
1255	 0.795574637242175 
1256	 0.795855178775405 
1257	 0.796176787060531 
1258	 0.796642242668208 
1259	 0.796881588481626 
1260	 0.796980904123322 
1261	 0.797199899831328 
1262	 0.797296628522799 
1263	 0.79750998900437 
1264	 0.797951865957233 
1265	 0.798219923212024 
1266	 0.798462438134261 
1267	 0.798597124211056 
1268	 0.798624990753209 
1269	 0.798620502900906 
1270	 0.798475920067982 
1271	 0.798373359364962 
1272	 0.798324334632375 
1273	 0.798167892825429 
1274	 0.797976060717798 
1275	 0.797751540194282 
1276	 0.797524268204289 
1277	 0.797259071161625 
1278	 0.796927803601415 
1279	 0.796607560502728 
1280	 0.796188498293414 
1281	 0.795603470869729 
1282	 0.795130246658749 
1283	 0.794703238740734 
1284	 0.794198129630831 
1285	 0.793716935404759 
1286	 0.79315280376733 
1287	 0.792507602645474 
1288	 0.79183839465726 
1289	 0.791149822223444 
1290	 0.79039417839393 
1291	 0.789572371911496 
1292	 0.788717087974348 
1293	 0.787727147739452 
1294	 0.786823612843663 
1295	 0.786058675910086 
1296	 0.785083641072257 
1297	 0.784066572715045 
1298	 0.783062774389971 
1299	 0.781903110711187 
1300	 0.780517186745535 
1301	 0.779263274725712 
1302	 0.777980991552669 
1303	 0.776732813411909 
1304	 0.775548539572889 
1305	 0.774240230693924 
1306	 0.772889765284019 
1307	 0.771516772350249 
1308	 0.770076866775672 
1309	 0.768594216333997 
1310	 0.767135336096244 
1311	 0.765551541452598 
1312	 0.763816537733615 
1313	 0.762106134983661 
1314	 0.760317834802017 
1315	 0.758565686231407 
1316	 0.756940841263453 
1317	 0.755122886677337 
1318	 0.753199796962737 
1319	 0.751246709508535 
1320	 0.74907521935643 
1321	 0.746963489029308 
1322	 0.744846155989745 
1323	 0.742773268683953 
1324	 0.740474948829667 
1325	 0.738040797155645 
1326	 0.735545178028037 
1327	 0.732822992848768 
1328	 0.730115807547763 
1329	 0.72728956563503 
1330	 0.724546495389412 
1331	 0.721701636620132 
1332	 0.719063519909833 
1333	 0.716701595675893 
1334	 0.714224318098258 
1335	 0.711773073445517 
1336	 0.70941212265742 
1337	 0.707024066126694 
1338	 0.704678691099286 
1339	 0.702453018757296 
1340	 0.700003538871634 
1341	 0.697126222859622 
1342	 0.694301451575051 
1343	 0.69083969835362 
1344	 0.68755314978083 
1345	 0.684160249773937 
1346	 0.680265292173801 
1347	 0.676160657423529 
1348	 0.671747680724595 
1349	 0.667108418673294 
1350	 0.661849863477907 
1351	 0.656370705829156 
1352	 0.651295637771543 
1353	 0.645269901863292 
1354	 0.641172532199741 
1355	 0.633731258684388 
1356	 0.628118637004237 
1357	 0.618454815153329 
1358	 0.607971704800658 
1359	 0.59292652227439 
1360	 0.589429646268756 
1361	 0.573610637607963 
1362	 0.569387099802845 
1363	 0.546456354593666 
1364	 0.511705627108842 
1365	 0.497494881411533 
1366	 0.512152253510245 
1367	 0.50915839368839 
1368	 0.518521731179119 
1369	 0.520309091864925 
1370	 0.507766820727071 
1371	 0.504572247691812 
1372	 0.511722709965813 
1373	 0.510860531774586 
1374	 0.507607239265471 
1375	 0.502673857855267 
1376	 0.49563683306668 
1377	 0.487482953915102 
1378	 0.485023849182775 
1379	 0.486544943028024 
1380	 0.482661705403882 
1381	 0.481129586618113 
1382	 0.474239892682158 
1383	 0.462371795790612 
1384	 0.452483206347291 
1385	 0.442964565767035 
1386	 0.434728677362941 
1387	 0.426623638743674 
1388	 0.42097914225388 
1389	 0.419787377559168 
1390	 0.413222139567265 
1391	 0.403331960675367 
1392	 0.397733478815817 
1393	 0.392044511215729 
1394	 0.386085655990049 
1395	 0.383499712123276 
1396	 0.378409437093255 
1397	 0.37053178205005 
1398	 0.363973537748193 
1399	 0.356693087696158 
1400	 0.351448568837058 
1401	 0.348952061339452 
1402	 0.343875903190375 
1403	 0.339600627387252 
1404	 0.334338900421398 
1405	 0.327649289198409 
1406	 0.320697692507467 
1407	 0.315781865721358 
1408	 0.311759801058442 
1409	 0.308647168011943 
1410	 0.306521034706131 
1411	 0.304155994908288 
1412	 0.302419822696281 
1413	 0.300049597340675 
1414	 0.297563161428337 
1415	 0.295263312645563 
1416	 0.292805894443492 
1417	 0.290965381502955 
1418	 0.289216398731758 
1419	 0.287877529114562 
1420	 0.286915141609356 
1421	 0.285875132454565 
1422	 0.284983666975389 
1423	 0.284117422627702 
1424	 0.283387601076168 
1425	 0.282388783410711 
1426	 0.281166311128217 
1427	 0.280210773011716 
1428	 0.279214390033267 
1429	 0.278206536754194 
1430	 0.277297159412581 
1431	 0.27641682708911 
1432	 0.275379742896488 
1433	 0.274425461571553 
1434	 0.273515760263818 
1435	 0.272818993225643 
1436	 0.272212843596277 
1437	 0.271655218309715 
1438	 0.27118395786091 
1439	 0.270894631306646 
1440	 0.270808276610687 
1441	 0.270613840495255 
1442	 0.270367608223516 
1443	 0.270397591984611 
1444	 0.270379084277539 
1445	 0.27047232693229 
1446	 0.271175589149067 
1447	 0.271931703559375 
1448	 0.272409536657608 
1449	 0.272835696235163 
1450	 0.273359019583158 
1451	 0.273692620859829 
1452	 0.274294064702089 
1453	 0.275169588287551 
1454	 0.275768637642434 
1455	 0.276341439174731 
1456	 0.27683034570966 
1457	 0.277233036487975 
1458	 0.277667462052596 
1459	 0.278090259337007 
1460	 0.278574630371599 
1461	 0.279163916430506 
1462	 0.279656500112562 
1463	 0.280057186212197 
1464	 0.280703693518181 
1465	 0.281264415887994 
1466	 0.282265210991964 
1467	 0.283726960886114 
1468	 0.285181002586386 
1469	 0.286827232134966 
1470	 0.288555051662295 
1471	 0.290168907047018 
1472	 0.29206789990719 
1473	 0.293971857504759 
1474	 0.296137391087227 
1475	 0.298642372533566 
1476	 0.300910369795662 
1477	 0.303087865213322 
1478	 0.305399359978924 
1479	 0.30744264377629 
1480	 0.309839997201725 
1481	 0.312547993414725 
1482	 0.315180942463513 
1483	 0.31783937090501 
1484	 0.320551661499361 
1485	 0.323233671270475 
1486	 0.325947205820353 
1487	 0.328669853166704 
1488	 0.331391420670704 
1489	 0.334113987588109 
1490	 0.336757265997801 
1491	 0.339475028907226 
1492	 0.342113170318082 
1493	 0.344617590418994 
1494	 0.347135820743227 
1495	 0.34961284344805 
1496	 0.352078279544109 
1497	 0.354502146192859 
1498	 0.356965336318616 
1499	 0.359387895737249 
1500	 0.361782113436038 
1501	 0.364258497015862 
1502	 0.366735447785012 
1503	 0.369390242258328 
1504	 0.372216442025478 
1505	 0.374859828681006 
1506	 0.377590398926454 
1507	 0.380146811072711 
1508	 0.382467402227823 
1509	 0.384946125311392 
1510	 0.387469877090401 
1511	 0.389926476786611 
1512	 0.392415278048782 
1513	 0.394839279034649 
1514	 0.397202413589901 
1515	 0.399605891063993 
1516	 0.402038611495467 
1517	 0.404432239841951 
1518	 0.406820179123444 
1519	 0.409234899880492 
1520	 0.411653293303686 
1521	 0.414067911107726 
1522	 0.416546481462154 
1523	 0.41894299348026 
1524	 0.421275959733814 
1525	 0.423638686242519 
1526	 0.4260694286636 
1527	 0.428343974662716 
1528	 0.43057168146376 
1529	 0.432756886171613 
1530	 0.434778743301407 
1531	 0.436873970054605 
1532	 0.438941968321412 
1533	 0.441111112712718 
1534	 0.443389301004539 
1535	 0.445589339135065 
1536	 0.447861476562394 
1537	 0.450053414115556 
1538	 0.452195581323192 
1539	 0.454246125444628 
1540	 0.456188173413616 
1541	 0.458184912318274 
1542	 0.460110627573012 
1543	 0.462063096742836 
1544	 0.46409899385785 
1545	 0.466089889520481 
1546	 0.468105148268193 
1547	 0.47000103434885 
1548	 0.471814522304279 
1549	 0.473631500203805 
1550	 0.475354861002963 
1551	 0.477091015492269 
1552	 0.478869535152338 
1553	 0.480609384012465 
1554	 0.482281605751428 
1555	 0.483978403054267 
1556	 0.485693226162506 
1557	 0.487385056009574 
1558	 0.489072594860873 
1559	 0.490750896833038 
1560	 0.492409435661241 
1561	 0.494069436626231 
1562	 0.495829658601461 
1563	 0.497440888565348 
1564	 0.498927351536004 
1565	 0.500437466969058 
1566	 0.501954410734932 
1567	 0.503399902322642 
1568	 0.504971155084295 
1569	 0.506687642952473 
1570	 0.508263978146002 
1571	 0.509810254798073 
1572	 0.51133983084533 
1573	 0.512800652581157 
1574	 0.514333835219479 
1575	 0.515905276265947 
1576	 0.517326194806998 
1577	 0.518660557718319 
1578	 0.520103219750678 
1579	 0.521500585012815 
1580	 0.522826795139095 
1581	 0.524217604892939 
1582	 0.52551715909111 
1583	 0.526643476077603 
1584	 0.527876241774282 
1585	 0.529192849155557 
1586	 0.530432666047211 
1587	 0.53160218379217 
1588	 0.53284692907111 
1589	 0.534170567821543 
1590	 0.535348891895605 
1591	 0.536455117931452 
1592	 0.53766004557539 
1593	 0.538857196583856 
1594	 0.539985813665433 
1595	 0.541227043873866 
1596	 0.542240074925324 
1597	 0.543001142178923 
1598	 0.543993640662055 
1599	 0.544978786331674 
1600	 0.546068092157664 
1601	 0.54732920413836 
1602	 0.548433863938479 
1603	 0.54951759634049 
1604	 0.550592722689393 
1605	 0.551631779629461 
1606	 0.552598109941249 
1607	 0.553536140921826 
1608	 0.554445943664005 
1609	 0.555251579066975 
1610	 0.556108088519353 
1611	 0.556982963011381 
1612	 0.557832223525891 
1613	 0.558628593343723 
1614	 0.559500890658875 
1615	 0.560438721733342 
1616	 0.56128636587356 
1617	 0.562133747920719 
1618	 0.56293883756408 
1619	 0.563634721098197 
1620	 0.564454171289517 
1621	 0.565369668722728 
1622	 0.566158063434332 
1623	 0.566985048853227 
1624	 0.567639774973213 
1625	 0.568068904350315 
1626	 0.568723421562277 
1627	 0.569439556068351 
1628	 0.570081870331768 
1629	 0.570817445900118 
1630	 0.571461922675282 
1631	 0.57196863619701 
1632	 0.572556848520855 
1633	 0.573252265521406 
1634	 0.573758186037488 
1635	 0.574149142361378 
1636	 0.574604917199638 
1637	 0.574948264644186 
1638	 0.575475223599882 
1639	 0.576179564607696 
1640	 0.576673664714349 
1641	 0.577177097490164 
1642	 0.577549903141592 
1643	 0.577718441784114 
1644	 0.578010411637367 
1645	 0.578346655198247 
1646	 0.578570094813031 
1647	 0.57869740125049 
1648	 0.57900435533257 
1649	 0.579312362553799 
1650	 0.579658636884306 
1651	 0.580157103294022 
1652	 0.580562807035122 
1653	 0.580933074731588 
1654	 0.581199799657266 
1655	 0.581473024734914 
1656	 0.581672242194382 
1657	 0.581683458100816 
1658	 0.582038823727997 
1659	 0.582260731041569 
1660	 0.582516228364654 
1661	 0.582853297693701 
1662	 0.583108255321959 
1663	 0.583517857101194 
1664	 0.583977307404372 
1665	 0.584306343852719 
1666	 0.584746083172137 
1667	 0.585055234110062 
1668	 0.585372401327043 
1669	 0.585845279314768 
1670	 0.586181557021491 
1671	 0.5866330557816 
1672	 0.58702081279821 
1673	 0.587238233001905 
1674	 0.587440061384472 
1675	 0.587601507177488 
1676	 0.587773138966644 
1677	 0.587911567091738 
1678	 0.587985420175602 
1679	 0.587928745447123 
1680	 0.587817660108037 
1681	 0.587735165738554 
1682	 0.587729404120898 
1683	 0.587716194875533 
1684	 0.587665445955024 
1685	 0.58757413635085 
1686	 0.587290909462979 
1687	 0.587007995367709 
1688	 0.586801182985402 
1689	 0.586603444699317 
1690	 0.586235932534744 
1691	 0.58590004303405 
1692	 0.585440864240014 
1693	 0.585009952251505 
1694	 0.584720547168738 
1695	 0.584349808864389 
1696	 0.583828123083567 
1697	 0.58337468915671 
1698	 0.583010298085232 
1699	 0.58251272643146 
1700	 0.581960936370767 
1701	 0.581449598347352 
1702	 0.580838365924856 
1703	 0.580248476543927 
1704	 0.579789808419477 
1705	 0.57916049802951 
1706	 0.578448915378622 
1707	 0.577655104371423 
1708	 0.576657831205798 
1709	 0.57581920042565 
1710	 0.574969362676899 
1711	 0.574181741451305 
1712	 0.573564326115183 
1713	 0.572786438914886 
1714	 0.57186522177572 
1715	 0.571151077087538 
1716	 0.570518490127363 
1717	 0.56978921849034 
1718	 0.569245571815201 
1719	 0.568399153307301 
1720	 0.56726710532737 
1721	 0.566240562484879 
1722	 0.564949414300001 
1723	 0.564214293045819 
1724	 0.563872348884989 
1725	 0.563182027307216 
1726	 0.562668845339819 
1727	 0.561974528051424 
1728	 0.560892766184563 
1729	 0.560230005335671 
1730	 0.55991946256987 
1731	 0.559250716654774 
1732	 0.558456662157774 
1733	 0.557544643543601 
1734	 0.556582513711882 
1735	 0.555735672766714 
1736	 0.554937744978309 
1737	 0.554007956694005 
1738	 0.552992671246141 
1739	 0.551985295303185 
1740	 0.550956362719639 
1741	 0.549940646091835 
1742	 0.549172856382011 
1743	 0.548262797726236 
1744	 0.54709835489613 
1745	 0.546037451663539 
1746	 0.544925191446563 
1747	 0.543898422735908 
1748	 0.542845162371559 
1749	 0.541775844325562 
1750	 0.540574410115543 
1751	 0.539047790596232 
1752	 0.537748163203649 
1753	 0.536523261392162 
1754	 0.534939845646885 
1755	 0.533523828926826 
1756	 0.532241001052574 
1757	 0.530745433823185 
1758	 0.529449081601254 
1759	 0.528315385834465 
1760	 0.527034556122658 
1761	 0.525691388695975 
1762	 0.524423815341238 
1763	 0.523189849639191 
1764	 0.521883778901377 
1765	 0.520561333394396 
1766	 0.519243448976955 
1767	 0.517788254834082 
1768	 0.516534222063114 
1769	 0.515487394695821 
1770	 0.51438532368613 
1771	 0.513338508365222 
1772	 0.512120079071024 
1773	 0.510707834371542 
1774	 0.509573611102112 
1775	 0.508713613636336 
1776	 0.508048787122197 
1777	 0.507106435630153 
1778	 0.506061807559514 
1779	 0.505071418693833 
1780	 0.504209351170203 
1781	 0.50357848880679 
1782	 0.502690918439197 
1783	 0.50171543100998 
1784	 0.500854296986796 
1785	 0.500044569702634 
1786	 0.499615721068516 
1787	 0.499252316467041 
1788	 0.498755521675701 
1789	 0.497910210914531 
1790	 0.497045139543629 
1791	 0.496144577921458 
1792	 0.495120347787974 
1793	 0.494921298156868 
1794	 0.494522921834492 
1795	 0.493724382437152 
1796	 0.493123154769567 
1797	 0.491830036968718 
1798	 0.490782418071497 
1799	 0.490517699454567 
1800	 0.489176499469331 
1801	 0.485274459068396 
1802	 0.482497544856453 
1803	 0.481380126926163 
1804	 0.481459645089875 
1805	 0.480470475359187 
1806	 0.480053265898208 
1807	 0.47933248335943 
1808	 0.478301584572675 
1809	 0.475712870424177 
1810	 0.473673976775657 
1811	 0.471786334444565 
1812	 0.469512637546121 
1813	 0.46553300486106 
1814	 0.463432832751998 
1815	 0.463011661495781 
1816	 0.461876269234671 
1817	 0.462845653199693 
1818	 0.462333597209584 
1819	 0.461061104576505 
1820	 0.458114092839512 
1821	 0.456112061859884 
1822	 0.452403899404288 
1823	 0.450826421123538 
1824	 0.453377174184426 
1825	 0.451755113234607 
1826	 0.447089291772515 
1827	 0.444210924281436 
1828	 0.440470043782765 
1829	 0.42977726166932 
1830	 0.425117220383328 
1831	 0.428085314735212 
1832	 0.431837831502381 
1833	 0.450237208401239 
1834	 0.458645989556228 
1835	 0.467724649360222 
1836	 0.47558304794489 
1837	 0.449994663316677 
1838	 0.43499920477273 
1839	 0.424269165167558 
1840	 0.441886766947614 
1841	 0.424230760369306 
1842	 0.379885359337487 
1843	 0.37800097233007 
1844	 0.392013436711995 
1845	 0.390835828970477 
1846	 0.402479258414071 
1847	 0.419712333077148 
1848	 0.43508082510553 
1849	 0.438473452234939 
1850	 0.426712863174972 
1851	 0.419716642428662 
1852	 0.403259164821475 
1853	 0.347873472314814 
1854	 0.33056886933563 
1855	 0.354178432529141 
1856	 0.349098293776978 
1857	 0.337285870014037 
1858	 0.307946267550488 
1859	 0.322045604374867 
1860	 0.344523331794871 
1861	 0.354388694132712 
1862	 0.399042313904624 
1863	 0.410773571694592 
1864	 0.393439335098022 
1865	 0.383752898427827 
1866	 0.371761397944296 
1867	 0.345324867937292 
1868	 0.331635403211923 
1869	 0.321418281209068 
1870	 0.321133409211891 
1871	 0.346469973146463 
1872	 0.350035773374409 
1873	 0.376479251285777 
1874	 0.35194938487211 
1875	 0.290667551074917 
1876	 0.271465082427105 
1877	 0.263594895263493 
1878	 0.251007128540799 
1879	 0.22766838423935 
1880	 0.218525460398691 
1881	 0.216001664125066 
1882	 0.209277188032754 
1883	 0.203469765873659 
1884	 0.212499103100071 
1885	 0.209741920821322 
1886	 0.195819302017931 
1887	 0.185059677283288 
1888	 0.178677203641318 
1889	 0.167451967742052 
1890	 0.163250692803227 
1891	 0.16167038439675 
1892	 0.158000107696629 
1893	 0.159280985928121 
1894	 0.154733547411988 
1895	 0.141246569053609 
1896	 0.135510860805307 
1897	 0.122672295570753 
1898	 0.130405525323606 
1899	 0.155037848350389 
1900	 0.149507636587153 
1901	 0.132933038119184 
1902	 8.33997514996634E-02 
1903	 5.89055841781871E-02 
1904	 1.53560486070192E-02 
1905	 4.53468436494637E-03 
1906	 3.58816208753319E-02 
1907	 6.23775224639491E-02 
1908	 8.93731745263627E-02 
1909	 0.115818073564691 
1910	 0.113180445526039 
1911	 0.111808501199426 
1912	 0.107333071723814 
1913	 8.91862619856785E-02 
1914	 8.44672307381929E-02 
1915	 9.38595914072133E-02 
1916	 8.82545575937255E-02 
1917	 7.82314829058831E-02 
1918	 6.95853611161425E-02 
1919	 6.30242692319375E-02 
1920	 5.32603664409132E-02 
1921	 5.65407198819301E-02 
1922	 6.63142699420343E-02 
1923	 6.74094478025712E-02 
1924	 6.74072354996954E-02 
1925	 6.85584539884967E-02 
1926	 6.52005135564398E-02 
1927	 6.54793832582901E-02 
1928	 6.82300499873644E-02 
1929	 7.21472366750971E-02 
1930	 7.68036136307009E-02 
1931	 7.81187780175716E-02 
1932	 7.81876094885701E-02 
1933	 7.87389053986392E-02 
1934	 7.84767868801655E-02 
1935	 0.076350778981346 
1936	 7.54477422146084E-02 
1937	 7.43092262092719E-02 
1938	 7.45130363204606E-02 
1939	 7.54492540947256E-02 
1940	 7.56751657175948E-02 
1941	 7.56554490748425E-02 
1942	 7.76457843964666E-02 
1943	 7.93668844358212E-02 
1944	 8.00759883793236E-02 
1945	 8.16632705645301E-02 
1946	 8.26751208111964E-02 
1947	 8.28359021474689E-02 
1948	 8.11846927639047E-02 
1949	 8.17026194721127E-02 
1950	 8.28938577103753E-02 
1951	 8.35960032301018E-02 
1952	 8.51683708049772E-02 
1953	 8.58677353213412E-02 
1954	 8.64172292903866E-02 
1955	 8.76172987272365E-02 
1956	 8.96999097289705E-02 
1957	 9.23365443549886E-02 
1958	 9.35587887906165E-02 
1959	 9.38663161464275E-02 
1960	 9.47486118351432E-02 
1961	 9.50846114428328E-02 
1962	 9.54095794142582E-02 
1963	 9.70223371724099E-02 
1964	 0.098066795775475 
1965	 9.94686443800192E-02 
1966	 0.101170062389722 
1967	 0.102120120840391 
1968	 0.103790743084665 
1969	 0.105387169322207 
1970	 0.107156329795456 
1971	 0.108430085516441 
1972	 0.109821315461272 
1973	 0.110592572048931 
1974	 0.11176365534301 
1975	 0.112989547351512 
1976	 0.114060935124051 
1977	 0.115862324835578 
1978	 0.116907992546571 
1979	 0.117414694692421 
1980	 0.118909787331353 
1981	 0.120322990003696 
1982	 0.121429381944902 
1983	 0.122456591758798 
1984	 0.123727413635542 
1985	 0.12496602077139 
1986	 0.126389582278334 
1987	 0.128245594045738 
1988	 0.12990841031275 
1989	 0.131050492274471 
1990	 0.132099705537025 
1991	 0.13324077239434 
1992	 0.134192339461516 
1993	 0.135252207797854 
1994	 0.136911699782729 
1995	 0.138183594169092 
1996	 0.139198748238255 
1997	 0.140623538031141 
1998	 0.142206996626965 
1999	 0.142813838210449 
2000	 0.144231022795613 
2001	 0.146176447111714 
2002	 0.148292026246087 
2003	 0.150916244368302 
2004	 0.153032866761296 
2005	 0.155663325667274 
2006	 0.158106485779742 
2007	 0.160469170888714 
2008	 0.162111253305067 
2009	 0.163758404149198 
2010	 0.164465943652491 
2011	 0.16500603769217 
2012	 0.166367289353934 
2013	 0.168112164336286 
2014	 0.17014506524779 
2015	 0.17214284185512 
2016	 0.173941346579516 
2017	 0.175265535302038 
2018	 0.176095797391616 
2019	 0.177447525825508 
2020	 0.178967978792847 
2021	 0.180474538169999 
2022	 0.181644522330713 
2023	 0.182904822627513 
2024	 0.184261587758219 
2025	 0.185621460326711 
2026	 0.18700303531885 
2027	 0.188482312619819 
2028	 0.18965611279775 
2029	 0.190775524193886 
2030	 0.192368767425104 
2031	 0.193998164162096 
2032	 0.195548895656816 
2033	 0.197433317770368 
2034	 0.198814561921237 
2035	 0.199316039811912 
2036	 0.200291662264218 
2037	 0.201113968484305 
2038	 0.201974942052554 
2039	 0.203614483206756 
2040	 0.204812760742226 
2041	 0.205970704020819 
2042	 0.207442017062868 
2043	 0.208885094078437 
2044	 0.210347680043675 
2045	 0.211518798805148 
2046	 0.212536645659083 
2047	 0.213434556698841 
2048	 0.214226798184803 
2049	 0.215142580752047 
2050	 0.216815458873127 
2051	 0.218539374111819 
2052	 0.220099213192854 
2053	 0.221796480359724 
2054	 0.223017629389666 
2055	 0.224024845426583 
2056	 0.225215381973188 
2057	 0.22656889783152 
2058	 0.228385315879417 
2059	 0.229671773572352 
2060	 0.23083839494032 
2061	 0.231649980835627 
2062	 0.232431695360758 
2063	 0.232840389726658 
2064	 0.233752747020616 
2065	 0.235136248789203 
2066	 0.236406701493199 
2067	 0.237769435088878 
2068	 0.239261375883269 
2069	 0.240868313776919 
2070	 0.242546919015208 
2071	 0.244216553745481 
2072	 0.245734741042667 
2073	 0.247209251819014 
2074	 0.248470594909239 
2075	 0.249637640557281 
2076	 0.250659962305005 
2077	 0.251715483043105 
2078	 0.252863322040597 
2079	 0.253547282036924 
2080	 0.254411611456194 
2081	 0.25544591948527 
2082	 0.25630380318083 
2083	 0.257746396046698 
2084	 0.259014738248055 
2085	 0.260229448481092 
2086	 0.262037963495532 
2087	 0.263373144012779 
2088	 0.264510445619114 
2089	 0.265625366406716 
2090	 0.266857659947768 
2091	 0.267485860150382 
2092	 0.268449807058122 
2093	 0.269894232212651 
2094	 0.270960681506012 
2095	 0.271984649388556 
2096	 0.273055804452548 
2097	 0.274093253864399 
2098	 0.275287537303929 
2099	 0.276759469502882 
2100	 0.278094244045549 
2101	 0.27905987528499 
2102	 0.279975922211524 
2103	 0.280699467093013 
2104	 0.281382828041785 
2105	 0.28248002446281 
2106	 0.283518791504085 
2107	 0.284640239040277 
2108	 0.286114980579499 
2109	 0.287180734378686 
2110	 0.288083858757186 
2111	 0.289108193785725 
2112	 0.289725655206002 
2113	 0.289833566630151 
2114	 0.290503759037409 
2115	 0.291812402839692 
2116	 0.293234559954688 
2117	 0.29460506658422 
2118	 0.296515817210766 
2119	 0.297923607066936 
2120	 0.299096995676276 
2121	 0.299888185811204 
2122	 0.300795254089478 
2123	 0.301426297831307 
2124	 0.302072419420597 
2125	 0.303051250000254 
2126	 0.303386254064058 
2127	 0.304064070285007 
2128	 0.305342233645072 
2129	 0.306198893965008 
2130	 0.307566779550689 
2131	 0.308986280196423 
2132	 0.309430150729342 
2133	 0.31017723376247 
2134	 0.311326876775665 
2135	 0.312773381575917 
2136	 0.314139606946158 
2137	 0.315907801716833 
2138	 0.317332517098464 
2139	 0.317817908212745 
2140	 0.318321272698898 
2141	 0.318963419810502 
2142	 0.319504542725642 
2143	 0.320443038398192 
2144	 0.321473038409593 
2145	 0.321973778994996 
2146	 0.3223143693598 
2147	 0.322485204811399 
2148	 0.322805469241247 
2149	 0.323546005664861 
2150	 0.324204982949616 
2151	 0.325141028829962 
2152	 0.326826666947525 
2153	 0.327701003369221 
2154	 0.328284082146149 
2155	 0.328895683218719 
2156	 0.329179149045332 
2157	 0.328960776447293 
2158	 0.32930210977701 
2159	 0.329912405418937 
2160	 0.33021344125498 
2161	 0.330801061001031 
2162	 0.331313539217061 
2163	 0.331578772349427 
2164	 0.331732584162441 
2165	 0.331998479808996 
2166	 0.331912467991536 
2167	 0.331691471247196 
2168	 0.332267390282686 
2169	 0.333583613762168 
2170	 0.334452516944153 
2171	 0.335672090781139 
2172	 0.336793374632727 
2173	 0.337150602148359 
2174	 0.336976995954466 
2175	 0.33669657575258 
2176	 0.337296610683528 
2177	 0.338116155013136 
2178	 0.338377126141657 
2179	 0.338619589296528 
2180	 0.338459857999979 
2181	 0.337947788730776 
2182	 0.337963699430389 
2183	 0.338504157382754 
2184	 0.339255558868421 
2185	 0.340168357189034 
2186	 0.340676356096845 
2187	 0.34102604802701 
2188	 0.341262220677906 
2189	 0.3415920866305 
2190	 0.341658792812409 
2191	 0.341743499184266 
2192	 0.342311172247696 
2193	 0.342264997941524 
2194	 0.342316330762106 
2195	 0.343277438816852 
2196	 0.343928090774718 
2197	 0.344180681262063 
2198	 0.344234673816644 
2199	 0.343558207407994 
2200	 0.343697411271187 
2201	 0.344628930685156 
2202	 0.345241754548448 
2203	 0.345870587451263 
2204	 0.346200068784054 
2205	 0.346283970145171 
2206	 0.346263956668315 
2207	 0.346130336103287 
2208	 0.346171531036308 
2209	 0.346138453279794 
2210	 0.34604423071745 
2211	 0.345954649041784 
2212	 0.346221986636962 
2213	 0.346159188101314 
2214	 0.346070733501352 
2215	 0.346547417965997 
2216	 0.347364303030434 
2217	 0.347859616367582 
2218	 0.348191834429304 
2219	 0.34832663363101 
2220	 0.348165430606015 
2221	 0.348196233956837 
2222	 0.348142161381308 
2223	 0.347959078357692 
2224	 0.347658386417934 
2225	 0.347647192382776 
2226	 0.348182790302324 
2227	 0.348494384780236 
2228	 0.348484047815167 
2229	 0.347588830833451 
2230	 0.346683498272048 
2231	 0.346219936631868 
2232	 0.345732774936085 
2233	 0.345391969268095 
2234	 0.345697639273863 
2235	 0.345664217997825 
2236	 0.344988275545984 
2237	 0.344146540198596 
2238	 0.343263148965449 
2239	 0.342745916712097 
2240	 0.342229965672857 
2241	 0.342022399514988 
2242	 0.34315526285441 
2243	 0.343453764356049 
2244	 0.342085729435698 
2245	 0.341406363509721 
2246	 0.339561994650447 
2247	 0.33737772906067 
2248	 0.336681957364202 
2249	 0.335991894178291 
2250	 0.336056954913783 
2251	 0.336610637525198 
2252	 0.336971377193916 
2253	 0.336604628332296 
2254	 0.335480343579091 
2255	 0.334259720166442 
2256	 0.333191803792243 
2257	 0.331935249482099 
2258	 0.331541953009725 
2259	 0.331085765835804 
2260	 0.329970694848256 
2261	 0.32880086379324 
2262	 0.328269761472005 
2263	 0.32779411303403 
2264	 0.327411398658816 
2265	 0.32742457365486 
2266	 0.326054179551097 
2267	 0.324940310820688 
2268	 0.324022612358403 
2269	 0.322640100687999 
2270	 0.322805087959528 
2271	 0.322641187499831 
2272	 0.32178987960501 
2273	 0.321725075240711 
2274	 0.320159635379637 
2275	 0.317798899296452 
2276	 0.317633584111823 
2277	 0.317232206898278 
2278	 0.317262221859001 
2279	 0.318158434783021 
2280	 0.31708308939771 
2281	 0.316038204789553 
2282	 0.314998745851596 
2283	 0.313608447377744 
2284	 0.313266041204224 
2285	 0.31268516518195 
2286	 0.311841185937759 
2287	 0.310874607172743 
2288	 0.310200061438171 
2289	 0.308789391809084 
2290	 0.306813499705845 
2291	 0.305175096443368 
2292	 0.304079584443325 
2293	 0.302602093775317 
2294	 0.301293806053049 
2295	 0.300718023449985 
2296	 0.299068561483743 
2297	 0.297613733913449 
2298	 0.296642904994796 
2299	 0.29497352979005 
2300	 0.293807983048333 
2301	 0.292389100935651 
2302	 0.291225207099664 
2303	 0.290430181221842 
2304	 0.289530348587545 
2305	 0.28877510551711 
2306	 0.287878639775446 
2307	 0.287911041653346 
2308	 0.287466595226234 
2309	 0.286517379940903 
2310	 0.285977828232042 
2311	 0.284203396589806 
2312	 0.28245916566763 
2313	 0.280844537279716 
2314	 0.279083795599019 
2315	 0.278433186102715 
2316	 0.277909657755308 
2317	 0.277427205406604 
2318	 0.276493317325226 
2319	 0.275040762923037 
2320	 0.273646482737078 
2321	 0.272476511455806 
2322	 0.271530155130993 
2323	 0.271104641969394 
2324	 0.271360293374197 
2325	 0.270735303931403 
2326	 0.269356818041601 
2327	 0.268368684741368 
2328	 0.266621260108913 
2329	 0.264384492973718 
2330	 0.262709464544917 
2331	 0.261173674660229 
2332	 0.259377341512452 
2333	 0.257835808107843 
2334	 0.257977241025665 
2335	 0.25781949258795 
2336	 0.256540057891704 
2337	 0.25555201715122 
2338	 0.254746289158282 
2339	 0.253139801489743 
2340	 0.252755448046978 
2341	 0.25351978982359 
2342	 0.250795071691392 
2343	 0.249360548615885 
2344	 0.24876204489351 
2345	 0.246600706022733 
2346	 0.247293724351709 
2347	 0.247117026156322 
2348	 0.245841643065421 
2349	 0.244742633535406 
2350	 0.243946501424984 
2351	 0.242975515417293 
2352	 0.241456910083338 
2353	 0.241582649076482 
2354	 0.241083382274361 
2355	 0.241080489847231 
2356	 0.242100177999809 
2357	 0.239607826098841 
2358	 0.235734816012332 
2359	 0.234537425923256 
2360	 0.233348514781396 
2361	 0.231766196440304 
2362	 0.232011239837075 
2363	 0.231431555787649 
2364	 0.228712977119162 
2365	 0.22707305711319 
2366	 0.226340578766596 
2367	 0.224093872377358 
2368	 0.221555780808583 
2369	 0.22124774470217 
2370	 0.222415664602543 
2371	 0.222089804724635 
2372	 0.221251447179785 
2373	 0.221319028664721 
2374	 0.21941982540223 
2375	 0.213501613260453 
2376	 0.212118074188836 
2377	 0.212811520238483 
2378	 0.212247392642468 
2379	 0.214000245710086 
2380	 0.214158274659512 
2381	 0.213428060736765 
2382	 0.211914478900693 
2383	 0.209092020211843 
2384	 0.206905267496506 
2385	 0.202702487940629 
2386	 0.199606348682396 
2387	 0.198000129898784 
2388	 0.197135762249639 
2389	 0.197519121536111 
2390	 0.197506422069454 
2391	 0.197913653298118 
2392	 0.198380900066468 
2393	 0.198722911243965 
2394	 0.198572943177038 
2395	 0.199005373412552 
2396	 0.198178607496485 
2397	 0.195877920286218 
2398	 0.193436494561631 
2399	 0.190043310531514 
2400	 0.188226018554173 
2401	 0.186044163958256 
2402	 0.185995849404677 
2403	 0.186675699133871 
2404	 0.185284964931736 
2405	 0.181690841052101 
2406	 0.176221144156204 
2407	 0.17352883774322 
2408	 0.172029554870964 
2409	 0.173965519758515 
2410	 0.178375002413887 
2411	 0.176407122192226 
2412	 0.172872256248794 
2413	 0.169291963630083 
2414	 0.163176528564624 
2415	 0.161483182733554 
2416	 0.162090543876033 
2417	 0.161216490039036 
2418	 0.161943961788088 
2419	 0.163418714824534 
2420	 0.163919699094875 
2421	 0.164936768597635 
2422	 0.163316530971009 
2423	 0.157573371081543 
2424	 0.155961993489599 
2425	 0.153436757058132 
2426	 0.149811643248153 
2427	 0.149310660033839 
2428	 0.146168507564511 
2429	 0.145376982441247 
2430	 0.144501113144511 
2431	 0.143485093489743 
2432	 0.14354282319558 
2433	 0.136697416477799 
2434	 0.134935758488081 
2435	 0.133952862033575 
2436	 0.134459206147839 
2437	 0.142617100098035 
2438	 0.142294110129469 
2439	 0.134999562391099 
2440	 0.135873053559359 
2441	 0.138345320813453 
2442	 0.138580170891628 
2443	 0.144617803207364 
2444	 0.147140529953398 
2445	 0.13835756312845 
2446	 0.136481379369771 
2447	 0.146601341352819 
2448	 0.145465273133267 
2449	 0.138408504590127 
2450	 0.136575291614929 
2451	 0.129716470434907 
2452	 0.126402344605742 
2453	 0.129398545002594 
2454	 0.128129669059494 
2455	 0.122172779886624 
2456	 0.118624765712156 
2457	 0.118099565424899 
2458	 0.116014081276588 
2459	 0.112720797540539 
2460	 0.114401588880282 
2461	 0.118174808730346 
2462	 0.119881065007881 
2463	 0.125839070383909 
2464	 0.124800919517186 
2465	 0.117844632261636 
2466	 0.111849918826644 
2467	 0.100187491179995 
2468	 9.57916635591872E-02 
2469	 9.29294871350083E-02 
2470	 9.54996324203462E-02 
2471	 0.109518570805025 
2472	 0.115051139617957 
2473	 0.118801640299898 
2474	 0.123423782864692 
2475	 0.126817804188671 
2476	 0.127152705743476 
2477	 0.128667692228449 
2478	 0.121006129876717 
2479	 0.093389591482075 
2480	 7.97266393229748E-02 
2481	 7.50773411146517E-02 
2482	 7.93397301332995E-02 
2483	 9.69113768242024E-02 
2484	 0.104135345929846 
2485	 0.116933252301538 
2486	 0.10897391159305 
2487	 8.66505752639089E-02 
2488	 6.50139090566864E-02 
2489	 2.89395082632118E-02 
2490	-1.36929613850552E-02 
2491	 1.51360500049299E-03 
2492	 2.26278373722107E-02 
2493	 2.63953505558398E-02 
2494	 5.43781013349611E-02 
2495	 4.57942113131572E-02 
2496	 4.64563308027343E-02 
2497	 9.91078006533767E-02 
2498	 0.10849907059411 
2499	 0.116860791051955 
2500	 0.103641401939921 
