Wavelength	ref00064.asd
350	 0.032514591477953 
351	 3.24625658453413E-02 
352	 3.18736456208193E-02 
353	 3.37683239447645E-02 
354	 3.31720694857886E-02 
355	 3.21816625574159E-02 
356	 3.25933634975864E-02 
357	 3.29621677114543E-02 
358	 3.32159262778372E-02 
359	 3.32198579825074E-02 
360	 3.30760688661087E-02 
361	 3.37175681166267E-02 
362	 3.41885974143638E-02 
363	 3.43474750493366E-02 
364	 3.45927492342655E-02 
365	 3.45020422511355E-02 
366	 3.45966861099017E-02 
367	 3.49305846096654E-02 
368	 0.03476600816441 
369	 3.51325469038624E-02 
370	 3.53634278857802E-02 
371	 0.035038844579878 
372	 3.57764630102024E-02 
373	 3.63303034968361E-02 
374	 3.63919620466063E-02 
375	 3.62198855675397E-02 
376	 3.61860274740742E-02 
377	 3.64266565100931E-02 
378	 3.69261752910819E-02 
379	 3.75243061860828E-02 
380	 3.77420802710731E-02 
381	 0.037889356039075 
382	 3.82695283431203E-02 
383	 3.86345932151768E-02 
384	 3.94070940959288E-02 
385	 4.00781947586314E-02 
386	 4.00020190285036E-02 
387	 4.04781302813218E-02 
388	 0.041064993943352 
389	 4.14666081558211E-02 
390	 4.17068967247822E-02 
391	 4.23577216723782E-02 
392	 4.29345892182572E-02 
393	 4.31191808024493E-02 
394	 4.33449640101561E-02 
395	 4.39503369974991E-02 
396	 4.47368764709298E-02 
397	 4.53424205676699E-02 
398	 4.57782084148465E-02 
399	 4.60781482497635E-02 
400	 4.64856948012822E-02 
401	 4.73266521015565E-02 
402	 4.76230742146368E-02 
403	 4.79530604812264E-02 
404	 4.87062599398139E-02 
405	 4.94693436099215E-02 
406	 5.00570705352511E-02 
407	 5.04507346563241E-02 
408	 5.08006683106729E-02 
409	 5.16780869234859E-02 
410	 5.23441758252044E-02 
411	 5.28130649732252E-02 
412	 5.37412821813026E-02 
413	 5.43878912563753E-02 
414	 5.48686243502278E-02 
415	 5.54193648525212E-02 
416	 5.62400517988269E-02 
417	 5.70394725462204E-02 
418	 5.77055356306819E-02 
419	 5.82370677097489E-02 
420	 5.87910883754715E-02 
421	 5.95301039731616E-02 
422	 6.03059385403023E-02 
423	 6.07494348016565E-02 
424	 0.061393292658382 
425	 6.21023483124776E-02 
426	 6.27240003948835E-02 
427	 6.33240993829157E-02 
428	 6.38272964968409E-02 
429	 6.43342179633657E-02 
430	 6.49669099919054E-02 
431	 6.56182909868052E-02 
432	 6.62864531577755E-02 
433	 6.69275197804268E-02 
434	 6.74739744538942E-02 
435	 0.06811052795722 
436	 0.068631914836522 
437	 6.89991400804528E-02 
438	 6.96618045960806E-02 
439	 7.01499046969926E-02 
440	 7.06579497703769E-02 
441	 7.14657508900661E-02 
442	 7.19952269819521E-02 
443	 7.25289331379949E-02 
444	 0.073091207905564 
445	 7.34375982879029E-02 
446	 7.39185811710605E-02 
447	 7.44490086697118E-02 
448	 7.49495580715108E-02 
449	 7.55705052442689E-02 
450	 7.61261189438704E-02 
451	 7.66129891140631E-02 
452	 7.71108180040368E-02 
453	 7.76713093190731E-02 
454	 7.82090897143075E-02 
455	 7.86931005646801E-02 
456	 7.91693458999714E-02 
457	 7.96888515244829E-02 
458	 8.01236939409293E-02 
459	 8.04477317791536E-02 
460	 0.081067773268949 
461	 8.16204443333996E-02 
462	 8.19993038266364E-02 
463	 8.22750035035877E-02 
464	 8.26918772571587E-02 
465	 8.31448165305993E-02 
466	 8.35618677475062E-02 
467	 8.39792328377518E-02 
468	 0.084494585029229 
469	 8.49686990582749E-02 
470	 8.52969291862481E-02 
471	 8.57742942933697E-02 
472	 8.62224851812283E-02 
473	 8.66643323918471E-02 
474	 8.72377633627913E-02 
475	 8.76282479156853E-02 
476	 8.79506399624104E-02 
477	 8.83380684639402E-02 
478	 8.88510470483832E-02 
479	 8.92573224525241E-02 
480	 8.96623075168765E-02 
481	 9.02108418482497E-02 
482	 9.06120478931691E-02 
483	 9.09567650609553E-02 
484	 9.13504148125682E-02 
485	 9.18818923001694E-02 
486	 9.23596731257258E-02 
487	 9.27980830799674E-02 
488	 9.32773421091547E-02 
489	 0.093952700997579 
490	 9.45301164873776E-02 
491	 9.49991899243079E-02 
492	 9.54746546782186E-02 
493	 0.095918802920063 
494	 9.65151445132975E-02 
495	 9.72437815217772E-02 
496	 9.78242765161513E-02 
497	 9.83579627552302E-02 
498	 9.89683853562515E-02 
499	 9.96985915860272E-02 
500	 0.100276747964151 
501	 0.101057397004016 
502	 0.101981556052765 
503	 0.102755790712323 
504	 0.103567548196373 
505	 0.104260131580389 
506	 0.10490015795046 
507	 0.105988518529113 
508	 0.106841065874171 
509	 0.107555673913848 
510	 0.108432207869592 
511	 0.109505343695233 
512	 0.110578312832752 
513	 0.111550588000083 
514	 0.112434059226674 
515	 0.113480060400138 
516	 0.114581544870308 
517	 0.115640718714739 
518	 0.116770979945605 
519	 0.117889663196439 
520	 0.118988782737569 
521	 0.120077112046079 
522	 0.121053061272802 
523	 0.122036289758955 
524	 0.123049955353815 
525	 0.123983610592388 
526	 0.124877874136148 
527	 0.125859976161824 
528	 0.126958373102778 
529	 0.127853367557992 
530	 0.128638629037173 
531	 0.129419522470196 
532	 0.13028629669842 
533	 0.131078663947003 
534	 0.131831461615632 
535	 0.132580414316111 
536	 0.133328559396281 
537	 0.134105220699673 
538	 0.134810704882637 
539	 0.135368869808452 
540	 0.135981375139731 
541	 0.136716621662736 
542	 0.137475986634036 
543	 0.138041382145773 
544	 0.138588152388797 
545	 0.13921319558067 
546	 0.139915479670026 
547	 0.140494205178291 
548	 0.14114761996436 
549	 0.141823836200826 
550	 0.14239349626075 
551	 0.14295157932199 
552	 0.143468708234921 
553	 0.143925755378145 
554	 0.144325375343401 
555	 0.144813846205458 
556	 0.145303941594198 
557	 0.14571793851246 
558	 0.146230390922725 
559	 0.146640911018451 
560	 0.146931061516146 
561	 0.147218732469398 
562	 0.147648653272841 
563	 0.147899007960902 
564	 0.147926220066364 
565	 0.148285088984715 
566	 0.148574055378082 
567	 0.148749614938088 
568	 0.148898208927116 
569	 0.149156027233449 
570	 0.149260696708045 
571	 0.149278782605898 
572	 0.149571564489974 
573	 0.149765234682678 
574	 0.149927878019845 
575	 0.150178779530777 
576	 0.150578554380564 
577	 0.15084257534233 
578	 0.151002111863911 
579	 0.151222135974795 
580	 0.151375341502847 
581	 0.151502941988305 
582	 0.151618666829132 
583	 0.151680058125191 
584	 0.151820488981528 
585	 0.152054844649748 
586	 0.152340745334735 
587	 0.152572739102887 
588	 0.152797323749144 
589	 0.153022711872951 
590	 0.153231990260476 
591	 0.153520222145432 
592	 0.153803219014982 
593	 0.154052469686671 
594	 0.154373187178412 
595	 0.154669142833447 
596	 0.154905356043912 
597	 0.155100901658544 
598	 0.155412964659012 
599	 0.155733680701102 
600	 0.156042056848038 
601	 0.156408966091585 
602	 0.156704004360901 
603	 0.15697711509461 
604	 0.15726974461474 
605	 0.157501342206621 
606	 0.157717630078243 
607	 0.157935063869466 
608	 0.158159451077852 
609	 0.158428149346422 
610	 0.158704875377683 
611	 0.158940805048775 
612	 0.159082067126092 
613	 0.159309666679462 
614	 0.159535144924086 
615	 0.159673244321872 
616	 0.15995808685733 
617	 0.16015581345828 
618	 0.160300971986703 
619	 0.1606017974118 
620	 0.160876212659863 
621	 0.161167276454008 
622	 0.161498285968018 
623	 0.161791574282958 
624	 0.162137387860615 
625	 0.162539241528494 
626	 0.162963438967834 
627	 0.163381807938851 
628	 0.163786018807134 
629	 0.16418111113498 
630	 0.164578015514689 
631	 0.164956736187765 
632	 0.165317062073595 
633	 0.16563518533165 
634	 0.165800784230536 
635	 0.166052499510694 
636	 0.166327762336395 
637	 0.166438487137635 
638	 0.16640537922041 
639	 0.16634350248211 
640	 0.166267379153957 
641	 0.166056965904942 
642	 0.165907783655051 
643	 0.165803699618867 
644	 0.165681591853609 
645	 0.165529117433229 
646	 0.165302137179684 
647	 0.165081300886163 
648	 0.165004838553946 
649	 0.164942939114756 
650	 0.164964659206442 
651	 0.165089645415458 
652	 0.165226865990839 
653	 0.165416377830575 
654	 0.165587198123055 
655	 0.165685933387702 
656	 0.165867738718881 
657	 0.165962429205417 
658	 0.165971441552577 
659	 0.166032613392548 
660	 0.16594092067737 
661	 0.165790959284176 
662	 0.165678664864521 
663	 0.16563383552068 
664	 0.165459051351935 
665	 0.16521879090683 
666	 0.165065381894472 
667	 0.165058129696329 
668	 0.165111219102284 
669	 0.16515237980785 
670	 0.165146249956468 
671	 0.165307094471872 
672	 0.165566059455105 
673	 0.165819934237959 
674	 0.166003012426533 
675	 0.166380058330195 
676	 0.166860586161212 
677	 0.167261023558559 
678	 0.167773980033599 
679	 0.168421489581675 
680	 0.169168418493217 
681	 0.169936328520206 
682	 0.170839292288214 
683	 0.171976951883941 
684	 0.173402054291162 
685	 0.175082812777305 
686	 0.176821920088511 
687	 0.178832851696399 
688	 0.181250838904989 
689	 0.18357636143896 
690	 0.185987886609101 
691	 0.188679269763272 
692	 0.191575102739975 
693	 0.194505317469721 
694	 0.197438939506868 
695	 0.200381055295262 
696	 0.203446524118996 
697	 0.206485900002066 
698	 0.209468192918592 
699	 0.212394580860535 
700	 0.215258293387528 
701	 0.218078543428835 
702	 0.220831969266899 
703	 0.223440513012256 
704	 0.225938263605138 
705	 0.228364147927899 
706	 0.23075851813979 
707	 0.233095855810785 
708	 0.235310888614125 
709	 0.237471427054466 
710	 0.239660907895815 
711	 0.241718483079991 
712	 0.2437453172344 
713	 0.245776678254675 
714	 0.247751275067541 
715	 0.249730722161659 
716	 0.251673207525168 
717	 0.253613806052985 
718	 0.255710944330801 
719	 0.257647800230158 
720	 0.259376277768476 
721	 0.261030473504305 
722	 0.262481978771402 
723	 0.264024613770589 
724	 0.265774948078945 
725	 0.267433774108154 
726	 0.268907603859076 
727	 0.270297501361175 
728	 0.271723241836934 
729	 0.273104400167305 
730	 0.274476633782598 
731	 0.275767371890186 
732	 0.276906093694397 
733	 0.277973039310514 
734	 0.279107159770767 
735	 0.280264566797887 
736	 0.281226890810882 
737	 0.282232200914745 
738	 0.283292977478299 
739	 0.284378205431598 
740	 0.285415500261643 
741	 0.286361254646482 
742	 0.287270637872554 
743	 0.288200918949014 
744	 0.289084032231756 
745	 0.289920627519209 
746	 0.290762871195817 
747	 0.291677138318053 
748	 0.29247365962565 
749	 0.293219938077353 
750	 0.293979597525941 
751	 0.294745666662689 
752	 0.295459965902683 
753	 0.296127111622611 
754	 0.296784158613977 
755	 0.297491528143931 
756	 0.298295490390355 
757	 0.299070704769381 
758	 0.299633876158267 
759	 0.300095119275636 
760	 0.300799848685224 
761	 0.301995307779143 
762	 0.30307211468132 
763	 0.303720306095863 
764	 0.304217183259034 
765	 0.304699093302554 
766	 0.305006077021848 
767	 0.305469901036145 
768	 0.306095466282369 
769	 0.306756262306813 
770	 0.307154907278129 
771	 0.307702027860822 
772	 0.308392898093695 
773	 0.308885114316379 
774	 0.309489601341064 
775	 0.310149798273924 
776	 0.310767386678231 
777	 0.311270679936969 
778	 0.311906659722449 
779	 0.312560651354409 
780	 0.313095049311242 
781	 0.313697861426436 
782	 0.314243902400008 
783	 0.314826156303973 
784	 0.315590094001991 
785	 0.316177333449879 
786	 0.316818985623702 
787	 0.317531073762234 
788	 0.318064461307132 
789	 0.318722938117602 
790	 0.319456356619574 
791	 0.320132053612094 
792	 0.320576756769759 
793	 0.321239202534206 
794	 0.321981033266703 
795	 0.322554125097589 
796	 0.323130249306921 
797	 0.323671981789898 
798	 0.324259042358917 
799	 0.324995281729991 
800	 0.325640694391302 
801	 0.326242764510899 
802	 0.326798668694328 
803	 0.327241378371983 
804	 0.32787903173824 
805	 0.328626322912546 
806	 0.329314579891408 
807	 0.329779399634986 
808	 0.330316700160316 
809	 0.330923366901601 
810	 0.331536115765507 
811	 0.33228460691976 
812	 0.333097565612501 
813	 0.333840859940876 
814	 0.334399485976436 
815	 0.335097267379836 
816	 0.335768054388242 
817	 0.33636586862607 
818	 0.337023251925788 
819	 0.337642608543353 
820	 0.338162138978394 
821	 0.33861565794699 
822	 0.339172390538615 
823	 0.339852696373839 
824	 0.340537914507197 
825	 0.341097350194669 
826	 0.341560433694848 
827	 0.342034141184091 
828	 0.342570894516627 
829	 0.343161726266735 
830	 0.343740618227387 
831	 0.344225131169609 
832	 0.344648705079588 
833	 0.34513412706304 
834	 0.34579992244489 
835	 0.346423149043687 
836	 0.346960529210591 
837	 0.347617905998315 
838	 0.348168158262951 
839	 0.348634355934796 
840	 0.34909322094805 
841	 0.349626211776593 
842	 0.350180809964736 
843	 0.350707963799436 
844	 0.351208034067863 
845	 0.351859392808633 
846	 0.35235993425297 
847	 0.352779805619649 
848	 0.353311714255893 
849	 0.353784337257834 
850	 0.354332921036358 
851	 0.354968570703822 
852	 0.355599682232092 
853	 0.356228472501537 
854	 0.35674109778763 
855	 0.357149687458688 
856	 0.35761484034082 
857	 0.358302224545294 
858	 0.358817588584148 
859	 0.35913614923524 
860	 0.359905797755462 
861	 0.360458470214352 
862	 0.360832814668743 
863	 0.361195823626041 
864	 0.361530844716719 
865	 0.362231848847823 
866	 0.36297009823231 
867	 0.363369726253617 
868	 0.363948410037128 
869	 0.364650306501588 
870	 0.365336430412973 
871	 0.365864504819444 
872	 0.366220304265074 
873	 0.366649920163653 
874	 0.367192603446768 
875	 0.36774232740994 
876	 0.368438024887111 
877	 0.368872451588943 
878	 0.369096525072772 
879	 0.369619799955483 
880	 0.370211538818792 
881	 0.370856944822073 
882	 0.371445709490786 
883	 0.371742193462437 
884	 0.372302226589294 
885	 0.372707355972075 
886	 0.37290748810083 
887	 0.373854125540359 
888	 0.374450426696091 
889	 0.374963068760535 
890	 0.375667737545669 
891	 0.375909467462889 
892	 0.376652569189123 
893	 0.377378094011207 
894	 0.377490538076466 
895	 0.377968795615642 
896	 0.378422359218334 
897	 0.379078362475021 
898	 0.380145431580675 
899	 0.38057504522984 
900	 0.38106463317589 
901	 0.381576757485715 
902	 0.381833081966781 
903	 0.382606837677042 
904	 0.383132913279923 
905	 0.383488956835339 
906	 0.384136324576219 
907	 0.383938841424204 
908	 0.384483982315865 
909	 0.385514992229478 
910	 0.385367258025642 
911	 0.385951268332736 
912	 0.38660936152612 
913	 0.386944590028043 
914	 0.387214703981852 
915	 0.388803598398774 
916	 0.38937789390424 
917	 0.388704818381182 
918	 0.389242534739826 
919	 0.38988159084325 
920	 0.390547124349571 
921	 0.391121218833784 
922	 0.391316215527185 
923	 0.391491480595526 
924	 0.391679274619155 
925	 0.39210907818294 
926	 0.393301985545321 
927	 0.392788606227042 
928	 0.392719821863149 
929	 0.394087596041524 
930	 0.39357800640651 
931	 0.39420535669895 
932	 0.39464118820265 
933	 0.393974618913745 
934	 0.394981918597339 
935	 0.396201060613613 
936	 0.396991266180219 
937	 0.397312421879802 
938	 0.397764041605207 
939	 0.399348242438303 
940	 0.399110686587904 
941	 0.396752861506646 
942	 0.398251988927144 
943	 0.398571129053534 
944	 0.39828733543985 
945	 0.398610828796027 
946	 0.399022343096551 
947	 0.39979032007172 
948	 0.399753550449963 
949	 0.398889829109639 
950	 0.400054507174614 
951	 0.401374695143938 
952	 0.401854341523622 
953	 0.401408056728301 
954	 0.401276832260055 
955	 0.401222870445955 
956	 0.401211252244729 
957	 0.401243140787834 
958	 0.401338079674312 
959	 0.401934398787641 
960	 0.402269205549869 
961	 0.402075469183458 
962	 0.402437868919588 
963	 0.402529688385441 
964	 0.402820971095687 
965	 0.403298740684599 
966	 0.402807213886223 
967	 0.403164972339121 
968	 0.403994883886126 
969	 0.404521413420343 
970	 0.404222844502544 
971	 0.403977432023047 
972	 0.404436337095425 
973	 0.405349379701744 
974	 0.405430676023482 
975	 0.406399272871391 
976	 0.406018320059044 
977	 0.404806901326104 
978	 0.406939541374302 
979	 0.406545745046549 
980	 0.406289640227615 
981	 0.406816685357847 
982	 0.405660629382998 
983	 0.406759505327111 
984	 0.407802374983612 
985	 0.408032664011561 
986	 0.408752556982135 
987	 0.409232589902749 
988	 0.409627530619823 
989	 0.41047027207611 
990	 0.412033612797982 
991	 0.411787515794516 
992	 0.411898914998059 
993	 0.412176400898264 
994	 0.411391954704158 
995	 0.412258067753588 
996	 0.412994731045591 
997	 0.414116458299382 
998	 0.416156466267051 
999	 0.414432445041777 
1000	 0.414187982606007 
1001	 0.415293669565231 
1002	 0.415861098863058 
1003	 0.416302607737524 
1004	 0.416582454881868 
1005	 0.41690935085464 
1006	 0.417141150193838 
1007	 0.417560487159724 
1008	 0.418070633331155 
1009	 0.418509117556693 
1010	 0.419050826534782 
1011	 0.419633571387549 
1012	 0.419868946954433 
1013	 0.420135400550419 
1014	 0.420515237173255 
1015	 0.420873265261217 
1016	 0.421422223903722 
1017	 0.421975612571493 
1018	 0.422497597654434 
1019	 0.423099515240695 
1020	 0.423521327585558 
1021	 0.423796676673385 
1022	 0.424233950200124 
1023	 0.424653095438715 
1024	 0.424968945963491 
1025	 0.425633213208246 
1026	 0.426143025839915 
1027	 0.426522537259521 
1028	 0.427058634671942 
1029	 0.427395631762182 
1030	 0.427733194232796 
1031	 0.428078299346257 
1032	 0.428462358546156 
1033	 0.428967034100686 
1034	 0.429663566995395 
1035	 0.430160443661381 
1036	 0.430670920672731 
1037	 0.431144388015737 
1038	 0.431501516850771 
1039	 0.431925346354621 
1040	 0.432331976607081 
1041	 0.432601633599529 
1042	 0.43292958686333 
1043	 0.433283409048017 
1044	 0.433656755820206 
1045	 0.43410909866984 
1046	 0.434417343712485 
1047	 0.434669189009005 
1048	 0.435040514674288 
1049	 0.435436073417006 
1050	 0.435805233739532 
1051	 0.436215728695056 
1052	 0.436621888202071 
1053	 0.436958024408402 
1054	 0.437193545534839 
1055	 0.437488029016582 
1056	 0.437791341642179 
1057	 0.438046234104027 
1058	 0.43844154534165 
1059	 0.438812350271305 
1060	 0.439068541552474 
1061	 0.439411422526092 
1062	 0.439756756568071 
1063	 0.439921517748439 
1064	 0.440083853121351 
1065	 0.440342248199922 
1066	 0.440618760705078 
1067	 0.440775290542422 
1068	 0.441067405459781 
1069	 0.441530118709865 
1070	 0.441767309372759 
1071	 0.441942230706372 
1072	 0.442223053074853 
1073	 0.442511674726182 
1074	 0.442806922469986 
1075	 0.443082814467558 
1076	 0.443472099854613 
1077	 0.443755827844871 
1078	 0.443820264468605 
1079	 0.443944822748947 
1080	 0.444078424423667 
1081	 0.444339001516242 
1082	 0.444668285319871 
1083	 0.445091502319049 
1084	 0.445370004381694 
1085	 0.445654264359818 
1086	 0.445885682493795 
1087	 0.446100308056124 
1088	 0.4464647368061 
1089	 0.446839640507988 
1090	 0.447060653920294 
1091	 0.447176741354403 
1092	 0.447410837961477 
1093	 0.447778306709365 
1094	 0.448096388031484 
1095	 0.448403862217285 
1096	 0.448703393520276 
1097	 0.448944386142192 
1098	 0.449226295933947 
1099	 0.449500871973562 
1100	 0.449879602761303 
1101	 0.450152825725047 
1102	 0.450380844867358 
1103	 0.450775708340777 
1104	 0.451093629692471 
1105	 0.451336547554517 
1106	 0.451687769415962 
1107	 0.451833843993861 
1108	 0.451951482229516 
1109	 0.452440154769592 
1110	 0.452846988558404 
1111	 0.453247015180775 
1112	 0.453807883029682 
1113	 0.454240025729045 
1114	 0.454491576369619 
1115	 0.454902204778485 
1116	 0.45540656397805 
1117	 0.45573970433974 
1118	 0.45618878094566 
1119	 0.456854790550915 
1120	 0.457522212970232 
1121	 0.458172893229768 
1122	 0.458887337004164 
1123	 0.459548023363597 
1124	 0.46013070603651 
1125	 0.46054620372546 
1126	 0.460757237095803 
1127	 0.460781344222459 
1128	 0.460665814795954 
1129	 0.460222608855127 
1130	 0.46002768171015 
1131	 0.45990768735033 
1132	 0.459644671696565 
1133	 0.459350909078125 
1134	 0.459085625563387 
1135	 0.45883911829242 
1136	 0.458607682262863 
1137	 0.458452652493451 
1138	 0.458181711314664 
1139	 0.457877124995009 
1140	 0.457493299441734 
1141	 0.457130811601601 
1142	 0.456960694514951 
1143	 0.45668843990185 
1144	 0.456405085132652 
1145	 0.456063980214027 
1146	 0.455639739027736 
1147	 0.455286549823891 
1148	 0.45495194744757 
1149	 0.454616953971781 
1150	 0.454385515373245 
1151	 0.45406551214407 
1152	 0.453701297866156 
1153	 0.453313751300371 
1154	 0.452991322917756 
1155	 0.452676102106527 
1156	 0.452364638860626 
1157	 0.452125140464363 
1158	 0.451900661094271 
1159	 0.451670637693587 
1160	 0.451558556115012 
1161	 0.451564250963558 
1162	 0.451528874392766 
1163	 0.451524243975037 
1164	 0.451518395536002 
1165	 0.451502947058457 
1166	 0.451492943307709 
1167	 0.4514455949942 
1168	 0.45151430914143 
1169	 0.451664070788168 
1170	 0.451783363816504 
1171	 0.451912428361197 
1172	 0.452127535289447 
1173	 0.452240093134859 
1174	 0.452253395734457 
1175	 0.452336494084548 
1176	 0.452390374355815 
1177	 0.45250222147683 
1178	 0.452629778526915 
1179	 0.452805184645153 
1180	 0.453087247028581 
1181	 0.45327431448504 
1182	 0.453475678561619 
1183	 0.453592795180995 
1184	 0.453577491568691 
1185	 0.453637920549557 
1186	 0.453696731196635 
1187	 0.453769579536169 
1188	 0.453865628468612 
1189	 0.453977087211813 
1190	 0.454108704781768 
1191	 0.454275789699205 
1192	 0.454467005419035 
1193	 0.454611868986996 
1194	 0.45472295848457 
1195	 0.454743647778047 
1196	 0.454858450529407 
1197	 0.45499741852261 
1198	 0.45516231836899 
1199	 0.455338863476773 
1200	 0.455575664018286 
1201	 0.455872142712306 
1202	 0.456124583069204 
1203	 0.456462404577061 
1204	 0.4567150699468 
1205	 0.45684300835117 
1206	 0.457067552291056 
1207	 0.457286966871674 
1208	 0.457534319264187 
1209	 0.457902270170135 
1210	 0.45814840639519 
1211	 0.458350971951664 
1212	 0.458676573569288 
1213	 0.458980768934965 
1214	 0.459286467685435 
1215	 0.459604463535008 
1216	 0.459957634885427 
1217	 0.460285105642645 
1218	 0.460594942575027 
1219	 0.460936812740681 
1220	 0.461302755873856 
1221	 0.461655065820411 
1222	 0.462033830674668 
1223	 0.46236404735154 
1224	 0.462626266226646 
1225	 0.462973492642025 
1226	 0.463329334744141 
1227	 0.463704486062019 
1228	 0.464186212855988 
1229	 0.464581751560584 
1230	 0.464955711433368 
1231	 0.465368914299348 
1232	 0.465736570809378 
1233	 0.466108508871214 
1234	 0.466404807811558 
1235	 0.466632964301756 
1236	 0.466911740034247 
1237	 0.4670973045051 
1238	 0.467456726984267 
1239	 0.468001941226611 
1240	 0.468364578782186 
1241	 0.468683215843836 
1242	 0.469074377529838 
1243	 0.469411644605758 
1244	 0.469767454336161 
1245	 0.470269789091917 
1246	 0.470653848570209 
1247	 0.470881416263838 
1248	 0.471193450494047 
1249	 0.471550081919214 
1250	 0.471872495022837 
1251	 0.472255588385613 
1252	 0.47254404578884 
1253	 0.472834984172536 
1254	 0.473091301468297 
1255	 0.473343524274348 
1256	 0.473552634784878 
1257	 0.473822113518957 
1258	 0.47410666674873 
1259	 0.474372606051585 
1260	 0.474655285546908 
1261	 0.474964500903992 
1262	 0.4752237505193 
1263	 0.475580982478379 
1264	 0.476113771820266 
1265	 0.476479965987051 
1266	 0.476799082905943 
1267	 0.477103026873952 
1268	 0.477281163387931 
1269	 0.477497269457167 
1270	 0.47775107617883 
1271	 0.477973158489745 
1272	 0.478204652535767 
1273	 0.478359557458354 
1274	 0.478478729087222 
1275	 0.478540125731381 
1276	 0.478656038065864 
1277	 0.478723398032104 
1278	 0.478856765728254 
1279	 0.479078400233178 
1280	 0.47921869128372 
1281	 0.479339121056118 
1282	 0.479448967738358 
1283	 0.479570025844231 
1284	 0.479606386522237 
1285	 0.479577327669181 
1286	 0.479572616324408 
1287	 0.47947073156316 
1288	 0.479464932123422 
1289	 0.479521171840443 
1290	 0.47958284350865 
1291	 0.479729771950345 
1292	 0.479798612942674 
1293	 0.479843340427461 
1294	 0.479879506853415 
1295	 0.479887173958727 
1296	 0.479857450590724 
1297	 0.479813428436368 
1298	 0.479766481709619 
1299	 0.479692144784068 
1300	 0.47955924551923 
1301	 0.479473683654049 
1302	 0.479414062268423 
1303	 0.4793131275755 
1304	 0.479167350723131 
1305	 0.479100131463956 
1306	 0.47904566184761 
1307	 0.479003279091094 
1308	 0.47908444776407 
1309	 0.479023006381389 
1310	 0.478880753430688 
1311	 0.478739419179034 
1312	 0.478524698204772 
1313	 0.478329561157898 
1314	 0.478149401358906 
1315	 0.477938422955201 
1316	 0.477716758204042 
1317	 0.477464156141033 
1318	 0.477174800667489 
1319	 0.476881124173137 
1320	 0.476563596383715 
1321	 0.476237939392551 
1322	 0.475864981572585 
1323	 0.475411286241612 
1324	 0.475099155951421 
1325	 0.474815316686654 
1326	 0.474503294371208 
1327	 0.474302820198033 
1328	 0.473986069768123 
1329	 0.473564193978194 
1330	 0.473148565262822 
1331	 0.472699783366726 
1332	 0.472294817662188 
1333	 0.471889689575229 
1334	 0.471469229379936 
1335	 0.471148245494106 
1336	 0.470676522082134 
1337	 0.469989329558931 
1338	 0.469457997711265 
1339	 0.468837235619141 
1340	 0.468362880206049 
1341	 0.468085063686309 
1342	 0.467731972380493 
1343	 0.467360328219565 
1344	 0.467014779882216 
1345	 0.466632485036766 
1346	 0.466175428359945 
1347	 0.465961585235651 
1348	 0.465944312182197 
1349	 0.465827981841598 
1350	 0.466025121390691 
1351	 0.465938860829638 
1352	 0.46540318489429 
1353	 0.465287058799491 
1354	 0.465451728565266 
1355	 0.465567324250334 
1356	 0.467340734528998 
1357	 0.467755552664448 
1358	 0.464703620585626 
1359	 0.46361935273171 
1360	 0.461781372581123 
1361	 0.459849642916433 
1362	 0.46644599879524 
1363	 0.471329848814424 
1364	 0.471262328364895 
1365	 0.474771674586237 
1366	 0.485217970969874 
1367	 0.481930719523959 
1368	 0.467795123391974 
1369	 0.465712593826737 
1370	 0.46117215809677 
1371	 0.462036480830544 
1372	 0.472717136417302 
1373	 0.475389759393919 
1374	 0.475138426927376 
1375	 0.476695733906719 
1376	 0.469568752299499 
1377	 0.46432294367835 
1378	 0.459432435494197 
1379	 0.45191871815775 
1380	 0.447795416167011 
1381	 0.446994867682993 
1382	 0.442057576137405 
1383	 0.435737808719001 
1384	 0.431437854079314 
1385	 0.425024813278649 
1386	 0.425481905030529 
1387	 0.432031853017435 
1388	 0.43184291763202 
1389	 0.433330928144093 
1390	 0.430029669318232 
1391	 0.42090644287558 
1392	 0.416509700026602 
1393	 0.412518471707855 
1394	 0.409247939816154 
1395	 0.40876708490022 
1396	 0.40567478019607 
1397	 0.400004784993695 
1398	 0.397048470127709 
1399	 0.395119587589781 
1400	 0.392281927816192 
1401	 0.391148962849761 
1402	 0.388884593425196 
1403	 0.38513184193367 
1404	 0.381607165119499 
1405	 0.378321025925883 
1406	 0.375346083481902 
1407	 0.372039158914257 
1408	 0.370408504588667 
1409	 0.368007202864074 
1410	 0.365094959261397 
1411	 0.362806985571254 
1412	 0.360355314951005 
1413	 0.358294576778167 
1414	 0.356916953576753 
1415	 0.354941526924723 
1416	 0.352677495653752 
1417	 0.350857998827655 
1418	 0.348958096140668 
1419	 0.347438280621504 
1420	 0.346283937943565 
1421	 0.344987289428222 
1422	 0.343832117267391 
1423	 0.342579133307248 
1424	 0.340937935907952 
1425	 0.339965996220125 
1426	 0.339325300320569 
1427	 0.338425473403989 
1428	 0.337557990088793 
1429	 0.336929903999368 
1430	 0.336362445939799 
1431	 0.335600544446226 
1432	 0.334808506651609 
1433	 0.334266974378511 
1434	 0.333450605011394 
1435	 0.332961208778913 
1436	 0.333353003412614 
1437	 0.333038701227946 
1438	 0.332244566327338 
1439	 0.331728873929265 
1440	 0.330748971454189 
1441	 0.33033761379538 
1442	 0.330566009441256 
1443	 0.330580491760211 
1444	 0.330451329218504 
1445	 0.330563268722939 
1446	 0.330389920501642 
1447	 0.330281881964906 
1448	 0.330126345614315 
1449	 0.330022288254963 
1450	 0.329910864305865 
1451	 0.329692509734832 
1452	 0.329635572089136 
1453	 0.329726918352316 
1454	 0.329679143438638 
1455	 0.329566192331504 
1456	 0.329562666847373 
1457	 0.329582282851584 
1458	 0.329569614590693 
1459	 0.329589482863937 
1460	 0.32965040878923 
1461	 0.329622928796211 
1462	 0.32975852983021 
1463	 0.330023555341457 
1464	 0.330362224250104 
1465	 0.330870278061188 
1466	 0.331315946465511 
1467	 0.331777681674719 
1468	 0.332336153843468 
1469	 0.332869379581475 
1470	 0.33348881728297 
1471	 0.334211439397119 
1472	 0.334941764276972 
1473	 0.335726500439507 
1474	 0.336376550153412 
1475	 0.336984570308128 
1476	 0.337560916465198 
1477	 0.337901133346343 
1478	 0.338456911033559 
1479	 0.33912733384191 
1480	 0.33976738409194 
1481	 0.340504588802079 
1482	 0.341178165415621 
1483	 0.341733255713407 
1484	 0.342391491035843 
1485	 0.343104457484359 
1486	 0.343781601275598 
1487	 0.344446710909234 
1488	 0.345169353431183 
1489	 0.3458209051242 
1490	 0.346416946799467 
1491	 0.346991955497182 
1492	 0.34759760641541 
1493	 0.348301750296262 
1494	 0.348989832468466 
1495	 0.349675144180362 
1496	 0.350436511884675 
1497	 0.351125531576523 
1498	 0.351732663714 
1499	 0.352496475473473 
1500	 0.353347766084234 
1501	 0.354159835989122 
1502	 0.355065647620448 
1503	 0.355859958155251 
1504	 0.356560981823682 
1505	 0.357366127451811 
1506	 0.358193701646557 
1507	 0.358983431895413 
1508	 0.35978301094264 
1509	 0.360614902826487 
1510	 0.361441901389478 
1511	 0.36223537479217 
1512	 0.363092650537079 
1513	 0.363866394100296 
1514	 0.364517231890829 
1515	 0.365290397724145 
1516	 0.366115988563052 
1517	 0.366924804538989 
1518	 0.367742723035585 
1519	 0.368617531590854 
1520	 0.36962903679748 
1521	 0.37040293639992 
1522	 0.371081368889068 
1523	 0.371819779136256 
1524	 0.372393843119979 
1525	 0.373082980251654 
1526	 0.373954668225101 
1527	 0.374688879408126 
1528	 0.37530328983774 
1529	 0.376010400512843 
1530	 0.376718291557956 
1531	 0.377479375319974 
1532	 0.378375617263693 
1533	 0.379137791513347 
1534	 0.37986173920992 
1535	 0.380564771507842 
1536	 0.381123540246102 
1537	 0.381811907486936 
1538	 0.382641165949387 
1539	 0.383335963475983 
1540	 0.384010968863641 
1541	 0.384673778565605 
1542	 0.385219389887116 
1543	 0.385812198455527 
1544	 0.386442439493378 
1545	 0.387083110911849 
1546	 0.387718669751585 
1547	 0.388369496811247 
1548	 0.389088875789936 
1549	 0.38974571923183 
1550	 0.390371847248519 
1551	 0.390988283912473 
1552	 0.391523053176709 
1553	 0.392132480035695 
1554	 0.392806957279662 
1555	 0.393448378054127 
1556	 0.394160748518066 
1557	 0.394789591002699 
1558	 0.395330413330083 
1559	 0.395875138070795 
1560	 0.396334182625067 
1561	 0.396865860004689 
1562	 0.397471564968961 
1563	 0.398032710443431 
1564	 0.398695867676 
1565	 0.399217192557476 
1566	 0.399537887274154 
1567	 0.400006174279513 
1568	 0.400493276087845 
1569	 0.400919199981901 
1570	 0.401553767661319 
1571	 0.402396610603174 
1572	 0.403039671598386 
1573	 0.403709016557059 
1574	 0.404278722974084 
1575	 0.4047190805974 
1576	 0.405220374238165 
1577	 0.405713459279232 
1578	 0.406197828634678 
1579	 0.406634666044316 
1580	 0.407162233590066 
1581	 0.407743842784711 
1582	 0.408246729407707 
1583	 0.408747088230203 
1584	 0.409288627983023 
1585	 0.40976227837016 
1586	 0.410373099060834 
1587	 0.411137790790818 
1588	 0.411751602980284 
1589	 0.412340689588776 
1590	 0.412951003772604 
1591	 0.413516170531175 
1592	 0.414103949082878 
1593	 0.414748367963594 
1594	 0.41532034566214 
1595	 0.415841891420391 
1596	 0.416384744283609 
1597	 0.416884469317028 
1598	 0.417495062646725 
1599	 0.418163226366478 
1600	 0.41879510956332 
1601	 0.41952525191158 
1602	 0.420106863795032 
1603	 0.420558460987081 
1604	 0.421128121898538 
1605	 0.421702276318508 
1606	 0.422253823122471 
1607	 0.422836547256192 
1608	 0.423416060392286 
1609	 0.423973938161408 
1610	 0.424486322635514 
1611	 0.425029831938447 
1612	 0.425487872512563 
1613	 0.425792917941184 
1614	 0.426282005286795 
1615	 0.426870882797271 
1616	 0.427334486012878 
1617	 0.427795533458337 
1618	 0.428284563864228 
1619	 0.428708283475585 
1620	 0.429158940189849 
1621	 0.429711483456835 
1622	 0.43014460570147 
1623	 0.430451938216085 
1624	 0.430886567486191 
1625	 0.431371623669248 
1626	 0.4318149852748 
1627	 0.432286215086158 
1628	 0.432733220982547 
1629	 0.433130432539753 
1630	 0.433587749189493 
1631	 0.434160633700325 
1632	 0.434490651428388 
1633	 0.434730521714917 
1634	 0.434956619693236 
1635	 0.434931820664421 
1636	 0.435274892204836 
1637	 0.435845330933337 
1638	 0.436219713917188 
1639	 0.436703525354751 
1640	 0.437021871926974 
1641	 0.437154775816687 
1642	 0.437337093869805 
1643	 0.437486911126608 
1644	 0.437708626034907 
1645	 0.43789074532599 
1646	 0.43813863304959 
1647	 0.438505171882062 
1648	 0.43880920850814 
1649	 0.439098588947386 
1650	 0.439338394498939 
1651	 0.439602252352962 
1652	 0.439720381533103 
1653	 0.439672731327218 
1654	 0.439837317305231 
1655	 0.44004799543897 
1656	 0.440185445339597 
1657	 0.440458393881585 
1658	 0.440362805862452 
1659	 0.44020601668161 
1660	 0.440073473464563 
1661	 0.439972233215947 
1662	 0.440031399398502 
1663	 0.440129921938158 
1664	 0.440160885501343 
1665	 0.440197116176465 
1666	 0.440055867088051 
1667	 0.439802290862581 
1668	 0.439708791553787 
1669	 0.439555580584186 
1670	 0.439422472691168 
1671	 0.439335078410156 
1672	 0.439064013998025 
1673	 0.438950253092445 
1674	 0.439059519200003 
1675	 0.438929882845915 
1676	 0.438730319148716 
1677	 0.438452794833718 
1678	 0.438030467166191 
1679	 0.437872727126781 
1680	 0.437643423185033 
1681	 0.43733616504375 
1682	 0.437169012889164 
1683	 0.436853259563225 
1684	 0.43651412510893 
1685	 0.436267508483983 
1686	 0.435947122548772 
1687	 0.435470633404365 
1688	 0.435118353977707 
1689	 0.434927388477876 
1690	 0.434642284003958 
1691	 0.43435137035335 
1692	 0.434123886282492 
1693	 0.433797179208615 
1694	 0.433414700887998 
1695	 0.43297388740379 
1696	 0.432421347336558 
1697	 0.431946639247861 
1698	 0.431388872977882 
1699	 0.430953768354447 
1700	 0.43070118466704 
1701	 0.430344291857235 
1702	 0.429946093383401 
1703	 0.429649950711207 
1704	 0.429431064322667 
1705	 0.42899239419554 
1706	 0.428523693325465 
1707	 0.428062998214606 
1708	 0.427390009508053 
1709	 0.426852457022612 
1710	 0.426441288776933 
1711	 0.42603484475956 
1712	 0.425617818651331 
1713	 0.42522523536322 
1714	 0.424972481009757 
1715	 0.424530551679514 
1716	 0.423904422512552 
1717	 0.423470654028715 
1718	 0.423053957958693 
1719	 0.422694342387268 
1720	 0.422460450016728 
1721	 0.422141966983538 
1722	 0.421834093945708 
1723	 0.421461406077146 
1724	 0.420972790967737 
1725	 0.420662624347197 
1726	 0.420405408216009 
1727	 0.420200452723524 
1728	 0.420144739268611 
1729	 0.420012862664131 
1730	 0.419761055216509 
1731	 0.419647193128293 
1732	 0.41976729014492 
1733	 0.419785448814802 
1734	 0.41980088491301 
1735	 0.419937240185866 
1736	 0.420027481279179 
1737	 0.420261939028946 
1738	 0.42052271587103 
1739	 0.420350235750244 
1740	 0.420219140751166 
1741	 0.419985637913702 
1742	 0.419587191404616 
1743	 0.419417757200298 
1744	 0.419190238041722 
1745	 0.418939457762032 
1746	 0.418858736082343 
1747	 0.418536192469234 
1748	 0.418039240653187 
1749	 0.417771592438394 
1750	 0.417416923900111 
1751	 0.41704153204714 
1752	 0.416944741029838 
1753	 0.416797130946778 
1754	 0.416484053089721 
1755	 0.41637707168907 
1756	 0.41622212174642 
1757	 0.415695327946098 
1758	 0.415341559359286 
1759	 0.414970858131412 
1760	 0.414664704558969 
1761	 0.41453710745422 
1762	 0.414253619034134 
1763	 0.413736948124872 
1764	 0.413575109987046 
1765	 0.413562013770382 
1766	 0.413519531638612 
1767	 0.413713017389116 
1768	 0.413856726354355 
1769	 0.414023102398703 
1770	 0.414031127724851 
1771	 0.414072494488484 
1772	 0.414070369614792 
1773	 0.413668962026861 
1774	 0.413666873234641 
1775	 0.413842974374055 
1776	 0.413820735913671 
1777	 0.413938707274455 
1778	 0.414001341903702 
1779	 0.413842219379264 
1780	 0.41391397546899 
1781	 0.414273293790194 
1782	 0.414571965095429 
1783	 0.414618952960926 
1784	 0.414571321379264 
1785	 0.414646478151182 
1786	 0.414642353959329 
1787	 0.41497853401213 
1788	 0.415644830771503 
1789	 0.415927390202125 
1790	 0.416257181816641 
1791	 0.416723714094847 
1792	 0.416630550820692 
1793	 0.415992580962995 
1794	 0.415502792328283 
1795	 0.415524394398204 
1796	 0.416026846744595 
1797	 0.417199625493695 
1798	 0.418720694744553 
1799	 0.419676357863935 
1800	 0.419896111659204 
1801	 0.422249101271829 
1802	 0.422084422056698 
1803	 0.421947108052458 
1804	 0.420484593220504 
1805	 0.420352417451529 
1806	 0.421623369197052 
1807	 0.422470509830595 
1808	 0.423627059147434 
1809	 0.425099176467606 
1810	 0.426521276848703 
1811	 0.427983722996683 
1812	 0.429786763450372 
1813	 0.432883688396756 
1814	 0.434131266371404 
1815	 0.433621612594452 
1816	 0.434307731521172 
1817	 0.433236553429653 
1818	 0.433390479590889 
1819	 0.434531456627127 
1820	 0.439322276285246 
1821	 0.440790542076424 
1822	 0.44061771116293 
1823	 0.441379010205296 
1824	 0.438811878364697 
1825	 0.440441861078013 
1826	 0.449523215320964 
1827	 0.454370748229801 
1828	 0.458958315344684 
1829	 0.465544471620158 
1830	 0.473564391851484 
1831	 0.474825903057796 
1832	 0.482921225051961 
1833	 0.510080500015431 
1834	 0.528411118768202 
1835	 0.535352846697016 
1836	 0.537202690608887 
1837	 0.50953654407297 
1838	 0.481417005266738 
1839	 0.444874891365718 
1840	 0.377894401744551 
1841	 0.367006864651694 
1842	 0.387189169874111 
1843	 0.397324350539536 
1844	 0.448586866171924 
1845	 0.455346431404881 
1846	 0.432514048211371 
1847	 0.420885713392536 
1848	 0.40599303511086 
1849	 0.36309096842618 
1850	 0.36991042149162 
1851	 0.419024001410362 
1852	 0.432091759060278 
1853	 0.452304071912812 
1854	 0.473102452119447 
1855	 0.47952943515032 
1856	 0.476950947685605 
1857	 0.468334274283374 
1858	 0.478723632882275 
1859	 0.472708527051113 
1860	 0.452239454864207 
1861	 0.434935180962274 
1862	 0.405833774886304 
1863	 0.40359557181687 
1864	 0.408943453544105 
1865	 0.41071267722719 
1866	 0.433452354302975 
1867	 0.467919398026033 
1868	 0.442660600350936 
1869	 0.432734028248302 
1870	 0.427258358810462 
1871	 0.410793228406842 
1872	 0.416247484499351 
1873	 0.46927001423594 
1874	 0.45487820488052 
1875	 0.421476956565594 
1876	 0.399586979242315 
1877	 0.361220539217358 
1878	 0.33279404690367 
1879	 0.336239687431304 
1880	 0.34001742104176 
1881	 0.347650054273164 
1882	 0.369705879120551 
1883	 0.375292403619009 
1884	 0.377429887775049 
1885	 0.377801719670372 
1886	 0.374999874507132 
1887	 0.364698449149804 
1888	 0.364793294269564 
1889	 0.363722629968745 
1890	 0.358603336025932 
1891	 0.353496386692625 
1892	 0.344945417935066 
1893	 0.324738527757225 
1894	 0.315516109964048 
1895	 0.311004334404429 
1896	 0.305225034494918 
1897	 0.300606154769953 
1898	 0.301856484131221 
1899	 0.305473430912921 
1900	 0.304704897289815 
1901	 0.299346590419532 
1902	 0.286445777008564 
1903	 0.284166750201005 
1904	 0.270390292433216 
1905	 0.280077944118166 
1906	 0.330106198365201 
1907	 0.353751436574065 
1908	 0.336289044487949 
1909	 0.31448397646689 
1910	 0.273531754381267 
1911	 0.256381099294614 
1912	 0.25379089090175 
1913	 0.264313257545647 
1914	 0.26523128854621 
1915	 0.2718384679767 
1916	 0.270418348207387 
1917	 0.264420962211222 
1918	 0.262488150333234 
1919	 0.262952051456027 
1920	 0.254449996777512 
1921	 0.248176151543453 
1922	 0.247330796989008 
1923	 0.24596304978651 
1924	 0.245336174197653 
1925	 0.245050505512468 
1926	 0.245401582662161 
1927	 0.244763394239257 
1928	 0.242477036095784 
1929	 0.24274566033517 
1930	 0.245788555017303 
1931	 0.246471644246056 
1932	 0.246085754517535 
1933	 0.246317778428372 
1934	 0.246021036440436 
1935	 0.244561910334943 
1936	 0.244076906838702 
1937	 0.244543990007375 
1938	 0.243443821111227 
1939	 0.2409240801499 
1940	 0.239503583071385 
1941	 0.239423070422676 
1942	 0.240466828494533 
1943	 0.243312820824344 
1944	 0.244755998923343 
1945	 0.244889177918622 
1946	 0.245720247882195 
1947	 0.246477789674932 
1948	 0.247328347401498 
1949	 0.247790725713724 
1950	 0.248416642695856 
1951	 0.2481124145207 
1952	 0.248979736784533 
1953	 0.249272137263432 
1954	 0.250494295287395 
1955	 0.253420970706868 
1956	 0.255373140520312 
1957	 0.255915979523825 
1958	 0.255996843560988 
1959	 0.254795210359469 
1960	 0.255041790413829 
1961	 0.254966298352519 
1962	 0.255657062786058 
1963	 0.257445657928974 
1964	 0.258989981100761 
1965	 0.259643513779031 
1966	 0.260509625096174 
1967	 0.261945516795915 
1968	 0.2627673544998 
1969	 0.263226896424454 
1970	 0.263300162076201 
1971	 0.26397169036308 
1972	 0.264409858492444 
1973	 0.265248864159249 
1974	 0.266450423488934 
1975	 0.267560771082145 
1976	 0.26810265596373 
1977	 0.268457573060505 
1978	 0.269463587799287 
1979	 0.270505284666986 
1980	 0.271372468445454 
1981	 0.272246609282066 
1982	 0.273175681937338 
1983	 0.2739676630393 
1984	 0.274798055856288 
1985	 0.275837206674069 
1986	 0.277129458059571 
1987	 0.278104883460451 
1988	 0.278797570319407 
1989	 0.279581628580222 
1990	 0.280219140850401 
1991	 0.280778319487656 
1992	 0.281497825494931 
1993	 0.282195235126124 
1994	 0.282827305331413 
1995	 0.283494830179682 
1996	 0.284213055005429 
1997	 0.284916330307374 
1998	 0.285406837866995 
1999	 0.286084819453947 
2000	 0.286743316269246 
2001	 0.287341789950192 
2002	 0.288313755158615 
2003	 0.289321073754817 
2004	 0.290306597173199 
2005	 0.2911307915798 
2006	 0.292204831965527 
2007	 0.293643493534136 
2008	 0.294288148733571 
2009	 0.29397322076353 
2010	 0.294618817669283 
2011	 0.295384380723049 
2012	 0.295703632837926 
2013	 0.296279050924531 
2014	 0.297034562731716 
2015	 0.297650808808716 
2016	 0.298245947981142 
2017	 0.298852650469753 
2018	 0.299184767885879 
2019	 0.299381764780082 
2020	 0.298893365592029 
2021	 0.299012630165419 
2022	 0.299751500994437 
2023	 0.300103052601659 
2024	 0.300578146740667 
2025	 0.300692346292466 
2026	 0.300569245336219 
2027	 0.300711106966625 
2028	 0.300588711437615 
2029	 0.300605373070471 
2030	 0.300502724178923 
2031	 0.300374978328582 
2032	 0.300192464784913 
2033	 0.300029088607589 
2034	 0.299566738972218 
2035	 0.29939292750516 
2036	 0.299004156829892 
2037	 0.29867454716281 
2038	 0.298902366817909 
2039	 0.298782060891711 
2040	 0.298491831417767 
2041	 0.298378072796761 
2042	 0.298111536128109 
2043	 0.298079776372608 
2044	 0.29818980275481 
2045	 0.298086722245582 
2046	 0.297909365068373 
2047	 0.297873866826472 
2048	 0.29783103791579 
2049	 0.297637164634174 
2050	 0.297905492832361 
2051	 0.298119766913211 
2052	 0.297917370536404 
2053	 0.297902120840976 
2054	 0.297637204750167 
2055	 0.297261167095744 
2056	 0.296898514124421 
2057	 0.296153728283301 
2058	 0.296123206596167 
2059	 0.296049267764785 
2060	 0.296086460420961 
2061	 0.295779855673542 
2062	 0.295667262158439 
2063	 0.295588004880083 
2064	 0.295813009725152 
2065	 0.295720592743299 
2066	 0.296036305623049 
2067	 0.296186377373121 
2068	 0.295553328421968 
2069	 0.295710182689111 
2070	 0.29608089698766 
2071	 0.296006087753812 
2072	 0.295840907775627 
2073	 0.295625139643033 
2074	 0.295327908810328 
2075	 0.295104240661586 
2076	 0.295187067231445 
2077	 0.295656485354637 
2078	 0.296088935455511 
2079	 0.296296492963393 
2080	 0.296281769912187 
2081	 0.296126601469229 
2082	 0.296154587238503 
2083	 0.296371472607329 
2084	 0.296839878773954 
2085	 0.297397403782315 
2086	 0.297952452381089 
2087	 0.298250677479122 
2088	 0.298299109107032 
2089	 0.298127554353244 
2090	 0.298618833829841 
2091	 0.298996780977454 
2092	 0.298934349015875 
2093	 0.299208156484179 
2094	 0.299309258501895 
2095	 0.299516539628309 
2096	 0.300287431309773 
2097	 0.300934030397854 
2098	 0.301266002622707 
2099	 0.301171561451767 
2100	 0.300957298040202 
2101	 0.301203857982166 
2102	 0.301569681848458 
2103	 0.30216141882171 
2104	 0.30281154508527 
2105	 0.303388766338087 
2106	 0.303432956023346 
2107	 0.3034513206819 
2108	 0.30363222763802 
2109	 0.303601601102747 
2110	 0.30416964100382 
2111	 0.304939400659476 
2112	 0.305546248858443 
2113	 0.306537769617644 
2114	 0.306990896567686 
2115	 0.306949792444573 
2116	 0.30724734553253 
2117	 0.307575131954108 
2118	 0.307978086443854 
2119	 0.308200751948571 
2120	 0.308562163275897 
2121	 0.308533524633057 
2122	 0.308440734598892 
2123	 0.308689568866265 
2124	 0.309666213313892 
2125	 0.310603504755357 
2126	 0.311085068730255 
2127	 0.31150311179661 
2128	 0.311272051034707 
2129	 0.311034617157054 
2130	 0.311267045785924 
2131	 0.311556949364839 
2132	 0.312492448724557 
2133	 0.313526587587066 
2134	 0.314316734316405 
2135	 0.315081836061157 
2136	 0.31592597525951 
2137	 0.316021043688318 
2138	 0.315870663941287 
2139	 0.316222826318105 
2140	 0.316368352399817 
2141	 0.31663909688124 
2142	 0.317230461360354 
2143	 0.317340708295846 
2144	 0.317256775384813 
2145	 0.317266444416929 
2146	 0.317713314876997 
2147	 0.318851426271927 
2148	 0.319771553351541 
2149	 0.320338602549418 
2150	 0.320710130733844 
2151	 0.320919829271676 
2152	 0.320307223798852 
2153	 0.320326890190603 
2154	 0.320581010685741 
2155	 0.321062137190814 
2156	 0.321613456996001 
2157	 0.321608891591962 
2158	 0.321702068336916 
2159	 0.322025682609088 
2160	 0.321651526007209 
2161	 0.32150363666117 
2162	 0.322083273852611 
2163	 0.322092741382489 
2164	 0.32226479675963 
2165	 0.322936866218589 
2166	 0.322970119794631 
2167	 0.323295110362772 
2168	 0.323677083220766 
2169	 0.324186639841582 
2170	 0.324473809663065 
2171	 0.324899807377875 
2172	 0.324800834377449 
2173	 0.32478974293307 
2174	 0.325105667567528 
2175	 0.325410171037671 
2176	 0.325860711682377 
2177	 0.32580812261887 
2178	 0.32563071270949 
2179	 0.325487772892519 
2180	 0.325671822984091 
2181	 0.325803427779215 
2182	 0.325888503616946 
2183	 0.325999061938258 
2184	 0.325659481617534 
2185	 0.326171735304851 
2186	 0.327081195758629 
2187	 0.32774138351694 
2188	 0.329025642581087 
2189	 0.329533732095183 
2190	 0.329620833619225 
2191	 0.329082848918977 
2192	 0.328695721770479 
2193	 0.328390301178024 
2194	 0.328798895351356 
2195	 0.329791684739491 
2196	 0.330682062649291 
2197	 0.331096991613621 
2198	 0.331075068343852 
2199	 0.331014439187837 
2200	 0.331078542471384 
2201	 0.331603649191594 
2202	 0.331908594750328 
2203	 0.332083810295637 
2204	 0.332260704151525 
2205	 0.332294559513624 
2206	 0.332718790044178 
2207	 0.332983080364594 
2208	 0.33299528318026 
2209	 0.332849898348862 
2210	 0.332683842220225 
2211	 0.332302088367025 
2212	 0.331844833075833 
2213	 0.331338990293312 
2214	 0.331250206219916 
2215	 0.331386240182713 
2216	 0.332147235580932 
2217	 0.333423737027534 
2218	 0.333889186067583 
2219	 0.33348961810935 
2220	 0.332965979580409 
2221	 0.332330897683207 
2222	 0.332339458794377 
2223	 0.333139729949347 
2224	 0.333422878009034 
2225	 0.333329682168916 
2226	 0.333131179841214 
2227	 0.332433236613181 
2228	 0.331571706418491 
2229	 0.331320767498869 
2230	 0.330844040938308 
2231	 0.329987209760544 
2232	 0.329075512390045 
2233	 0.328236609126865 
2234	 0.326872138838365 
2235	 0.32578488310311 
2236	 0.325632783237949 
2237	 0.325142596557343 
2238	 0.324656318974789 
2239	 0.323498500777949 
2240	 0.321324818043012 
2241	 0.320333707263381 
2242	 0.319793997171491 
2243	 0.31897680939398 
2244	 0.318876125979463 
2245	 0.317768730184564 
2246	 0.31554634942783 
2247	 0.313557485780143 
2248	 0.312739446666612 
2249	 0.312592108107128 
2250	 0.312088978843906 
2251	 0.312120173279266 
2252	 0.311252488937197 
2253	 0.30952333080461 
2254	 0.308364801489945 
2255	 0.306953988659068 
2256	 0.30599514887697 
2257	 0.30549147254581 
2258	 0.304782830521391 
2259	 0.30389974555345 
2260	 0.303824603771126 
2261	 0.302560948272304 
2262	 0.300839278318841 
2263	 0.299236890390638 
2264	 0.297328723902554 
2265	 0.296165324019462 
2266	 0.295447215910405 
2267	 0.294804787065911 
2268	 0.294668658000396 
2269	 0.294195846517024 
2270	 0.293233959237151 
2271	 0.292671686568341 
2272	 0.291145241037489 
2273	 0.289698731411388 
2274	 0.289759927962518 
2275	 0.289629967973506 
2276	 0.289308712326129 
2277	 0.289008661198304 
2278	 0.288373819783962 
2279	 0.287883003496535 
2280	 0.287344148041455 
2281	 0.287092657406405 
2282	 0.287369046838508 
2283	 0.28728376164 
2284	 0.28736597961533 
2285	 0.287283671480318 
2286	 0.286608899021964 
2287	 0.284847461464556 
2288	 0.283696613201163 
2289	 0.283646950735082 
2290	 0.283734423914353 
2291	 0.283888791404175 
2292	 0.283868884913612 
2293	 0.283201374722978 
2294	 0.281593774920992 
2295	 0.279957070101199 
2296	 0.278034875476234 
2297	 0.276110972877912 
2298	 0.275590150696737 
2299	 0.275250290462003 
2300	 0.275536366856187 
2301	 0.276185833699799 
2302	 0.276133340381125 
2303	 0.275898017458016 
2304	 0.275476860078969 
2305	 0.27493796170247 
2306	 0.273393369580617 
2307	 0.272300648207704 
2308	 0.272292833720117 
2309	 0.271293910481178 
2310	 0.271186134970614 
2311	 0.271636064723449 
2312	 0.271097571932878 
2313	 0.271453328122025 
2314	 0.271299126791721 
2315	 0.270832984505878 
2316	 0.270734923892225 
2317	 0.270069992972512 
2318	 0.269735821223266 
2319	 0.269696239838142 
2320	 0.270920884619455 
2321	 0.271419395383855 
2322	 0.271789706155264 
2323	 0.272591634587092 
2324	 0.273709794059771 
2325	 0.273011464657487 
2326	 0.273930810010512 
2327	 0.274112879368585 
2328	 0.272103255682538 
2329	 0.271503648669371 
2330	 0.270990673721195 
2331	 0.270653610893807 
2332	 0.271691219717333 
2333	 0.272371535658927 
2334	 0.271344509025751 
2335	 0.269908986954902 
2336	 0.268773983515585 
2337	 0.267876484090144 
2338	 0.267448273099131 
2339	 0.267597188773152 
2340	 0.267222191814156 
2341	 0.265520217997441 
2342	 0.263794704374185 
2343	 0.262073947235058 
2344	 0.260959198392251 
2345	 0.260590479748495 
2346	 0.260401465865625 
2347	 0.260722579249091 
2348	 0.261314932340327 
2349	 0.261942757860554 
2350	 0.262124609386689 
2351	 0.26242981971313 
2352	 0.261974188583048 
2353	 0.262383576093664 
2354	 0.263445938421506 
2355	 0.263361579983941 
2356	 0.265277750652307 
2357	 0.266338474845539 
2358	 0.26619962656342 
2359	 0.267037937629694 
2360	 0.267238390059157 
2361	 0.266568258579116 
2362	 0.265615710863779 
2363	 0.265203153210723 
2364	 0.264381603204904 
2365	 0.263609661851878 
2366	 0.262263530638249 
2367	 0.260626426144642 
2368	 0.259207553538745 
2369	 0.25837910061629 
2370	 0.260620445029159 
2371	 0.263118548870442 
2372	 0.264539545968132 
2373	 0.266785877443671 
2374	 0.266353644756291 
2375	 0.262840123243503 
2376	 0.260796213355747 
2377	 0.257417466523133 
2378	 0.256665602373072 
2379	 0.258279078675933 
2380	 0.259504207805552 
2381	 0.261062987849437 
2382	 0.262226274788543 
2383	 0.2639454566192 
2384	 0.26394074311496 
2385	 0.263439091604791 
2386	 0.264299303927729 
2387	 0.264646279673829 
2388	 0.264016487430489 
2389	 0.263605479898299 
2390	 0.262560465479759 
2391	 0.259795289900769 
2392	 0.258118951876921 
2393	 0.257374369317588 
2394	 0.257218284001323 
2395	 0.257188554193492 
2396	 0.258344570505974 
2397	 0.261215107428561 
2398	 0.261957957642813 
2399	 0.262583781446972 
2400	 0.261509118948841 
2401	 0.258120887659932 
2402	 0.255990607497765 
2403	 0.253657955655036 
2404	 0.253590728426148 
2405	 0.255452363319021 
2406	 0.25703102066325 
2407	 0.258393068055825 
2408	 0.256092904267609 
2409	 0.251932224070383 
2410	 0.250247708488994 
2411	 0.247214656585393 
2412	 0.2472680216664 
2413	 0.252230111059275 
2414	 0.25195856079517 
2415	 0.252911897311718 
2416	 0.25445783321027 
2417	 0.249525882430576 
2418	 0.246950892636782 
2419	 0.247698967589464 
2420	 0.246754533715745 
2421	 0.245390001450912 
2422	 0.246342175539391 
2423	 0.244582436644494 
2424	 0.240843594328947 
2425	 0.239508432284398 
2426	 0.237083413195648 
2427	 0.234514535782789 
2428	 0.237886807819931 
2429	 0.242663141324711 
2430	 0.243821726149254 
2431	 0.248575624913402 
2432	 0.252283299354417 
2433	 0.254266440078983 
2434	 0.25297570103593 
2435	 0.245618391896047 
2436	 0.238497076260984 
2437	 0.225155517432289 
2438	 0.220900892206681 
2439	 0.222627417454215 
2440	 0.223095460768294 
2441	 0.230141080716873 
2442	 0.232229984971883 
2443	 0.229407952408639 
2444	 0.229969414043964 
2445	 0.230979569165376 
2446	 0.230751539432094 
2447	 0.233455166984416 
2448	 0.233001774010905 
2449	 0.229836660913036 
2450	 0.228416600167928 
2451	 0.223199247016373 
2452	 0.220206077013965 
2453	 0.220186377643001 
2454	 0.218545288022242 
2455	 0.216686261957389 
2456	 0.21934815009221 
2457	 0.225991694301346 
2458	 0.225065125141222 
2459	 0.223843168206903 
2460	 0.2195627433107 
2461	 0.20614895653071 
2462	 0.197026628942123 
2463	 0.189163951851809 
2464	 0.184753070881418 
2465	 0.176951711073486 
2466	 0.180881127547576 
2467	 0.200357922780726 
2468	 0.206710159650826 
2469	 0.218200866683807 
2470	 0.222245171550705 
2471	 0.210769614481867 
2472	 0.204853995736021 
2473	 0.195515682024474 
2474	 0.191825779446642 
2475	 0.19464145430193 
2476	 0.195837738392315 
2477	 0.206952364623907 
2478	 0.204637874014894 
2479	 0.178487488234845 
2480	 0.167662439980649 
2481	 0.158917567508357 
2482	 0.159478571327684 
2483	 0.185071373325127 
2484	 0.202038295141223 
2485	 0.216570594488567 
2486	 0.262219234089214 
2487	 0.271050111618953 
2488	 0.240573318353227 
2489	 0.252807329499785 
2490	 0.182688871658523 
2491	 0.124716096594759 
2492	 0.185132754096366 
2493	 0.186308811777255 
2494	 0.204781757555603 
2495	 0.235965526691639 
2496	 0.206616864978425 
2497	 0.200254687564207 
2498	 0.21572533218374 
2499	 0.244215235846967 
2500	 0.252595685970928 
