Wavelength	ref00121.asd
350	 0.248627199530983 
351	 0.267018639565923 
352	 0.272329422737227 
353	 0.270930991517041 
354	 0.268119628586248 
355	 0.2595311584763 
356	 0.247953249654363 
357	 0.253688842218182 
358	 0.247464900692237 
359	 0.235561765759011 
360	 0.234386961658081 
361	 0.248121411523055 
362	 0.244575131410768 
363	 0.227666252685097 
364	 0.224198578773051 
365	 0.22402579900868 
366	 0.22342771062116 
367	 0.22192082402962 
368	 0.222491136183582 
369	 0.221890854489839 
370	 0.221575364243639 
371	 0.222490418717206 
372	 0.221374017626618 
373	 0.21417248798624 
374	 0.207130132383363 
375	 0.209058362210328 
376	 0.20882697860206 
377	 0.204874042827775 
378	 0.200242793540117 
379	 0.201704590754817 
380	 0.204615870268559 
381	 0.201127592475082 
382	 0.19125768421577 
383	 0.196953288092427 
384	 0.195815590930578 
385	 0.186906143095491 
386	 0.179906519322496 
387	 0.185188972463329 
388	 0.186592864932651 
389	 0.182110986672482 
390	 0.184481218452951 
391	 0.183707006826565 
392	 0.182210336069092 
393	 0.181755152831303 
394	 0.176960589963984 
395	 0.181136983470458 
396	 0.186193207796571 
397	 0.181210497009493 
398	 0.178524422990281 
399	 0.172846662368886 
400	 0.168407024565969 
401	 0.175571477241455 
402	 0.16846121883357 
403	 0.16407779604039 
404	 0.171384451657451 
405	 0.171873260921698 
406	 0.168425206518391 
407	 0.165808159270059 
408	 0.167438519337647 
409	 0.164374425300913 
410	 0.16289975189388 
411	 0.164824827422264 
412	 0.167347453339023 
413	 0.166119886010053 
414	 0.164553271822907 
415	 0.164320001142105 
416	 0.160340942463182 
417	 0.163722572265337 
418	 0.16677057338724 
419	 0.160187264623313 
420	 0.158634101370471 
421	 0.160980568253737 
422	 0.162296209141568 
423	 0.156294310817893 
424	 0.157537090069988 
425	 0.160658288121545 
426	 0.160747988065205 
427	 0.161098072390203 
428	 0.159428593482283 
429	 0.158218757802921 
430	 0.159806662591922 
431	 0.157536577812927 
432	 0.157655380192186 
433	 0.158971633088115 
434	 0.154507391040947 
435	 0.154226887224436 
436	 0.154887776781239 
437	 0.153850893099613 
438	 0.154276926665342 
439	 0.152406663247166 
440	 0.150332892217163 
441	 0.151010764808679 
442	 0.150519719847501 
443	 0.149871261967614 
444	 0.149543953611593 
445	 0.149259220409908 
446	 0.14914173005808 
447	 0.149337783683991 
448	 0.149536905106815 
449	 0.148165013863925 
450	 0.147773127777184 
451	 0.147723625638685 
452	 0.146513898874378 
453	 0.14637183365023 
454	 0.146305272576065 
455	 0.146222895436432 
456	 0.147290354404798 
457	 0.145862720539673 
458	 0.144084616928489 
459	 0.143959436894426 
460	 0.143073035371857 
461	 0.143069510180835 
462	 0.143086804793702 
463	 0.141395347236594 
464	 0.141077862450031 
465	 0.140464340662736 
466	 0.139025392566103 
467	 0.138608068644416 
468	 0.137920621156396 
469	 0.137688583710471 
470	 0.138316250803057 
471	 0.136937084479966 
472	 0.136115330156068 
473	 0.136445335698267 
474	 0.136974991054792 
475	 0.136909153113177 
476	 0.135712788921236 
477	 0.134029302753622 
478	 0.134580760835694 
479	 0.134965605778296 
480	 0.134614662870478 
481	 0.133720236436883 
482	 0.132953713944041 
483	 0.132588246006381 
484	 0.132676161345543 
485	 0.132994063297224 
486	 0.13196330229723 
487	 0.131178367962768 
488	 0.131541246734048 
489	 0.130403780513182 
490	 0.130713503866162 
491	 0.1317071686193 
492	 0.131411364592307 
493	 0.130807535294618 
494	 0.131086954215895 
495	 0.132247974988735 
496	 0.132858971419937 
497	 0.132670934926194 
498	 0.133075414027023 
499	 0.1349254779112 
500	 0.135917091913164 
501	 0.137394903756916 
502	 0.139329721641836 
503	 0.140994908728386 
504	 0.14337321300883 
505	 0.145718941504342 
506	 0.147973618585084 
507	 0.151540818403809 
508	 0.154678443724633 
509	 0.158169629781955 
510	 0.163129528863995 
511	 0.168455480048453 
512	 0.175102764920431 
513	 0.182429365641658 
514	 0.188734341891003 
515	 0.196889408229514 
516	 0.206784387973292 
517	 0.217369860127703 
518	 0.226658907081429 
519	 0.237092426919584 
520	 0.248329114191961 
521	 0.259216993978785 
522	 0.27015762370193 
523	 0.282113741190259 
524	 0.294490510497236 
525	 0.304792613533312 
526	 0.315452914437861 
527	 0.326766844608179 
528	 0.338156396153926 
529	 0.347938509961651 
530	 0.356825809098004 
531	 0.365229880763202 
532	 0.373332089754486 
533	 0.380056491232791 
534	 0.386507458525742 
535	 0.392683516020548 
536	 0.396374384126651 
537	 0.400102525654642 
538	 0.403657875076439 
539	 0.406436360981709 
540	 0.409973977655549 
541	 0.412539058926568 
542	 0.414047000326736 
543	 0.415838042937343 
544	 0.417424565782978 
545	 0.419123513952776 
546	 0.421079461075917 
547	 0.422797247161565 
548	 0.424581823426123 
549	 0.42623233019227 
550	 0.427309792039044 
551	 0.427295680381695 
552	 0.426630849833692 
553	 0.425565147904664 
554	 0.424024919546072 
555	 0.42101183223416 
556	 0.417213488854305 
557	 0.413194070943888 
558	 0.407721314251104 
559	 0.402203504070366 
560	 0.396325282049941 
561	 0.38889705026752 
562	 0.382372730761864 
563	 0.375158044833546 
564	 0.366642201315392 
565	 0.358817092947681 
566	 0.35094455104019 
567	 0.342155201653651 
568	 0.33221803328132 
569	 0.324201052976117 
570	 0.315985000867681 
571	 0.307092641801447 
572	 0.298731382815174 
573	 0.290909131808335 
574	 0.283611779872126 
575	 0.276589404049071 
576	 0.269092065702144 
577	 0.262472897744804 
578	 0.256876788522192 
579	 0.251783396687387 
580	 0.246817980212364 
581	 0.242413261078476 
582	 0.238431274027036 
583	 0.233890815594337 
584	 0.23007376928873 
585	 0.226459151903177 
586	 0.222532187049491 
587	 0.219553295967789 
588	 0.216909664764268 
589	 0.214034645996766 
590	 0.210648324580535 
591	 0.208513059939714 
592	 0.206825799909854 
593	 0.204897418669377 
594	 0.20306085233711 
595	 0.201289098191539 
596	 0.19947564778211 
597	 0.197583510571274 
598	 0.19616361070666 
599	 0.194392604320831 
600	 0.192414222564329 
601	 0.191303463760637 
602	 0.18944093769478 
603	 0.187247952748939 
604	 0.185208656722718 
605	 0.182804971196147 
606	 0.180439706048586 
607	 0.178016763308725 
608	 0.175273037856528 
609	 0.17266607900651 
610	 0.169911102685451 
611	 0.167065822902714 
612	 0.164734332345806 
613	 0.162101672339746 
614	 0.159328431777453 
615	 0.156721431061292 
616	 0.154019925479926 
617	 0.151357743424219 
618	 0.149027763981749 
619	 0.147309162955315 
620	 0.145749492595043 
621	 0.144394731349504 
622	 0.143156279546485 
623	 0.141496063596823 
624	 0.140483122714974 
625	 0.139648990287648 
626	 0.138367696468401 
627	 0.138266565171807 
628	 0.137828746267413 
629	 0.136869360233282 
630	 0.136559749581353 
631	 0.136102581608321 
632	 0.13502707003851 
633	 0.133411936814025 
634	 0.132542788722789 
635	 0.131409230242861 
636	 0.129782032208462 
637	 0.127862218360506 
638	 0.126119513724416 
639	 0.124405657588578 
640	 0.122538391108477 
641	 0.120414409325992 
642	 0.117273199328862 
643	 0.114758209092008 
644	 0.113878248803129 
645	 0.111846680628555 
646	 0.109279510525397 
647	 0.106919076665608 
648	 0.105511285661122 
649	 0.104685378639386 
650	 0.103436125479537 
651	 0.101752671501025 
652	 0.101223307271648 
653	 0.100758120739262 
654	 9.98205021847867E-02 
655	 9.83573042048954E-02 
656	 9.79236476114874E-02 
657	 9.72414006576559E-02 
658	 9.63867597782787E-02 
659	 0.096232279610712 
660	 0.095165402262257 
661	 9.37764905142486E-02 
662	 9.26510787721661E-02 
663	 9.17182316052743E-02 
664	 9.08804652577727E-02 
665	 9.01278345307334E-02 
666	 8.95276115738273E-02 
667	 8.94551320856055E-02 
668	 8.89271368717013E-02 
669	 0.088187212576535 
670	 8.85043175474005E-02 
671	 8.79548890749594E-02 
672	 8.83145872236372E-02 
673	 9.02044206414737E-02 
674	 9.00882112362153E-02 
675	 8.98549286761739E-02 
676	 9.02378900976341E-02 
677	 9.13357565403715E-02 
678	 9.20116143500349E-02 
679	 9.27589437606543E-02 
680	 9.39475196389208E-02 
681	 9.56610054136336E-02 
682	 9.69910604693061E-02 
683	 9.85405326865742E-02 
684	 0.100747343888744 
685	 0.102757028362039 
686	 0.105730780079788 
687	 0.110071718529362 
688	 0.11510728453229 
689	 0.118774887622044 
690	 0.123818168907944 
691	 0.131368557987767 
692	 0.140316865621733 
693	 0.152259801144861 
694	 0.166514312347793 
695	 0.182569829967027 
696	 0.201756911583573 
697	 0.222958263796288 
698	 0.246507282586625 
699	 0.272827481882873 
700	 0.299758355954105 
701	 0.327730348499782 
702	 0.357048454231126 
703	 0.387650220492373 
704	 0.417993333512019 
705	 0.448418037691789 
706	 0.479545827801503 
707	 0.510707755305899 
708	 0.542250975414302 
709	 0.573982850791282 
710	 0.60543058256528 
711	 0.638110067489884 
712	 0.671215665889044 
713	 0.704133242196623 
714	 0.736846191955018 
715	 0.769363390161774 
716	 0.80097077998912 
717	 0.832460554247173 
718	 0.866052466669258 
719	 0.900394321532095 
720	 0.934742306704359 
721	 0.968699368156532 
722	 1.00042034468214 
723	 1.03089963501168 
724	 1.06163248684174 
725	 1.09114394796002 
726	 1.12029863338795 
727	 1.14861451222059 
728	 1.17622018361487 
729	 1.20300347725127 
730	 1.22870228597406 
731	 1.25313991182741 
732	 1.27645122007444 
733	 1.2988838252842 
734	 1.31910048540685 
735	 1.33741803349095 
736	 1.35516317342598 
737	 1.3719271445735 
738	 1.38719270254243 
739	 1.40106559229772 
740	 1.41433484532225 
741	 1.42668653633077 
742	 1.43764275223201 
743	 1.44688250147013 
744	 1.45544590986879 
745	 1.46328217769877 
746	 1.47019869276187 
747	 1.4759592748383 
748	 1.48085207217658 
749	 1.48506692300086 
750	 1.48866563208421 
751	 1.49153599749044 
752	 1.4936971187345 
753	 1.49561216329797 
754	 1.49742415126663 
755	 1.49761125765168 
756	 1.49834718562049 
757	 1.50004183015127 
758	 1.50201802369887 
759	 1.5040918026379 
760	 1.50601509622006 
761	 1.50686155985974 
762	 1.50556608935722 
763	 1.50210212557886 
764	 1.497714855102 
765	 1.49399489011555 
766	 1.49313468458979 
767	 1.48995655284007 
768	 1.48638073495049 
769	 1.48512309967985 
770	 1.48291209638649 
771	 1.48022291457644 
772	 1.47795779120255 
773	 1.47690324274714 
774	 1.47346208116141 
775	 1.4706569988104 
776	 1.46965803566662 
777	 1.46685606637094 
778	 1.46408608413212 
779	 1.46168751747001 
780	 1.45959446141262 
781	 1.45767517395352 
782	 1.45573725657844 
783	 1.45369510020689 
784	 1.45151102923432 
785	 1.4490015595593 
786	 1.44631096658842 
787	 1.4435526462364 
788	 1.44077474771432 
789	 1.43749781124808 
790	 1.43515962369806 
791	 1.43401169205326 
792	 1.43113844421742 
793	 1.42915699694873 
794	 1.42763431668536 
795	 1.4253923256153 
796	 1.42227113649847 
797	 1.42017400683173 
798	 1.41881660087138 
799	 1.41667175373185 
800	 1.41365105553558 
801	 1.41105297187504 
802	 1.40922758557658 
803	 1.40726477162201 
804	 1.4055683921061 
805	 1.40344245889161 
806	 1.40087556430631 
807	 1.39966487988162 
808	 1.39718930473687 
809	 1.39455138957373 
810	 1.39300422319259 
811	 1.38959095425281 
812	 1.3857149811261 
813	 1.38185236425276 
814	 1.37786999884533 
815	 1.37327271242329 
816	 1.36982650564319 
817	 1.36797760096906 
818	 1.36648922789934 
819	 1.36591718528094 
820	 1.36585992469797 
821	 1.36509905698836 
822	 1.36127277441316 
823	 1.35882249055448 
824	 1.35842210153879 
825	 1.35888711599894 
826	 1.35734760601457 
827	 1.35551244767541 
828	 1.3538929857963 
829	 1.35232508387594 
830	 1.34935898257535 
831	 1.34802362505468 
832	 1.34785547288119 
833	 1.34605567644111 
834	 1.34470813463087 
835	 1.34383598367773 
836	 1.3432674408733 
837	 1.342850799764 
838	 1.34196977457173 
839	 1.34062311283424 
840	 1.33893195360087 
841	 1.33687922289528 
842	 1.33638822407327 
843	 1.33565360907337 
844	 1.33321775461141 
845	 1.33253428364403 
846	 1.33164572338599 
847	 1.32998511903469 
848	 1.32781709007106 
849	 1.32614157284688 
850	 1.32416419620627 
851	 1.32253946023201 
852	 1.32247896994661 
853	 1.32029686328279 
854	 1.31741471710505 
855	 1.31529890556252 
856	 1.3146484647162 
857	 1.31561557962675 
858	 1.31471152831456 
859	 1.31135873296561 
860	 1.3101505246598 
861	 1.30837567547078 
862	 1.30740972677495 
863	 1.30786081563467 
864	 1.3061783559887 
865	 1.30258766107859 
866	 1.29964260825216 
867	 1.29954612570486 
868	 1.29982356231124 
869	 1.29804621783002 
870	 1.29603234773931 
871	 1.29626443051105 
872	 1.2934980236595 
873	 1.29176481499983 
874	 1.29104405847675 
875	 1.28859377290307 
876	 1.28649324391329 
877	 1.28552851539821 
878	 1.28483453830962 
879	 1.28238229176329 
880	 1.28048887842177 
881	 1.27849858651391 
882	 1.27654021251425 
883	 1.27618713103816 
884	 1.27513852963746 
885	 1.27328963863363 
886	 1.27142434348526 
887	 1.27099844657494 
888	 1.26975533073094 
889	 1.26783912600634 
890	 1.26577440779875 
891	 1.2633831461303 
892	 1.26013097439189 
893	 1.2571329768881 
894	 1.25502931439042 
895	 1.25078766392042 
896	 1.24758515950591 
897	 1.24497333999468 
898	 1.24159128297612 
899	 1.23959702694107 
900	 1.2383848385639 
901	 1.23776372511321 
902	 1.23790374701293 
903	 1.23999282749575 
904	 1.23874042855906 
905	 1.23538763962938 
906	 1.23440960990529 
907	 1.23171090348972 
908	 1.22716797925128 
909	 1.22322701381137 
910	 1.22320321264622 
911	 1.22247072720875 
912	 1.22094946401482 
913	 1.21835092560869 
914	 1.21433396422757 
915	 1.21424217138706 
916	 1.21219761020826 
917	 1.20945172137019 
918	 1.21493920187115 
919	 1.21307002131673 
920	 1.21072963019055 
921	 1.21150470045588 
922	 1.21050048886775 
923	 1.2085850455975 
924	 1.20661363289294 
925	 1.20496094102593 
926	 1.20303787436003 
927	 1.19871980854025 
928	 1.19346764182935 
929	 1.18748398005047 
930	 1.17733758437071 
931	 1.17315545493489 
932	 1.16769106426783 
933	 1.15658258263194 
934	 1.15271142314307 
935	 1.15102788706148 
936	 1.14901484327476 
937	 1.14777258236481 
938	 1.15346702080353 
939	 1.15580437982285 
940	 1.15742546281326 
941	 1.1596497857792 
942	 1.15559892726842 
943	 1.14906068354628 
944	 1.14532919481216 
945	 1.14552167845717 
946	 1.14113906868228 
947	 1.13961134511135 
948	 1.13650652569527 
949	 1.13053515166159 
950	 1.132421751267 
951	 1.13276457909019 
952	 1.1316176046255 
953	 1.12989174376412 
954	 1.12518268318154 
955	 1.12430312601964 
956	 1.12537156543023 
957	 1.12531264503604 
958	 1.12362498063236 
959	 1.12026308824598 
960	 1.12019550243858 
961	 1.12380283045955 
962	 1.12177510299934 
963	 1.12532751527533 
964	 1.12568559054692 
965	 1.120373882743 
966	 1.12370225762636 
967	 1.12624073631728 
968	 1.12744090198115 
969	 1.12731626133792 
970	 1.12425981259992 
971	 1.12615386043628 
972	 1.12583166122215 
973	 1.12066144721126 
974	 1.11848241136571 
975	 1.1171884552156 
976	 1.11609357992781 
977	 1.11599825491659 
978	 1.11872501871893 
979	 1.11707807863062 
980	 1.11768005939171 
981	 1.1211527138083 
982	 1.11997020895802 
983	 1.11557707137546 
984	 1.11508314753252 
985	 1.11930725311337 
986	 1.12237945256905 
987	 1.12095984451553 
988	 1.11555593676 
989	 1.11167495323207 
990	 1.11485712295616 
991	 1.11109407683467 
992	 1.11260678109237 
993	 1.11962386263903 
994	 1.12339406570712 
995	 1.11954933228852 
996	 1.11478226312599 
997	 1.11438039572021 
998	 1.11891561586515 
999	 1.1174925095651 
1000	 1.11164250249257 
1001	 1.13691644726721 
1002	 1.13727628035112 
1003	 1.13719268127372 
1004	 1.13710448546835 
1005	 1.13690000646459 
1006	 1.13621042198131 
1007	 1.13617439750578 
1008	 1.13655942180101 
1009	 1.1365011381383 
1010	 1.13677129836331 
1011	 1.13673602404067 
1012	 1.13545610568403 
1013	 1.13447148787903 
1014	 1.13371978904228 
1015	 1.13304633001206 
1016	 1.13301949082984 
1017	 1.1328961742349 
1018	 1.1328527485087 
1019	 1.13297245191399 
1020	 1.13303649587326 
1021	 1.13327244671388 
1022	 1.13315546548572 
1023	 1.13296864438771 
1024	 1.13219718307724 
1025	 1.13184512166834 
1026	 1.1317133453413 
1027	 1.13164244708417 
1028	 1.13224941026329 
1029	 1.13196848931546 
1030	 1.13164756602416 
1031	 1.13185783101548 
1032	 1.13137588637563 
1033	 1.13123686585977 
1034	 1.13162193312416 
1035	 1.13155150371427 
1036	 1.13118307343455 
1037	 1.13080982481711 
1038	 1.13023870010342 
1039	 1.12986177285845 
1040	 1.12926494712701 
1041	 1.12898855403245 
1042	 1.1290357741103 
1043	 1.12885604723457 
1044	 1.12907169083561 
1045	 1.12925863158496 
1046	 1.12861583543672 
1047	 1.12799145360096 
1048	 1.12725328580365 
1049	 1.12666713433771 
1050	 1.12638868331902 
1051	 1.12678281087857 
1052	 1.12657956676831 
1053	 1.12603209727042 
1054	 1.12577486347469 
1055	 1.12524105729899 
1056	 1.12449481229294 
1057	 1.12371646218872 
1058	 1.12302549163342 
1059	 1.12246424268983 
1060	 1.12163649728318 
1061	 1.12103372442867 
1062	 1.12043423108934 
1063	 1.11958113664236 
1064	 1.1193697081917 
1065	 1.11883845000855 
1066	 1.11849504906737 
1067	 1.11772105244859 
1068	 1.11682101567653 
1069	 1.11525450174621 
1070	 1.11385035076938 
1071	 1.11291428694825 
1072	 1.11203339833275 
1073	 1.11122932424372 
1074	 1.11003253350857 
1075	 1.10865679821551 
1076	 1.10694172797571 
1077	 1.10545403975564 
1078	 1.10473767387493 
1079	 1.10376016007972 
1080	 1.10274678323848 
1081	 1.10171510578803 
1082	 1.10061941476015 
1083	 1.09922229733331 
1084	 1.09809913412426 
1085	 1.09732607884615 
1086	 1.09621204650448 
1087	 1.09512140692259 
1088	 1.0944287502821 
1089	 1.09278450014742 
1090	 1.09101938396318 
1091	 1.08984455498839 
1092	 1.08819780617816 
1093	 1.08667944713333 
1094	 1.08533183079695 
1095	 1.08372052885187 
1096	 1.08229307225573 
1097	 1.08101319435287 
1098	 1.07947362148538 
1099	 1.07789674276391 
1100	 1.07639325543837 
1101	 1.07460918515668 
1102	 1.07310734569284 
1103	 1.07186175264361 
1104	 1.07029497638451 
1105	 1.06858818569817 
1106	 1.06685701482445 
1107	 1.06504773859728 
1108	 1.06314687315366 
1109	 1.06105991355285 
1110	 1.0585917428306 
1111	 1.0557353929022 
1112	 1.05196623827367 
1113	 1.04873048246767 
1114	 1.04522647635689 
1115	 1.0415927964199 
1116	 1.03811023177134 
1117	 1.03450963168576 
1118	 1.03042159422759 
1119	 1.02533526630595 
1120	 1.02007190088299 
1121	 1.01539484627741 
1122	 1.01147671317985 
1123	 1.00916561669026 
1124	 1.00744049923334 
1125	 1.0057263392882 
1126	 1.00433571298102 
1127	 1.00307673377993 
1128	 1.00168203043415 
1129	 1.00095466279738 
1130	 1.00005426119532 
1131	 0.998886869828728 
1132	 0.998027011050897 
1133	 0.997642482608923 
1134	 0.99661827788095 
1135	 0.995864692733843 
1136	 0.994815834630506 
1137	 0.993143060203259 
1138	 0.991539556238599 
1139	 0.989288683970432 
1140	 0.98624010531842 
1141	 0.983029542446754 
1142	 0.980119168366191 
1143	 0.977107022926432 
1144	 0.973680770298831 
1145	 0.970757102970036 
1146	 0.968127960022041 
1147	 0.965330415228766 
1148	 0.96236067723375 
1149	 0.960308695008863 
1150	 0.95866832535536 
1151	 0.957369877691269 
1152	 0.956479948705757 
1153	 0.956316569989126 
1154	 0.956494836725639 
1155	 0.956345644720637 
1156	 0.956367404171881 
1157	 0.956749595713298 
1158	 0.956956566694723 
1159	 0.95676700508489 
1160	 0.956740958375162 
1161	 0.956880596018827 
1162	 0.956915003759129 
1163	 0.956900697521886 
1164	 0.956810502331301 
1165	 0.956652404227157 
1166	 0.956482746140651 
1167	 0.956264419643291 
1168	 0.955946971915794 
1169	 0.955649330660838 
1170	 0.95533624582733 
1171	 0.954604063388242 
1172	 0.954042513444187 
1173	 0.953667164283402 
1174	 0.953301888891703 
1175	 0.952959231002766 
1176	 0.95225456802459 
1177	 0.951540059143159 
1178	 0.950570011423777 
1179	 0.949673221632667 
1180	 0.948750088237982 
1181	 0.947884730893794 
1182	 0.946935630977743 
1183	 0.946099307788393 
1184	 0.945183941734446 
1185	 0.944561814952439 
1186	 0.94437209309629 
1187	 0.943825236682418 
1188	 0.943259266562043 
1189	 0.942783798281265 
1190	 0.941715273218958 
1191	 0.940886490938668 
1192	 0.940750938863843 
1193	 0.940628977023176 
1194	 0.940404251063435 
1195	 0.940583430010264 
1196	 0.940178917898052 
1197	 0.939234295416839 
1198	 0.938731716050166 
1199	 0.938226088130991 
1200	 0.937808013537632 
1201	 0.937607224753613 
1202	 0.937287033204489 
1203	 0.936839171670008 
1204	 0.936611005532496 
1205	 0.936513553216038 
1206	 0.936351278563841 
1207	 0.936303449597502 
1208	 0.936242844537872 
1209	 0.936099286167397 
1210	 0.936042187232514 
1211	 0.936141020531583 
1212	 0.935874550710772 
1213	 0.935816203753808 
1214	 0.935657656668621 
1215	 0.935846178998692 
1216	 0.936291896082451 
1217	 0.93660326075726 
1218	 0.937062827432482 
1219	 0.937392773563919 
1220	 0.937553803608278 
1221	 0.937884275197872 
1222	 0.938338871089134 
1223	 0.938719447902778 
1224	 0.939186166570019 
1225	 0.93949685960495 
1226	 0.939731366116488 
1227	 0.939914093888523 
1228	 0.940056290273294 
1229	 0.939995419944125 
1230	 0.940033583842053 
1231	 0.940231714364609 
1232	 0.940479736197855 
1233	 0.940952623480983 
1234	 0.941116735204548 
1235	 0.941266766313457 
1236	 0.941233129383521 
1237	 0.940796262560058 
1238	 0.940811338500397 
1239	 0.941053246490235 
1240	 0.94107502124544 
1241	 0.941232643479003 
1242	 0.941254083473357 
1243	 0.94092546572074 
1244	 0.940860909423295 
1245	 0.941055567612205 
1246	 0.941071757021236 
1247	 0.941050029785507 
1248	 0.941029585623244 
1249	 0.940851725444402 
1250	 0.940773529629353 
1251	 0.940655191561091 
1252	 0.94083799952577 
1253	 0.940812560733241 
1254	 0.940857784987952 
1255	 0.940670076642576 
1256	 0.940359864406477 
1257	 0.939961924621379 
1258	 0.93929611272388 
1259	 0.938884692437909 
1260	 0.93852857425995 
1261	 0.93811197835014 
1262	 0.937848660140977 
1263	 0.937397370481449 
1264	 0.936534956340743 
1265	 0.936182811480499 
1266	 0.936132901535842 
1267	 0.935947059100846 
1268	 0.936200809949638 
1269	 0.936061098322621 
1270	 0.935588416839348 
1271	 0.935129629972691 
1272	 0.934621539760165 
1273	 0.933937724993854 
1274	 0.933274909763884 
1275	 0.932616382687662 
1276	 0.931746515380054 
1277	 0.930604900775972 
1278	 0.929863232205897 
1279	 0.929194001824647 
1280	 0.928433072687479 
1281	 0.92801419199895 
1282	 0.927155814980236 
1283	 0.925857233904281 
1284	 0.92482927076855 
1285	 0.923819630535904 
1286	 0.922778845728084 
1287	 0.921885374377232 
1288	 0.920781842238107 
1289	 0.919573390414499 
1290	 0.918267409414015 
1291	 0.916746825292125 
1292	 0.915310613199349 
1293	 0.913867972074896 
1294	 0.912344369077572 
1295	 0.910938712068948 
1296	 0.909292715132518 
1297	 0.907463862852367 
1298	 0.905401039008386 
1299	 0.903403002214424 
1300	 0.901114881603317 
1301	 0.899224160418877 
1302	 0.897666646175128 
1303	 0.895626197900149 
1304	 0.893534322554935 
1305	 0.891364217342238 
1306	 0.888767386259063 
1307	 0.886452326652261 
1308	 0.884436840511863 
1309	 0.882099853590603 
1310	 0.879504830948324 
1311	 0.877084095758607 
1312	 0.874726954915059 
1313	 0.872190259703984 
1314	 0.86965079791022 
1315	 0.867108362031296 
1316	 0.86429629444233 
1317	 0.861653698607277 
1318	 0.859360131144402 
1319	 0.856758722687478 
1320	 0.853989855189321 
1321	 0.85126766969731 
1322	 0.848109709876709 
1323	 0.844443939826068 
1324	 0.841142456074251 
1325	 0.837668404614093 
1326	 0.834246301347296 
1327	 0.830993525419313 
1328	 0.827477694293769 
1329	 0.823687344509524 
1330	 0.820004097736117 
1331	 0.816290246750364 
1332	 0.812636663804659 
1333	 0.808894396008902 
1334	 0.805490360857731 
1335	 0.802235873558891 
1336	 0.799235441886639 
1337	 0.79670183894528 
1338	 0.79392651953316 
1339	 0.791214369573683 
1340	 0.788230899113539 
1341	 0.784558097266716 
1342	 0.781130068239179 
1343	 0.77723448329759 
1344	 0.773324897851503 
1345	 0.769455688424062 
1346	 0.764449922776817 
1347	 0.759196378671685 
1348	 0.754555172453832 
1349	 0.748749718844766 
1350	 0.74242477605438 
1351	 0.735003081741222 
1352	 0.725368813266682 
1353	 0.715980197835626 
1354	 0.708890447911907 
1355	 0.697361314593042 
1356	 0.688427289531648 
1357	 0.675092524853217 
1358	 0.665448986426685 
1359	 0.646622990954333 
1360	 0.639988166384602 
1361	 0.620293740861147 
1362	 0.601182963466142 
1363	 0.567496714975945 
1364	 0.541311107627776 
1365	 0.526031617042852 
1366	 0.529906962082771 
1367	 0.525617424468147 
1368	 0.536646103063186 
1369	 0.541316019599819 
1370	 0.544502748764228 
1371	 0.540646437630299 
1372	 0.525308299347844 
1373	 0.526886629347402 
1374	 0.534245711329961 
1375	 0.54162077715504 
1376	 0.537555374177504 
1377	 0.534910100013325 
1378	 0.527308279531818 
1379	 0.49996821687347 
1380	 0.488926918029189 
1381	 0.491069348197481 
1382	 0.48248427429455 
1383	 0.469564247124559 
1384	 0.458921449335479 
1385	 0.448149824854886 
1386	 0.439735798893276 
1387	 0.432811743971119 
1388	 0.427494135328862 
1389	 0.423967539116681 
1390	 0.421150438906356 
1391	 0.423308363603287 
1392	 0.416067600283553 
1393	 0.405351155719922 
1394	 0.395097191714399 
1395	 0.377888531129451 
1396	 0.367066808283501 
1397	 0.359338875063622 
1398	 0.352529534323096 
1399	 0.34803402249146 
1400	 0.342031786174838 
1401	 0.338128779023303 
1402	 0.331610587846469 
1403	 0.323214936685456 
1404	 0.315908324254265 
1405	 0.307837065079074 
1406	 0.301382307431747 
1407	 0.294902424452609 
1408	 0.289952039796846 
1409	 0.287171010570966 
1410	 0.283208247720627 
1411	 0.280503343705767 
1412	 0.279099719484088 
1413	 0.276596568867248 
1414	 0.274016876889102 
1415	 0.271224951180703 
1416	 0.267923894299039 
1417	 0.265641293204552 
1418	 0.263704738717266 
1419	 0.261683407394957 
1420	 0.260013798891367 
1421	 0.258323285156232 
1422	 0.256054657558992 
1423	 0.254823217807538 
1424	 0.254727939225782 
1425	 0.253401440749935 
1426	 0.251429792228687 
1427	 0.250293378647134 
1428	 0.248902804624326 
1429	 0.247693960088839 
1430	 0.247691456804641 
1431	 0.246598698871512 
1432	 0.244198438487557 
1433	 0.242713872153957 
1434	 0.240968559305893 
1435	 0.24003180741905 
1436	 0.239942984042706 
1437	 0.239784534016388 
1438	 0.240644493583567 
1439	 0.240488573047678 
1440	 0.239586899829043 
1441	 0.239163967879506 
1442	 0.238804911328283 
1443	 0.237585131025493 
1444	 0.237633382194203 
1445	 0.238026792151923 
1446	 0.238198367946429 
1447	 0.238494740720074 
1448	 0.238632559818308 
1449	 0.238406953059359 
1450	 0.239189625214747 
1451	 0.240301059413963 
1452	 0.241133442956503 
1453	 0.242491643946445 
1454	 0.243239746416749 
1455	 0.243598001696261 
1456	 0.24406579521375 
1457	 0.244479969303676 
1458	 0.244937259383265 
1459	 0.245436594734417 
1460	 0.245781114451193 
1461	 0.246097268542016 
1462	 0.246514712126756 
1463	 0.246609557761069 
1464	 0.247268351902521 
1465	 0.248555586660824 
1466	 0.24947636046507 
1467	 0.250251872641781 
1468	 0.251527853082138 
1469	 0.252834749682297 
1470	 0.254344984687113 
1471	 0.256335935505714 
1472	 0.258220286090921 
1473	 0.259642775539432 
1474	 0.261644350443006 
1475	 0.263910346483527 
1476	 0.266335264206018 
1477	 0.268997846644774 
1478	 0.271727494877688 
1479	 0.274675667261542 
1480	 0.277486153380379 
1481	 0.280141285049389 
1482	 0.283033732590999 
1483	 0.286162062160072 
1484	 0.288906029058835 
1485	 0.291240513914103 
1486	 0.294072051174879 
1487	 0.297002346317956 
1488	 0.299679830171522 
1489	 0.302682669609387 
1490	 0.30587320403073 
1491	 0.308752625324538 
1492	 0.311546406446179 
1493	 0.314548046443034 
1494	 0.31750165202247 
1495	 0.320270449169104 
1496	 0.322978688914912 
1497	 0.325589690937039 
1498	 0.327960392416171 
1499	 0.330831574562674 
1500	 0.334032303818328 
1501	 0.33680290101478 
1502	 0.339695165960385 
1503	 0.342559634104713 
1504	 0.345088848167648 
1505	 0.347768832752976 
1506	 0.350649304812414 
1507	 0.353479104675795 
1508	 0.356128749198147 
1509	 0.35892403360391 
1510	 0.362013065445643 
1511	 0.364773740191632 
1512	 0.36723652005463 
1513	 0.370022985699496 
1514	 0.37295502223826 
1515	 0.375726634385252 
1516	 0.378677783646631 
1517	 0.381427933742245 
1518	 0.383912661310958 
1519	 0.386566501888107 
1520	 0.389293278446386 
1521	 0.391970672696117 
1522	 0.394741911225178 
1523	 0.397326233176342 
1524	 0.399705721769447 
1525	 0.402290807547834 
1526	 0.404847309444322 
1527	 0.407481078868036 
1528	 0.410526244642121 
1529	 0.41309729755858 
1530	 0.415327524074588 
1531	 0.417738121926372 
1532	 0.41991054229526 
1533	 0.42231045647547 
1534	 0.425064653099615 
1535	 0.427568018385133 
1536	 0.430013597481689 
1537	 0.432418244935191 
1538	 0.434607068360982 
1539	 0.436987491526483 
1540	 0.439628801204455 
1541	 0.441945002241716 
1542	 0.444049143056212 
1543	 0.446337775579373 
1544	 0.448679867052459 
1545	 0.450764942337734 
1546	 0.452793901893266 
1547	 0.454917113197073 
1548	 0.456787464066428 
1549	 0.458746865475331 
1550	 0.46090993524555 
1551	 0.463103356668646 
1552	 0.465396973695484 
1553	 0.467466978400509 
1554	 0.469568343396848 
1555	 0.471547394574866 
1556	 0.473119703597681 
1557	 0.474877641213493 
1558	 0.476718988095161 
1559	 0.478596892975406 
1560	 0.480584806174003 
1561	 0.482522393832038 
1562	 0.484579596895652 
1563	 0.486470585502997 
1564	 0.488210974080792 
1565	 0.49000422422007 
1566	 0.491538221314067 
1567	 0.493188466152817 
1568	 0.494828583722198 
1569	 0.496480044760447 
1570	 0.498113556600624 
1571	 0.499731150019299 
1572	 0.501475606564361 
1573	 0.503280547243694 
1574	 0.504952895991751 
1575	 0.506664081493741 
1576	 0.508293598249374 
1577	 0.509767996618123 
1578	 0.511246324872216 
1579	 0.512694195443793 
1580	 0.514227040736004 
1581	 0.515747020923312 
1582	 0.51713441190489 
1583	 0.518523697746421 
1584	 0.519999092752145 
1585	 0.521400126068352 
1586	 0.52272841131654 
1587	 0.524171317207326 
1588	 0.525552950569212 
1589	 0.526745503842399 
1590	 0.528007716440043 
1591	 0.529413647486951 
1592	 0.530702051021449 
1593	 0.531917058827601 
1594	 0.532964840545347 
1595	 0.533860071553471 
1596	 0.535098389519797 
1597	 0.536296795142159 
1598	 0.537560170992377 
1599	 0.539386695066769 
1600	 0.54033318066743 
1601	 0.540523674431327 
1602	 0.541601360448816 
1603	 0.542711238709005 
1604	 0.543911332770921 
1605	 0.545780950969607 
1606	 0.546974682704096 
1607	 0.547672823824434 
1608	 0.548680549737198 
1609	 0.549799227260125 
1610	 0.550606922699285 
1611	 0.551122722407101 
1612	 0.552180378722955 
1613	 0.55333447757817 
1614	 0.554336508877914 
1615	 0.555688756506892 
1616	 0.556743213329648 
1617	 0.557483170909531 
1618	 0.55824090445956 
1619	 0.559052600621834 
1620	 0.559841861518119 
1621	 0.560436252333648 
1622	 0.561055349536278 
1623	 0.561720114569831 
1624	 0.562520338041512 
1625	 0.563231519193131 
1626	 0.564094550113424 
1627	 0.565368743114571 
1628	 0.56614997895595 
1629	 0.566616352152514 
1630	 0.56731826814951 
1631	 0.568111768774254 
1632	 0.568481982547422 
1633	 0.568679222615239 
1634	 0.569135197773423 
1635	 0.569261636354988 
1636	 0.56977792097015 
1637	 0.570909187057608 
1638	 0.571353496174779 
1639	 0.571489273529117 
1640	 0.571788059564531 
1641	 0.571882099289449 
1642	 0.572196964339386 
1643	 0.57278341074373 
1644	 0.572831411357818 
1645	 0.572559055444855 
1646	 0.572709797689976 
1647	 0.572803790007258 
1648	 0.572959621981368 
1649	 0.573512134584867 
1650	 0.573587611346086 
1651	 0.573312315401987 
1652	 0.573136460314134 
1653	 0.572928604456708 
1654	 0.572746227971077 
1655	 0.572460945445427 
1656	 0.572296377941452 
1657	 0.572221723526231 
1658	 0.571830070974528 
1659	 0.571652707207007 
1660	 0.571411025318715 
1661	 0.571561555365738 
1662	 0.571471760083679 
1663	 0.571091183773894 
1664	 0.57089124510944 
1665	 0.570297061060759 
1666	 0.570041338988791 
1667	 0.570372156366011 
1668	 0.570338301980782 
1669	 0.570522319436809 
1670	 0.571046701940941 
1671	 0.570892463855173 
1672	 0.570691843155792 
1673	 0.57086225331717 
1674	 0.570730800920245 
1675	 0.570989710638308 
1676	 0.5717090396851 
1677	 0.571808513299861 
1678	 0.57188309125826 
1679	 0.571977202581099 
1680	 0.571645641156689 
1681	 0.571681921305201 
1682	 0.571548416414719 
1683	 0.571279386148583 
1684	 0.571483343173995 
1685	 0.571351969207396 
1686	 0.571041124845577 
1687	 0.570815700234792 
1688	 0.570545484469027 
1689	 0.570437730454785 
1690	 0.570688700854336 
1691	 0.570522702363241 
1692	 0.569730139851966 
1693	 0.569218046575826 
1694	 0.568748268869336 
1695	 0.568208370373645 
1696	 0.567724444239757 
1697	 0.56726871986694 
1698	 0.566681086333629 
1699	 0.566317321096482 
1700	 0.566483102723211 
1701	 0.566072846602806 
1702	 0.565475399962382 
1703	 0.564510208575091 
1704	 0.562628908559822 
1705	 0.561575791942891 
1706	 0.560806957256056 
1707	 0.560073018471872 
1708	 0.559775437397794 
1709	 0.5593529921412 
1710	 0.558957498194607 
1711	 0.558365823248502 
1712	 0.558004295842929 
1713	 0.557101635239789 
1714	 0.55548073585848 
1715	 0.554278606487565 
1716	 0.553097653799047 
1717	 0.5518846821387 
1718	 0.550726006450768 
1719	 0.549827623128488 
1720	 0.548943995898183 
1721	 0.547919762634074 
1722	 0.547107813072492 
1723	 0.546077657470407 
1724	 0.54497863580786 
1725	 0.54369904453244 
1726	 0.542114318162904 
1727	 0.540996581187925 
1728	 0.539837326549053 
1729	 0.538593855030679 
1730	 0.537865741147914 
1731	 0.536203991640659 
1732	 0.534664629587806 
1733	 0.533486923024203 
1734	 0.532185680299448 
1735	 0.531502771111702 
1736	 0.530728920019402 
1737	 0.52936933368856 
1738	 0.528433978640536 
1739	 0.527280710029672 
1740	 0.526166171224767 
1741	 0.525572653219403 
1742	 0.524978223447224 
1743	 0.524414292823878 
1744	 0.52333364294482 
1745	 0.521854649107319 
1746	 0.520466298778756 
1747	 0.518681976261482 
1748	 0.517482719748812 
1749	 0.516871451567222 
1750	 0.515909077877262 
1751	 0.515206354051638 
1752	 0.51417461567453 
1753	 0.512878676106023 
1754	 0.511998810845149 
1755	 0.510754619940003 
1756	 0.509264814366409 
1757	 0.50768937021018 
1758	 0.506225557189227 
1759	 0.505027109517941 
1760	 0.503897874239194 
1761	 0.50293590153441 
1762	 0.50168600157118 
1763	 0.500411871564771 
1764	 0.498984627332893 
1765	 0.496886865550288 
1766	 0.495583479284197 
1767	 0.494669400094337 
1768	 0.493842665884502 
1769	 0.493815071730085 
1770	 0.493131689159907 
1771	 0.491960363083568 
1772	 0.49084690309697 
1773	 0.48940640634207 
1774	 0.487970682319934 
1775	 0.487202447562728 
1776	 0.485962637245147 
1777	 0.484991303815165 
1778	 0.48386793979566 
1779	 0.482170554974891 
1780	 0.48099752965409 
1781	 0.479882295160455 
1782	 0.478828467684682 
1783	 0.47839684468585 
1784	 0.478046867199926 
1785	 0.477558478986288 
1786	 0.476950231174763 
1787	 0.476169004213636 
1788	 0.475591876712326 
1789	 0.474895050587396 
1790	 0.474284579914681 
1791	 0.473455419843539 
1792	 0.471811039846752 
1793	 0.47023205864334 
1794	 0.468128939288551 
1795	 0.466249790613113 
1796	 0.466418782902645 
1797	 0.466428805728905 
1798	 0.466122975847532 
1799	 0.466593166630532 
1800	 0.464749055782252 
1801	 0.446741676778194 
1802	 0.447958299194279 
1803	 0.447672984198377 
1804	 0.446509618946428 
1805	 0.444882367331695 
1806	 0.442826539750469 
1807	 0.440613501382587 
1808	 0.43742809037177 
1809	 0.433290656218795 
1810	 0.430715719544326 
1811	 0.428857472732839 
1812	 0.428181760466958 
1813	 0.431815410127264 
1814	 0.429654549649807 
1815	 0.422615582498645 
1816	 0.419832103497734 
1817	 0.414572911007769 
1818	 0.410721842656253 
1819	 0.409083941980688 
1820	 0.416872595159078 
1821	 0.416985534729247 
1822	 0.411844752360907 
1823	 0.41007689980797 
1824	 0.40961754766503 
1825	 0.406936504687129 
1826	 0.400745115022303 
1827	 0.398036285558634 
1828	 0.3965188986383 
1829	 0.39244098729874 
1830	 0.396747070275129 
1831	 0.419878831008128 
1832	 0.437252902687838 
1833	 0.484044202714507 
1834	 0.499120880903137 
1835	 0.456137607344841 
1836	 0.431644105628655 
1837	 0.363941823008141 
1838	 0.312849981664217 
1839	 0.268358522440194 
1840	 0.228110075899632 
1841	 0.207746146013001 
1842	 0.198065370644318 
1843	 0.218692964642933 
1844	 0.299304992647336 
1845	 0.323049185878796 
1846	 0.345686296688909 
1847	 0.360664175707357 
1848	 0.365018589992057 
1849	 0.332276215456575 
1850	 0.347765420217446 
1851	 0.387940015446899 
1852	 0.406748661739005 
1853	 0.466382257022934 
1854	 0.456112080569259 
1855	 0.396696765047045 
1856	 0.365546761011547 
1857	 0.330714996603838 
1858	 0.263672729750005 
1859	 0.249119377220761 
1860	 0.258671629243634 
1861	 0.255533470066551 
1862	 0.268121379859935 
1863	 0.268990063596568 
1864	 0.269518008016866 
1865	 0.25594274569842 
1866	 0.212796638475 
1867	 0.179576123101375 
1868	 0.164994302674991 
1869	 0.172410214431211 
1870	 0.20667208838284 
1871	 0.343117665560048 
1872	 0.357544896343461 
1873	 0.308722622012105 
1874	 0.290811475130651 
1875	 0.249245717960504 
1876	 0.222387910925237 
1877	 0.182653077374451 
1878	 0.223028702247802 
1879	 0.218080193073635 
1880	 0.186083570164733 
1881	 0.182985548776167 
1882	 0.195538756217238 
1883	 0.185114713444616 
1884	 0.182851352564432 
1885	 0.171209257728889 
1886	 0.143048857196677 
1887	 0.111880411697367 
1888	 0.107196251933781 
1889	 9.09873447491538E-02 
1890	 9.93930738178224E-02 
1891	 0.151459504344003 
1892	 0.156139599490762 
1893	 0.15035718839807 
1894	 0.146464209448006 
1895	 9.64834740983018E-02 
1896	 7.61011339869882E-02 
1897	 8.64708148603257E-02 
1898	 0.077921735822195 
1899	 5.89949126179102E-02 
1900	 8.11976455668628E-02 
1901	 0.106578092800966 
1902	 0.175311089570761 
1903	 0.180048463658092 
1904	 0.1522801512214 
1905	 0.141126745280618 
1906	 7.27592513675201E-02 
1907	 0.042548951608448 
1908	 6.22123984822154E-02 
1909	 4.20220973438582E-02 
1910	 1.69363560126395E-02 
1911	 4.40727100966126E-03 
1912	 5.27523619968604E-03 
1913	 2.17363575016539E-02 
1914	 3.35872369089885E-02 
1915	 4.10308869503332E-02 
1916	 4.41883360647371E-02 
1917	 4.71922707239878E-02 
1918	 5.22367411963052E-02 
1919	 5.60011700797702E-02 
1920	 6.77005250135455E-02 
1921	 6.63790205588865E-02 
1922	 6.49706456006345E-02 
1923	 6.50781805595239E-02 
1924	 5.69548884419562E-02 
1925	 5.73358650151492E-02 
1926	 7.26025152763836E-02 
1927	 6.97064987972964E-02 
1928	 5.63146615388405E-02 
1929	 0.047768191067453 
1930	 4.58340965007589E-02 
1931	 3.95777186855209E-02 
1932	 3.98570961044035E-02 
1933	 4.58909963428763E-02 
1934	 4.40253608235971E-02 
1935	 3.08339390252027E-02 
1936	 3.18022446287571E-02 
1937	 4.17644792392111E-02 
1938	 0.045001052793674 
1939	 0.050825801066839 
1940	 5.37107880416178E-02 
1941	 0.051609258385663 
1942	 3.75868991958503E-02 
1943	 3.22608785916004E-02 
1944	 4.08225530121684E-02 
1945	 4.65808914964433E-02 
1946	 5.07614434004696E-02 
1947	 5.40480966260184E-02 
1948	 5.46376919322051E-02 
1949	 5.44474172022696E-02 
1950	 5.10648598783135E-02 
1951	 5.66082761651965E-02 
1952	 6.00410770738932E-02 
1953	 5.51659039805423E-02 
1954	 5.35762151468809E-02 
1955	 5.15106370431755E-02 
1956	 4.85089675394018E-02 
1957	 5.11434812824357E-02 
1958	 5.06745213754486E-02 
1959	 4.82130480665484E-02 
1960	 4.95131724638817E-02 
1961	 5.18375735411737E-02 
1962	 5.28955195416389E-02 
1963	 5.58640127303439E-02 
1964	 5.62561756909425E-02 
1965	 0.055069309410558 
1966	 5.39059451369265E-02 
1967	 5.25027034364629E-02 
1968	 0.055540727872036 
1969	 5.72457681158542E-02 
1970	 5.82709549621371E-02 
1971	 6.01531935468369E-02 
1972	 6.36677820029632E-02 
1973	 6.45601015209532E-02 
1974	 6.50772443397501E-02 
1975	 6.68000675816334E-02 
1976	 6.79334051869192E-02 
1977	 0.068058196042626 
1978	 6.89186430950128E-02 
1979	 6.99026598913213E-02 
1980	 6.99062930553153E-02 
1981	 7.14720827648086E-02 
1982	 7.24871664436348E-02 
1983	 7.36281874239626E-02 
1984	 0.073971529227649 
1985	 0.075391012728147 
1986	 7.62510137886893E-02 
1987	 0.076414286331871 
1988	 7.65003555860154E-02 
1989	 7.55702455351237E-02 
1990	 7.46552245561075E-02 
1991	 7.51803516468575E-02 
1992	 0.076540223615839 
1993	 7.94386446370145E-02 
1994	 8.27316545355178E-02 
1995	 8.42398475505979E-02 
1996	 8.42013118373624E-02 
1997	 0.084406732069777 
1998	 8.52851786714887E-02 
1999	 8.55949349992216E-02 
2000	 8.76990862700673E-02 
2001	 9.00351451448788E-02 
2002	 9.03967098261038E-02 
2003	 9.12523092224778E-02 
2004	 0.093471118034432 
2005	 9.60477603318273E-02 
2006	 9.82108363289982E-02 
2007	 0.100731810313467 
2008	 0.102022018263502 
2009	 0.102078263392872 
2010	 0.103152719833081 
2011	 0.104250825418597 
2012	 0.103831133242153 
2013	 0.104228172480159 
2014	 0.105581633269566 
2015	 0.107077860771294 
2016	 0.110324906862526 
2017	 0.112583997644955 
2018	 0.11250830371553 
2019	 0.11329617765207 
2020	 0.113996275327532 
2021	 0.11377408721595 
2022	 0.113449358097351 
2023	 0.114300366491408 
2024	 0.114807693691884 
2025	 0.116152775712425 
2026	 0.118802070884134 
2027	 0.121197694155029 
2028	 0.123287586331777 
2029	 0.124778198421485 
2030	 0.125808908513286 
2031	 0.126446192235767 
2032	 0.127087544668124 
2033	 0.127592589400726 
2034	 0.128262582905654 
2035	 0.12840343221547 
2036	 0.129959974628384 
2037	 0.132731414458473 
2038	 0.134537109390692 
2039	 0.136230750439876 
2040	 0.137661727693599 
2041	 0.137724083688677 
2042	 0.137198501736919 
2043	 0.138269537402594 
2044	 0.139468355350194 
2045	 0.14029519061757 
2046	 0.141047441384121 
2047	 0.142803597593121 
2048	 0.143965729958154 
2049	 0.145415910690622 
2050	 0.147108005820969 
2051	 0.148230624351472 
2052	 0.148576529904612 
2053	 0.149186967664278 
2054	 0.151481241621564 
2055	 0.153508428444847 
2056	 0.155383240682548 
2057	 0.157190587163409 
2058	 0.157804661693347 
2059	 0.159052580030748 
2060	 0.160668103632688 
2061	 0.163065447302844 
2062	 0.163520229432654 
2063	 0.163403419520257 
2064	 0.165178643549779 
2065	 0.166504336952931 
2066	 0.167600086182227 
2067	 0.168956170764025 
2068	 0.168140054631048 
2069	 0.168991930826125 
2070	 0.171317040824029 
2071	 0.172415069710659 
2072	 0.174095085927689 
2073	 0.176570115502872 
2074	 0.177658355212348 
2075	 0.17769458550005 
2076	 0.18034054691627 
2077	 0.182763489645712 
2078	 0.183168700035138 
2079	 0.184597291497633 
2080	 0.186125862958373 
2081	 0.187216923829882 
2082	 0.188592030610306 
2083	 0.189135287300208 
2084	 0.189929530897906 
2085	 0.189964804778445 
2086	 0.189701208316286 
2087	 0.190914465883852 
2088	 0.19394768819307 
2089	 0.194693417954559 
2090	 0.194799377158944 
2091	 0.196895446055809 
2092	 0.196278375380812 
2093	 0.196202639400426 
2094	 0.198347334909643 
2095	 0.198373283298176 
2096	 0.199540318577674 
2097	 0.201148398880779 
2098	 0.201843151702222 
2099	 0.204613506297883 
2100	 0.20499258934898 
2101	 0.205353224626594 
2102	 0.206681562085192 
2103	 0.208482675047668 
2104	 0.20917078265473 
2105	 0.212503431541603 
2106	 0.214525292095193 
2107	 0.215236401522814 
2108	 0.216234267935025 
2109	 0.214995526712753 
2110	 0.215070397881766 
2111	 0.215664870183779 
2112	 0.216103080428404 
2113	 0.21838525476195 
2114	 0.219114502071985 
2115	 0.219719706145384 
2116	 0.220780732248186 
2117	 0.221279475474585 
2118	 0.220675448060642 
2119	 0.22125572239406 
2120	 0.222460951412982 
2121	 0.223014436712324 
2122	 0.223870108219526 
2123	 0.224915375657572 
2124	 0.226870472838321 
2125	 0.229001921554327 
2126	 0.229351738050383 
2127	 0.229903355695984 
2128	 0.228628037770292 
2129	 0.227343120502698 
2130	 0.229326627618459 
2131	 0.230007918931238 
2132	 0.230859363269148 
2133	 0.232750514773035 
2134	 0.233826764690784 
2135	 0.233628810062715 
2136	 0.234700897698827 
2137	 0.235603625717238 
2138	 0.235271596673701 
2139	 0.234956310571189 
2140	 0.234473258023279 
2141	 0.234820513687172 
2142	 0.235762614790052 
2143	 0.236586061382064 
2144	 0.238766508852487 
2145	 0.241472119956481 
2146	 0.24320985658213 
2147	 0.244199412066514 
2148	 0.244421006968443 
2149	 0.244693173224469 
2150	 0.244882664692649 
2151	 0.245410102081602 
2152	 0.247280213174659 
2153	 0.247881823666982 
2154	 0.247699980932116 
2155	 0.247571503915072 
2156	 0.247702991426254 
2157	 0.247823857945234 
2158	 0.249200134196823 
2159	 0.250965494977599 
2160	 0.251284423429894 
2161	 0.251600144207521 
2162	 0.252475348418695 
2163	 0.252785173171731 
2164	 0.253185410223132 
2165	 0.253912936349523 
2166	 0.254340443928656 
2167	 0.255657163109244 
2168	 0.257331081371914 
2169	 0.260930768407635 
2170	 0.262676138545666 
2171	 0.264090952474351 
2172	 0.264026526917273 
2173	 0.264022528282877 
2174	 0.264879723638075 
2175	 0.26544270617559 
2176	 0.265120541620436 
2177	 0.264723352181406 
2178	 0.265229335829497 
2179	 0.265379147982077 
2180	 0.266163180942686 
2181	 0.267013682223368 
2182	 0.26641169953463 
2183	 0.266958303386948 
2184	 0.269342975939346 
2185	 0.271199988269777 
2186	 0.272187169245866 
2187	 0.273473729165448 
2188	 0.273833780672001 
2189	 0.274594481968912 
2190	 0.275596571919656 
2191	 0.277925514102107 
2192	 0.277950595579568 
2193	 0.276578363171885 
2194	 0.276371434112786 
2195	 0.276388775776678 
2196	 0.278076295738979 
2197	 0.279330694124382 
2198	 0.278621322251183 
2199	 0.278960667992903 
2200	 0.279270067194494 
2201	 0.279790608412692 
2202	 0.282708590255576 
2203	 0.283485283007416 
2204	 0.282052509738897 
2205	 0.282298433133546 
2206	 0.282443407363818 
2207	 0.281877578100043 
2208	 0.281511804698733 
2209	 0.281091731096115 
2210	 0.280921949298004 
2211	 0.280367956448656 
2212	 0.281473171816175 
2213	 0.281889410222124 
2214	 0.282680892858489 
2215	 0.283420399691075 
2216	 0.28369546206301 
2217	 0.284237424359947 
2218	 0.285118770189637 
2219	 0.286130742942155 
2220	 0.284710320323816 
2221	 0.284822521904919 
2222	 0.285477566110911 
2223	 0.283459344088122 
2224	 0.28263185649817 
2225	 0.281235708160552 
2226	 0.280371055166989 
2227	 0.280790915503146 
2228	 0.280538070306325 
2229	 0.282010518445091 
2230	 0.283580518352064 
2231	 0.284277970478253 
2232	 0.285809343427355 
2233	 0.285828981950563 
2234	 0.28446440711197 
2235	 0.282196349269494 
2236	 0.280911237384764 
2237	 0.280670250726335 
2238	 0.281755314942667 
2239	 0.282480079296037 
2240	 0.281136881474105 
2241	 0.280840715870745 
2242	 0.28100569502173 
2243	 0.280161468036624 
2244	 0.280301474688119 
2245	 0.278852373865961 
2246	 0.276070943660957 
2247	 0.27334143820995 
2248	 0.272048846630045 
2249	 0.271200351464074 
2250	 0.269331490924004 
2251	 0.268618951832925 
2252	 0.268579213615443 
2253	 0.268562324574237 
2254	 0.268278239861758 
2255	 0.268727963710703 
2256	 0.267715935357668 
2257	 0.264896747256857 
2258	 0.262681160585244 
2259	 0.260294831730301 
2260	 0.255964039640745 
2261	 0.25605426095416 
2262	 0.255498714850761 
2263	 0.256758248561245 
2264	 0.260429699871339 
2265	 0.25984384791278 
2266	 0.259954938178728 
2267	 0.258984269797916 
2268	 0.255729353801741 
2269	 0.25364886429158 
2270	 0.251568690511353 
2271	 0.25040463911219 
2272	 0.2505796335431 
2273	 0.251400692349532 
2274	 0.25123600335317 
2275	 0.249363925602996 
2276	 0.249107132416404 
2277	 0.249138674204536 
2278	 0.244855019510852 
2279	 0.240554622954513 
2280	 0.237184947578073 
2281	 0.232965554653848 
2282	 0.235819613217069 
2283	 0.241194546616921 
2284	 0.241719313138051 
2285	 0.241736704464871 
2286	 0.240845747489241 
2287	 0.236785989088308 
2288	 0.231606521978778 
2289	 0.230302720921065 
2290	 0.22994317541585 
2291	 0.229074400332215 
2292	 0.227517998963631 
2293	 0.224369628767347 
2294	 0.221581971924754 
2295	 0.221446912674871 
2296	 0.223913611052771 
2297	 0.226658454084792 
2298	 0.227403012329474 
2299	 0.224544827058653 
2300	 0.219954041261869 
2301	 0.215827023978089 
2302	 0.21385765717076 
2303	 0.212871718715164 
2304	 0.213027385468155 
2305	 0.216531653398636 
2306	 0.21709082835797 
2307	 0.216981290719228 
2308	 0.216663607048471 
2309	 0.212224892484659 
2310	 0.209447923504131 
2311	 0.211336771309748 
2312	 0.212989535398566 
2313	 0.210903842479454 
2314	 0.210292122207091 
2315	 0.208586747439603 
2316	 0.202842118287885 
2317	 0.200755494769567 
2318	 0.198879074942368 
2319	 0.196191834279427 
2320	 0.199881143588156 
2321	 0.202138115418408 
2322	 0.20720978170491 
2323	 0.208265602942473 
2324	 0.208707943712399 
2325	 0.20394917358759 
2326	 0.199701228067342 
2327	 0.19812984359764 
2328	 0.196399757064285 
2329	 0.195229564241093 
2330	 0.193743613464947 
2331	 0.191161902023846 
2332	 0.19176993994197 
2333	 0.190693157131027 
2334	 0.188786240909694 
2335	 0.189432735181108 
2336	 0.186419826946447 
2337	 0.183601305400227 
2338	 0.181932471475301 
2339	 0.179540714261252 
2340	 0.177104728686891 
2341	 0.170654449036299 
2342	 0.165831536934843 
2343	 0.162977659020051 
2344	 0.157701634847551 
2345	 0.159198056949896 
2346	 0.165761428051425 
2347	 0.167203268672406 
2348	 0.16785257131988 
2349	 0.17227012006651 
2350	 0.174051401768536 
2351	 0.175005516851129 
2352	 0.178036351365471 
2353	 0.179199047643269 
2354	 0.173534648095103 
2355	 0.165833886699137 
2356	 0.167100367992875 
2357	 0.165870262423214 
2358	 0.165892716073379 
2359	 0.172644078435061 
2360	 0.167295662388096 
2361	 0.163807870510035 
2362	 0.167383983874692 
2363	 0.162892186375686 
2364	 0.160887054641864 
2365	 0.162543691731975 
2366	 0.157253323209747 
2367	 0.151166233810506 
2368	 0.155416481658629 
2369	 0.156316549148299 
2370	 0.156021380128646 
2371	 0.165058339106964 
2372	 0.165693651758632 
2373	 0.157027358561854 
2374	 0.153440443593812 
2375	 0.146463776430966 
2376	 0.146018205804311 
2377	 0.152440325232325 
2378	 0.154713864858067 
2379	 0.163269367636012 
2380	 0.159764833270631 
2381	 0.14341696023845 
2382	 0.136696043359972 
2383	 0.12934724004693 
2384	 0.122852568540967 
2385	 0.117304139826728 
2386	 0.116007795033048 
2387	 0.117732925713146 
2388	 0.1167361930485 
2389	 0.122249791349295 
2390	 0.126183665665811 
2391	 0.123687074762182 
2392	 0.124745315268158 
2393	 0.133298044432033 
2394	 0.133289877128021 
2395	 0.129550707666666 
2396	 0.127343198848347 
2397	 0.114846637991379 
2398	 0.107500944646589 
2399	 0.104522171844694 
2400	 0.101006147922788 
2401	 9.47098992472721E-02 
2402	 0.103608230252763 
2403	 0.111942949136479 
2404	 0.119422181083153 
2405	 0.130212888404211 
2406	 0.13592883926054 
2407	 0.128435609274866 
2408	 0.118442635014424 
2409	 0.106647518250687 
2410	 0.103552402859 
2411	 0.114838652915831 
2412	 0.126643547610251 
2413	 0.127290596407696 
2414	 0.114992567837093 
2415	 0.107967703183571 
2416	 0.100174662764095 
2417	 0.100871337336092 
2418	 0.110080633715254 
2419	 0.107183715982456 
2420	 0.100179787691371 
2421	 9.27188886433189E-02 
2422	 0.103134424155041 
2423	 0.127843898435968 
2424	 0.13282105728576 
2425	 0.130665129880057 
2426	 0.114195214244535 
2427	 0.085493052681486 
2428	 8.24575560195048E-02 
2429	 0.080800694524422 
2430	 7.61316995193334E-02 
2431	 7.71860729527954E-02 
2432	 6.14627649630158E-02 
2433	 0.06346934282048 
2434	 6.76149387879167E-02 
2435	 7.32200415083096E-02 
2436	 8.41358453032659E-02 
2437	 0.109651854432826 
2438	 0.114862421985577 
2439	 0.101411449719703 
2440	 0.104997766776646 
2441	 0.109877551316597 
2442	 0.111529156085772 
2443	 0.132972462483025 
2444	 0.138145640248367 
2445	 0.121843483858797 
2446	 0.107179870878787 
2447	 8.88783819895674E-02 
2448	 6.44603546149975E-02 
2449	 1.99543470107332E-02 
2450	 3.52829119121741E-03 
2451	 3.95098450033869E-04 
2452	 1.00261943924355E-02 
2453	 5.77058490983023E-02 
2454	 6.62280329794432E-02 
2455	 6.83641103148499E-02 
2456	 0.054713937105895 
2457	-2.46246806419836E-03 
2458	-1.31860865393915E-02 
2459	-6.50563096481697E-03 
2460	 1.22435316066201E-03 
2461	 3.18366546350693E-02 
2462	 5.44165427589809E-02 
2463	 8.49507931843837E-02 
2464	 8.94935052629529E-02 
2465	 7.17294430561374E-02 
2466	 6.87664437902012E-02 
2467	 5.41946707657461E-02 
2468	 5.02476847247962E-02 
2469	 0.092330735932975 
2470	 8.05973265424242E-02 
2471	 7.79306653635179E-03 
2472	-2.87308427411254E-02 
2473	-0.09090535771371 
2474	-9.76921840774396E-02 
2475	-3.23843239012188E-02 
2476	-2.22515940521027E-02 
2477	-1.58053194175832E-02 
2478	 1.87450897365587E-02 
2479	 4.51178260804693E-02 
2480	 0.080455695910975 
2481	 0.143910953142674 
2482	 0.188950328678665 
2483	 0.241345129800027 
2484	 0.259757338264231 
2485	 0.217141357356785 
2486	 0.239811487758923 
2487	 0.283720666922623 
2488	 0.362047103526121 
2489	 0.581134782839147 
2490	 0.581241387148906 
2491	 0.453407185380433 
2492	 0.41054080769991 
2493	 0.23306491535543 
2494	 9.23827935242058E-02 
2495	 0.115423956779808 
2496	 7.07466813253664E-03 
2497	-0.234637391496115 
2498	-0.248016428520372 
2499	-0.124693228068709 
2500	-6.93483468207927E-02 
