Wavelength	ref00100.asd
350	 1.50439253061541E-02 
351	 1.52669834008241E-02 
352	 1.47165357522081E-02 
353	 1.47380668515053E-02 
354	 1.45845503205626E-02 
355	 1.43337884616069E-02 
356	 1.42356327375423E-02 
357	 1.46656781069777E-02 
358	 1.45666120822889E-02 
359	 1.45028427599695E-02 
360	 1.50864817852064E-02 
361	 1.48388724074135E-02 
362	 1.48567836210734E-02 
363	 1.50954823606016E-02 
364	 1.47958662048112E-02 
365	 1.45762616308602E-02 
366	 1.43931936219246E-02 
367	 1.41955677729436E-02 
368	 1.40330347730121E-02 
369	 1.39062643230543E-02 
370	 1.40149081911835E-02 
371	 1.43438386681613E-02 
372	 1.40824725895566E-02 
373	 1.39961744799825E-02 
374	 1.41098974122568E-02 
375	 1.40664745981646E-02 
376	 1.37864486707359E-02 
377	 1.38378132030689E-02 
378	 1.42354356236813E-02 
379	 1.42855584030882E-02 
380	 1.39579176736081E-02 
381	 1.38344525045374E-02 
382	 1.42252946782506E-02 
383	 1.43937583757775E-02 
384	 1.42350753096532E-02 
385	 1.39815708840957E-02 
386	 1.39862975304002E-02 
387	 1.41287859126921E-02 
388	 1.43787217713958E-02 
389	 1.45536154347299E-02 
390	 0.014353612556174 
391	 1.42688501288396E-02 
392	 1.43711927229299E-02 
393	 1.45174225905591E-02 
394	 1.42218038168729E-02 
395	 0.014418090317407 
396	 0.014809981302911 
397	 1.48111112057983E-02 
398	 1.48290228885278E-02 
399	 1.46280439323643E-02 
400	 1.44593523640256E-02 
401	 1.48959942067221E-02 
402	 1.49349877801351E-02 
403	 1.48170384293358E-02 
404	 0.014818057372589 
405	 1.49095161317291E-02 
406	 1.48226506960816E-02 
407	 1.48577586748823E-02 
408	 1.53098150019661E-02 
409	 0.015408967285233 
410	 1.53199367782426E-02 
411	 1.52829048240663E-02 
412	 1.55234469830704E-02 
413	 1.57064738984402E-02 
414	 1.58143426189359E-02 
415	 1.59191067333168E-02 
416	 0.016175292376939 
417	 0.016316185283034 
418	 1.63432342646489E-02 
419	 1.63625715681492E-02 
420	 1.64574480163085E-02 
421	 1.66405562946232E-02 
422	 1.68103259237229E-02 
423	 1.68004823679095E-02 
424	 1.69866907036039E-02 
425	 1.71846166078193E-02 
426	 1.72312584269249E-02 
427	 1.71990271256833E-02 
428	 1.73094463648578E-02 
429	 1.73821734794671E-02 
430	 1.72525695709955E-02 
431	 1.76599992074227E-02 
432	 1.78389785144746E-02 
433	 1.77071934648412E-02 
434	 1.78135345157856E-02 
435	 1.79456203468008E-02 
436	 1.79610462606999E-02 
437	 0.017897632597695 
438	 1.81791933376573E-02 
439	 1.82101215389433E-02 
440	 1.81470424347734E-02 
441	 1.83220619685462E-02 
442	 1.84650892541353E-02 
443	 1.85008188660287E-02 
444	 1.85187955750091E-02 
445	 1.87326222558275E-02 
446	 1.88638578297354E-02 
447	 1.89203852081274E-02 
448	 1.89679337674813E-02 
449	 1.90829612179627E-02 
450	 1.91185413317961E-02 
451	 1.91578396019198E-02 
452	 1.93362101966478E-02 
453	 1.94456232566428E-02 
454	 1.94869059281342E-02 
455	 1.95396239384403E-02 
456	 1.97479588764518E-02 
457	 1.98472400060598E-02 
458	 1.98571608131924E-02 
459	 1.98642225411322E-02 
460	 0.0199399937455 
461	 1.99939220925442E-02 
462	 2.00287726669948E-02 
463	 2.00968916464852E-02 
464	 2.02044474023793E-02 
465	 2.02421660699388E-02 
466	 2.02333697796793E-02 
467	 2.04175086020422E-02 
468	 2.04517453865995E-02 
469	 2.03943698882256E-02 
470	 2.04055811254508E-02 
471	 2.05649681876485E-02 
472	 2.06930365442931E-02 
473	 2.07520661954299E-02 
474	 2.08109605398781E-02 
475	 2.08599562238942E-02 
476	 2.09145638279882E-02 
477	 2.09802178396268E-02 
478	 2.10378227760841E-02 
479	 2.11268531038007E-02 
480	 2.12027272566571E-02 
481	 2.12309140071144E-02 
482	 0.021382917094882 
483	 2.15041628275027E-02 
484	 2.15558925866591E-02 
485	 2.16295110916233E-02 
486	 2.17588732932856E-02 
487	 2.18708653679391E-02 
488	 2.19403383910463E-02 
489	 2.21285472178612E-02 
490	 2.23262340588644E-02 
491	 2.25001166946739E-02 
492	 2.26602838481207E-02 
493	 0.02285035748302 
494	 2.31132144260888E-02 
495	 2.34473276478104E-02 
496	 2.37983974207247E-02 
497	 2.41558160495722E-02 
498	 2.45294861173138E-02 
499	 2.49486061119607E-02 
500	 2.54779040240357E-02 
501	 2.60865153490734E-02 
502	 2.67267597872641E-02 
503	 2.73564744924844E-02 
504	 0.028072387180398 
505	 0.028852596115877 
506	 2.96886182870526E-02 
507	 3.06161007463931E-02 
508	 3.16720998750345E-02 
509	 3.28241603499441E-02 
510	 0.034052326859556 
511	 3.55142188410238E-02 
512	 3.70106434074062E-02 
513	 3.85141448360701E-02 
514	 4.01601094943599E-02 
515	 4.19997830326607E-02 
516	 4.39795681458622E-02 
517	 4.60554345967138E-02 
518	 4.82960211887668E-02 
519	 5.05732778534641E-02 
520	 5.28256632646514E-02 
521	 0.055054263689961 
522	 5.73637493106729E-02 
523	 5.96942704304709E-02 
524	 0.062036364641561 
525	 0.064417971870317 
526	 6.67168755632864E-02 
527	 6.89894629441715E-02 
528	 7.12839983395771E-02 
529	 7.34876749367411E-02 
530	 7.55325513103108E-02 
531	 7.74572429903019E-02 
532	 7.93617343640654E-02 
533	 0.081202333301582 
534	 8.29429291899852E-02 
535	 0.084550564365476 
536	 8.60051615455269E-02 
537	 8.74854468049155E-02 
538	 8.88878970628985E-02 
539	 9.00931347598808E-02 
540	 0.091354250281022 
541	 9.25623214052382E-02 
542	 9.36922885612431E-02 
543	 9.48015187578984E-02 
544	 9.59564172769861E-02 
545	 9.69892218350219E-02 
546	 9.78434654072042E-02 
547	 9.87929964784535E-02 
548	 9.97276188024197E-02 
549	 0.10060154915366 
550	 0.101372057892427 
551	 0.101885603495878 
552	 0.102314002323114 
553	 0.102694528179117 
554	 0.102874413696327 
555	 0.102960444567542 
556	 0.102947523453921 
557	 0.102798518022697 
558	 0.102463591589073 
559	 0.102002696220842 
560	 0.101424992964051 
561	 0.100710958722 
562	 9.99269736749173E-02 
563	 9.90686671080598E-02 
564	 9.81341361584269E-02 
565	 9.71522543288153E-02 
566	 9.61509644008836E-02 
567	 9.50665137402594E-02 
568	 0.093825467636057 
569	 9.24651677993256E-02 
570	 9.10336601463386E-02 
571	 8.95777334379206E-02 
572	 8.81377521545159E-02 
573	 0.086792096627257 
574	 8.55109939067274E-02 
575	 8.42661582941064E-02 
576	 8.31312802927674E-02 
577	 8.20122998997234E-02 
578	 8.10109909060785E-02 
579	 8.02631368867881E-02 
580	 7.94749093086018E-02 
581	 7.86638401037683E-02 
582	 7.78422650289718E-02 
583	 7.69708515916262E-02 
584	 7.62406315199836E-02 
585	 7.56273348126286E-02 
586	 7.50550405775462E-02 
587	 7.44886467444013E-02 
588	 7.39823008167411E-02 
589	 7.34815030765835E-02 
590	 7.28832780817018E-02 
591	 7.24024386359084E-02 
592	 7.19953143857825E-02 
593	 7.15975236466512E-02 
594	 7.12090040314619E-02 
595	 7.08207003149883E-02 
596	 7.04448066879423E-02 
597	 7.00960492109134E-02 
598	 6.97587349791236E-02 
599	 6.95442715065687E-02 
600	 6.93783849030005E-02 
601	 6.90131649720044E-02 
602	 6.87049701393258E-02 
603	 6.83716801990518E-02 
604	 0.067933960299203 
605	 6.75023204575614E-02 
606	 6.69625332284324E-02 
607	 6.63160341923108E-02 
608	 6.56300561833042E-02 
609	 0.064963121333969 
610	 6.42730964883162E-02 
611	 6.35459047476594E-02 
612	 6.28168390432467E-02 
613	 6.20539010139928E-02 
614	 6.12373195484391E-02 
615	 6.03985147053757E-02 
616	 5.97220114787322E-02 
617	 0.059069519231626 
618	 5.84228888767383E-02 
619	 5.78443203616787E-02 
620	 0.057378684823467 
621	 5.69821927510994E-02 
622	 5.66177816535562E-02 
623	 5.62845543044559E-02 
624	 5.59895495603959E-02 
625	 5.57909628139355E-02 
626	 5.57160109592149E-02 
627	 5.55490783611559E-02 
628	 5.54600046923641E-02 
629	 5.54439872483102E-02 
630	 5.53205585783661E-02 
631	 5.52423312260733E-02 
632	 5.50821701034328E-02 
633	 0.054761881811948 
634	 5.44662038619444E-02 
635	 5.40395865293642E-02 
636	 5.34489207283552E-02 
637	 5.27323339517491E-02 
638	 0.051972752924475 
639	 5.11120551214665E-02 
640	 5.01490757636036E-02 
641	 4.91955735957484E-02 
642	 4.81693468344114E-02 
643	 4.71255235865477E-02 
644	 4.61264394177818E-02 
645	 4.51944237517377E-02 
646	 4.42074538702239E-02 
647	 4.32383300817182E-02 
648	 4.24556679434929E-02 
649	 0.041683267426922 
650	 4.10668160400453E-02 
651	 4.06355784297919E-02 
652	 4.01464120762877E-02 
653	 3.98339470203096E-02 
654	 3.95981652466639E-02 
655	 3.92607888900494E-02 
656	 0.038799295139629 
657	 3.82471140839435E-02 
658	 3.76563986074921E-02 
659	 3.69889792427386E-02 
660	 3.62732602912037E-02 
661	 3.54850170241133E-02 
662	 3.46583625805176E-02 
663	 0.03389600325778 
664	 3.31812896295306E-02 
665	 3.25008487240306E-02 
666	 3.18434124851496E-02 
667	 0.031243232945786 
668	 3.07933300719118E-02 
669	 3.04383896765056E-02 
670	 3.00007761588182E-02 
671	 0.029768365257387 
672	 2.97108267347241E-02 
673	 2.97006274080301E-02 
674	 2.95050978110951E-02 
675	 2.94747562292314E-02 
676	 2.95677171386904E-02 
677	 2.96247219037299E-02 
678	 2.97817613304156E-02 
679	 3.00390549242556E-02 
680	 3.04109040751709E-02 
681	 3.09310404125331E-02 
682	 3.15740526027651E-02 
683	 3.24131944957768E-02 
684	 0.033513374318396 
685	 0.034846476697274 
686	 3.66082534265428E-02 
687	 0.038976818743758 
688	 4.18569896000031E-02 
689	 4.50067208293689E-02 
690	 4.86090486869924E-02 
691	 5.28767506519936E-02 
692	 5.77306637262164E-02 
693	 0.063347321378454 
694	 6.97046392178583E-02 
695	 7.66186072815238E-02 
696	 8.37615304515401E-02 
697	 9.11686929775152E-02 
698	 9.90051678473571E-02 
699	 0.107348952229723 
700	 0.115622487275172 
701	 0.124083457274546 
702	 0.132735858648113 
703	 0.141161769686975 
704	 0.149337568064509 
705	 0.157426550270004 
706	 0.165604086620102 
707	 0.17372316066533 
708	 0.181595284926439 
709	 0.189396823660757 
710	 0.197358045221407 
711	 0.205098099748774 
712	 0.212911589332326 
713	 0.220821016728851 
714	 0.22848564594406 
715	 0.23632981199356 
716	 0.244287877841417 
717	 0.252439891170667 
718	 0.260863754657365 
719	 0.269171559395372 
720	 0.276959017276957 
721	 0.284160204282098 
722	 0.291087794070601 
723	 0.29813364061442 
724	 0.305640689960116 
725	 0.313023339401935 
726	 0.319892517532252 
727	 0.326312769979958 
728	 0.332586068682687 
729	 0.338734321013461 
730	 0.344630842856195 
731	 0.350117086888834 
732	 0.355119782076658 
733	 0.359730958863736 
734	 0.36419640238169 
735	 0.368624007155924 
736	 0.372875115507439 
737	 0.376897799351785 
738	 0.380659323403037 
739	 0.38421570323007 
740	 0.387638626327581 
741	 0.39066188967291 
742	 0.39338744772773 
743	 0.396012783336781 
744	 0.39862779810847 
745	 0.400962033035613 
746	 0.402955675484608 
747	 0.404728630968219 
748	 0.406414241186868 
749	 0.408098409947711 
750	 0.409728247143399 
751	 0.41104495808199 
752	 0.412326427579603 
753	 0.413488691936261 
754	 0.414437559990714 
755	 0.415405893554649 
756	 0.416249084808317 
757	 0.416993759210597 
758	 0.417792080968384 
759	 0.418804436260302 
760	 0.420075939425849 
761	 0.421335322843913 
762	 0.421685141752019 
763	 0.421831316568576 
764	 0.421866142683471 
765	 0.421835333484891 
766	 0.422135744333358 
767	 0.422222226736149 
768	 0.422246750809259 
769	 0.422469306853917 
770	 0.422699281815945 
771	 0.422967922181823 
772	 0.423251259338588 
773	 0.423482070272105 
774	 0.423722382080171 
775	 0.423961793538026 
776	 0.424187035482523 
777	 0.424402340206695 
778	 0.424556290740229 
779	 0.424708220709323 
780	 0.424916306699427 
781	 0.425121281662762 
782	 0.425366582085203 
783	 0.425625744121296 
784	 0.425840942011088 
785	 0.426015262761852 
786	 0.426189219520188 
787	 0.426452965768699 
788	 0.426914581984294 
789	 0.427109141344779 
790	 0.427238018924534 
791	 0.427505866426532 
792	 0.427860169267967 
793	 0.427936251804628 
794	 0.428004284472959 
795	 0.428366048572522 
796	 0.428558175849775 
797	 0.42871365088161 
798	 0.428903169042326 
799	 0.429151811082325 
800	 0.429494601539031 
801	 0.429690456723474 
802	 0.429762186483997 
803	 0.430040900688774 
804	 0.430259546719354 
805	 0.430380945654968 
806	 0.430442745088895 
807	 0.430533752028915 
808	 0.430714826087427 
809	 0.431005400717244 
810	 0.431392262302924 
811	 0.431840707402454 
812	 0.432221327720797 
813	 0.432691420528712 
814	 0.433474484643944 
815	 0.433959226255123 
816	 0.434251087667553 
817	 0.434471920335096 
818	 0.434670572349355 
819	 0.43463819141193 
820	 0.434531825185365 
821	 0.434533520583166 
822	 0.434760382612039 
823	 0.43502510830668 
824	 0.435213726053426 
825	 0.435248257728734 
826	 0.435053534908178 
827	 0.435141280839727 
828	 0.435359602798416 
829	 0.435334163931169 
830	 0.435211413837334 
831	 0.43529708703074 
832	 0.435513399866731 
833	 0.435521932750724 
834	 0.43543808086711 
835	 0.435395706467675 
836	 0.43547134755977 
837	 0.435653223176022 
838	 0.435662394377037 
839	 0.435698782924404 
840	 0.435874592668315 
841	 0.435934107768192 
842	 0.436099347759476 
843	 0.436334284219016 
844	 0.436533075123464 
845	 0.436620845468456 
846	 0.436766257917899 
847	 0.436969365863267 
848	 0.437160381100224 
849	 0.437370992360079 
850	 0.437523154105291 
851	 0.437659653082178 
852	 0.437888193310867 
853	 0.438004735209615 
854	 0.438276770606664 
855	 0.438580885653677 
856	 0.438390637863775 
857	 0.438586536168613 
858	 0.43894616535043 
859	 0.439184806907323 
860	 0.439215555415747 
861	 0.439333336061385 
862	 0.439412482601028 
863	 0.439375456762075 
864	 0.439548378664619 
865	 0.439695765077268 
866	 0.439927818397478 
867	 0.440285182797609 
868	 0.44007912877528 
869	 0.440169472923219 
870	 0.440466241252334 
871	 0.440524895078454 
872	 0.440688738410975 
873	 0.440857930431573 
874	 0.441014710465829 
875	 0.441189505202876 
876	 0.441222470851511 
877	 0.441160349651275 
878	 0.44116208770448 
879	 0.441414995486902 
880	 0.441429844831415 
881	 0.441605463747442 
882	 0.441935945563977 
883	 0.441746781870048 
884	 0.441645437222533 
885	 0.441831905975204 
886	 0.442162957548049 
887	 0.442056798723258 
888	 0.44229449618548 
889	 0.442463870597701 
890	 0.442291397891797 
891	 0.442640082885127 
892	 0.442880067820985 
893	 0.443061480860757 
894	 0.443413639610369 
895	 0.444009268251156 
896	 0.444399304877241 
897	 0.444475579033738 
898	 0.444450052578608 
899	 0.445079068114533 
900	 0.445408781946045 
901	 0.445327697024776 
902	 0.445234047482549 
903	 0.445321025131803 
904	 0.445132629794492 
905	 0.444833391432659 
906	 0.44492002911466 
907	 0.445182479146553 
908	 0.44560453559914 
909	 0.445954302583558 
910	 0.445899580451172 
911	 0.445831251070972 
912	 0.445759783865921 
913	 0.445847791175095 
914	 0.446314024118771 
915	 0.446221278265686 
916	 0.446016740966647 
917	 0.445880965233715 
918	 0.445534009832041 
919	 0.445592373057341 
920	 0.445279548656846 
921	 0.444665927503845 
922	 0.444992325299936 
923	 0.444495481052975 
924	 0.444125296663957 
925	 0.444316003886417 
926	 0.443992039950044 
927	 0.444085926124843 
928	 0.444659710090481 
929	 0.44538274124857 
930	 0.445580887645133 
931	 0.446338295867312 
932	 0.447238386513185 
933	 0.447533304804985 
934	 0.446892934435704 
935	 0.446047564683556 
936	 0.446409428081338 
937	 0.447357305555445 
938	 0.444693003216363 
939	 0.442828936217934 
940	 0.442178754202844 
941	 0.441865994391147 
942	 0.440518711136119 
943	 0.440306867333671 
944	 0.440167435671138 
945	 0.438933699537146 
946	 0.43708892613599 
947	 0.435329453294004 
948	 0.434245601334088 
949	 0.433676846459749 
950	 0.432225158706471 
951	 0.431129278342639 
952	 0.430064543054419 
953	 0.428489038974716 
954	 0.426232168255841 
955	 0.425542262150832 
956	 0.424961981746809 
957	 0.423340875843012 
958	 0.422054487049355 
959	 0.419873792100586 
960	 0.418571121510226 
961	 0.418736348347088 
962	 0.417726844827661 
963	 0.416904681190497 
964	 0.416280333639214 
965	 0.415708611996183 
966	 0.415240149196816 
967	 0.4140371307413 
968	 0.413686005815062 
969	 0.414306130195216 
970	 0.413194048980439 
971	 0.411689638330575 
972	 0.411983029977052 
973	 0.413545102495612 
974	 0.41219592286051 
975	 0.411761161594682 
976	 0.4121419917526 
977	 0.412544650854587 
978	 0.412331085775785 
979	 0.411616702815792 
980	 0.411546691582779 
981	 0.411983262269536 
982	 0.411543595290982 
983	 0.412399890898502 
984	 0.412311518121163 
985	 0.411445720994122 
986	 0.41226429975762 
987	 0.413083858625814 
988	 0.413300858386073 
989	 0.413443575498922 
990	 0.41444320545698 
991	 0.414665300394879 
992	 0.413977133663363 
993	 0.413523388233497 
994	 0.414467549536628 
995	 0.414383102826178 
996	 0.41489917906406 
997	 0.416176107587522 
998	 0.417378289323561 
999	 0.417310963489711 
1000	 0.418326170150982 
1001	 0.422308347083352 
1002	 0.422689655557573 
1003	 0.423240063063077 
1004	 0.4238439163374 
1005	 0.424479834531007 
1006	 0.425282038439624 
1007	 0.425963420541464 
1008	 0.426676693991922 
1009	 0.427276385351133 
1010	 0.427777187378265 
1011	 0.428212160647017 
1012	 0.428757753947215 
1013	 0.429192815197671 
1014	 0.429722026928988 
1015	 0.43037578498152 
1016	 0.430943908824986 
1017	 0.431526123400964 
1018	 0.432155397256107 
1019	 0.432845326292564 
1020	 0.433492188174079 
1021	 0.434182079238515 
1022	 0.434807130927581 
1023	 0.435389552417536 
1024	 0.435924109534138 
1025	 0.436587845692574 
1026	 0.437288162853944 
1027	 0.437843724667305 
1028	 0.438406181311998 
1029	 0.438925612877974 
1030	 0.439262408755257 
1031	 0.439817645317496 
1032	 0.440540074876924 
1033	 0.441119398014944 
1034	 0.441714248466995 
1035	 0.442225425876878 
1036	 0.442561625814769 
1037	 0.443011364909084 
1038	 0.443441819242891 
1039	 0.443986101238583 
1040	 0.444551994128885 
1041	 0.445001486239089 
1042	 0.445472614561246 
1043	 0.44581843095333 
1044	 0.446198404256884 
1045	 0.446712627986491 
1046	 0.447135655052496 
1047	 0.447619162408929 
1048	 0.447963515665005 
1049	 0.448149364430559 
1050	 0.448380306378234 
1051	 0.448562054979986 
1052	 0.448716613076285 
1053	 0.448968925772971 
1054	 0.449254246283308 
1055	 0.44944375494917 
1056	 0.449657320458468 
1057	 0.449895276756337 
1058	 0.450074751077369 
1059	 0.450287604635751 
1060	 0.450451686641604 
1061	 0.45048677439403 
1062	 0.450641569957449 
1063	 0.450860869453017 
1064	 0.450964998048393 
1065	 0.451096790194226 
1066	 0.451266748506283 
1067	 0.451316348499757 
1068	 0.451324878238864 
1069	 0.451497632175696 
1070	 0.451627529620135 
1071	 0.451740067169206 
1072	 0.451889539373495 
1073	 0.451924500101179 
1074	 0.451890589038743 
1075	 0.451922426317983 
1076	 0.451948684256405 
1077	 0.451980393456551 
1078	 0.45204490736953 
1079	 0.452048762690829 
1080	 0.451968110033216 
1081	 0.451927861686862 
1082	 0.451869359949797 
1083	 0.451860500255453 
1084	 0.451855528547956 
1085	 0.451872270298468 
1086	 0.451917870101721 
1087	 0.451847368278486 
1088	 0.451744581742242 
1089	 0.451822093245385 
1090	 0.451852667402093 
1091	 0.451837166416379 
1092	 0.451874473639159 
1093	 0.451796772793926 
1094	 0.45166775773333 
1095	 0.45155758332089 
1096	 0.451468942823904 
1097	 0.451398419439816 
1098	 0.451317594897703 
1099	 0.451220778254577 
1100	 0.451185128609373 
1101	 0.451184667012896 
1102	 0.45111491908674 
1103	 0.451137810089785 
1104	 0.451199723096645 
1105	 0.451203397927462 
1106	 0.451210169229967 
1107	 0.45123931679116 
1108	 0.451293004378306 
1109	 0.451445255932684 
1110	 0.451696567606421 
1111	 0.451927295784355 
1112	 0.452196862998581 
1113	 0.452533141089738 
1114	 0.452958648436758 
1115	 0.453306968125352 
1116	 0.453737436608387 
1117	 0.454143082630703 
1118	 0.454257712631526 
1119	 0.454429461262476 
1120	 0.454474320423231 
1121	 0.454320058296329 
1122	 0.454117719420108 
1123	 0.453530834716657 
1124	 0.452853131488583 
1125	 0.452145056455719 
1126	 0.450911439602582 
1127	 0.449358829302322 
1128	 0.447676099614383 
1129	 0.445710353106768 
1130	 0.443667264730106 
1131	 0.441747205296008 
1132	 0.43948149664654 
1133	 0.437063169614021 
1134	 0.434295352196046 
1135	 0.431588331833221 
1136	 0.429061322776586 
1137	 0.426483458496792 
1138	 0.424026242775052 
1139	 0.42163355762095 
1140	 0.418939355998076 
1141	 0.416271520774052 
1142	 0.413774558595023 
1143	 0.411161423576229 
1144	 0.408527199012926 
1145	 0.405723480938514 
1146	 0.402876686891672 
1147	 0.399963033727031 
1148	 0.396937287959713 
1149	 0.394050867003337 
1150	 0.391179028597152 
1151	 0.388556145802501 
1152	 0.386110159941471 
1153	 0.38392772673557 
1154	 0.381960361353437 
1155	 0.380243696437995 
1156	 0.378696594617841 
1157	 0.377300496223463 
1158	 0.376081139223536 
1159	 0.374965457085168 
1160	 0.373881680654874 
1161	 0.372824975427723 
1162	 0.371904741116094 
1163	 0.37097411854011 
1164	 0.370246630636496 
1165	 0.369675750185992 
1166	 0.36911569043395 
1167	 0.368674915658717 
1168	 0.368219812893692 
1169	 0.36778018112834 
1170	 0.367336857328194 
1171	 0.366893639274588 
1172	 0.366579565305756 
1173	 0.366352618888762 
1174	 0.366090593259642 
1175	 0.365883836980031 
1176	 0.365706233513143 
1177	 0.365498429228075 
1178	 0.365277936278193 
1179	 0.365045069778879 
1180	 0.364811953732008 
1181	 0.36454518439587 
1182	 0.364255848535649 
1183	 0.363945807272256 
1184	 0.363577738435811 
1185	 0.363273948985353 
1186	 0.362969817116417 
1187	 0.362705936624336 
1188	 0.362526838543679 
1189	 0.362290780252396 
1190	 0.362042779138072 
1191	 0.361811070976558 
1192	 0.361624881924733 
1193	 0.361541504780966 
1194	 0.361470883735438 
1195	 0.361503635292588 
1196	 0.361469312870747 
1197	 0.361379994635929 
1198	 0.361402431728293 
1199	 0.361472213095239 
1200	 0.361551311040029 
1201	 0.361703381603945 
1202	 0.361855197181955 
1203	 0.362030455935056 
1204	 0.362175452436553 
1205	 0.362268305381726 
1206	 0.362464566566502 
1207	 0.36268268199541 
1208	 0.362934810367942 
1209	 0.363266648262401 
1210	 0.363646207548474 
1211	 0.364025253299964 
1212	 0.364280207527107 
1213	 0.364585654244259 
1214	 0.364868384060723 
1215	 0.365249493992341 
1216	 0.365670169491192 
1217	 0.366076591373286 
1218	 0.366558350519126 
1219	 0.366977206600136 
1220	 0.367346437093118 
1221	 0.367744127569382 
1222	 0.368153498595382 
1223	 0.368561801873169 
1224	 0.368958164634144 
1225	 0.369364113965063 
1226	 0.369788150303582 
1227	 0.370210022360229 
1228	 0.370649490021168 
1229	 0.37108329617988 
1230	 0.371397603084904 
1231	 0.371700292482924 
1232	 0.372043814463295 
1233	 0.372309039608347 
1234	 0.372694605288931 
1235	 0.373217768524187 
1236	 0.373615495981466 
1237	 0.373993949701383 
1238	 0.374367430600859 
1239	 0.374660160556438 
1240	 0.37504887589392 
1241	 0.375506964119056 
1242	 0.375923212066376 
1243	 0.376427014043683 
1244	 0.376799812781697 
1245	 0.377035943962443 
1246	 0.377347631898838 
1247	 0.377618763420416 
1248	 0.377919781204449 
1249	 0.378321480414778 
1250	 0.378655119812395 
1251	 0.378940602219324 
1252	 0.379233660162201 
1253	 0.379501982282635 
1254	 0.379725247465567 
1255	 0.379999063482007 
1256	 0.380301292186461 
1257	 0.380550672850697 
1258	 0.38082612416433 
1259	 0.381031796052174 
1260	 0.381159431576484 
1261	 0.381314840142836 
1262	 0.381473103969318 
1263	 0.381572131491863 
1264	 0.381608993257239 
1265	 0.381691929926247 
1266	 0.381783978914055 
1267	 0.381820264143716 
1268	 0.381881903407564 
1269	 0.381884039008759 
1270	 0.381784050919562 
1271	 0.38169700313112 
1272	 0.381663259316067 
1273	 0.381531645483641 
1274	 0.381311197555484 
1275	 0.380991021814689 
1276	 0.380759114636683 
1277	 0.380468351226576 
1278	 0.380211329141945 
1279	 0.380087417715916 
1280	 0.379760324597876 
1281	 0.37926401871157 
1282	 0.378890397645374 
1283	 0.378503746981302 
1284	 0.378104508560752 
1285	 0.377755652707988 
1286	 0.377377397890345 
1287	 0.377027042424095 
1288	 0.376532152674969 
1289	 0.375982490787055 
1290	 0.375401333704109 
1291	 0.374625784091868 
1292	 0.373946989591505 
1293	 0.373373488721468 
1294	 0.37270161170807 
1295	 0.372009202298319 
1296	 0.371248538516909 
1297	 0.370491525885284 
1298	 0.369662931152393 
1299	 0.368858855533546 
1300	 0.368094586804081 
1301	 0.367216053163905 
1302	 0.366276088005713 
1303	 0.36530142922915 
1304	 0.364232916668557 
1305	 0.363195097728231 
1306	 0.362183340651215 
1307	 0.361056389487848 
1308	 0.359875297989631 
1309	 0.358655658452106 
1310	 0.35732426261689 
1311	 0.356005478015981 
1312	 0.35474217432414 
1313	 0.353332928244376 
1314	 0.351804724025763 
1315	 0.350288669728602 
1316	 0.348711007716594 
1317	 0.347085992722037 
1318	 0.345390927813393 
1319	 0.343748137994702 
1320	 0.342007092418136 
1321	 0.340355473454344 
1322	 0.338718007027121 
1323	 0.337169246157888 
1324	 0.33547350649998 
1325	 0.33369540193888 
1326	 0.331916626895574 
1327	 0.330033058130148 
1328	 0.328174701553219 
1329	 0.326354535980377 
1330	 0.324386093591176 
1331	 0.322348376262838 
1332	 0.320278358727932 
1333	 0.318060198256637 
1334	 0.316004848670873 
1335	 0.313918785415605 
1336	 0.312036169628512 
1337	 0.310225580883237 
1338	 0.308594113010439 
1339	 0.307002753423975 
1340	 0.305665653192099 
1341	 0.304535599009136 
1342	 0.303466085733956 
1343	 0.302544090695666 
1344	 0.301759646325759 
1345	 0.30112684387444 
1346	 0.300576388810093 
1347	 0.300309075496688 
1348	 0.299977159438375 
1349	 0.299877809652884 
1350	 0.299997064832914 
1351	 0.300409287470288 
1352	 0.30208926730058 
1353	 0.303138480972296 
1354	 0.304243497699488 
1355	 0.30571004113602 
1356	 0.306049959057915 
1357	 0.307484751245573 
1358	 0.309867678873225 
1359	 0.312406745665467 
1360	 0.312378885478245 
1361	 0.313664709362367 
1362	 0.312748481216987 
1363	 0.312596725740321 
1364	 0.31312470534003 
1365	 0.309855338342144 
1366	 0.308674109986522 
1367	 0.30044511167077 
1368	 0.287881021086954 
1369	 0.280699169648194 
1370	 0.272169261156906 
1371	 0.268734962865261 
1372	 0.27016756907873 
1373	 0.269047721559075 
1374	 0.26673356099917 
1375	 0.267124106903605 
1376	 0.266871643472816 
1377	 0.261519873456875 
1378	 0.258199745725912 
1379	 0.256340498137386 
1380	 0.248388273024896 
1381	 0.236450891095204 
1382	 0.228010608912005 
1383	 0.217948006513385 
1384	 0.209214024047364 
1385	 0.204810471745574 
1386	 0.197432504675646 
1387	 0.18875140768969 
1388	 0.182414029917607 
1389	 0.177874493080399 
1390	 0.171755826305236 
1391	 0.165527612986793 
1392	 0.159560032493645 
1393	 0.152100879283118 
1394	 0.146649284046541 
1395	 0.142758460421164 
1396	 0.137874957143774 
1397	 0.133227211719317 
1398	 0.128475491572265 
1399	 0.12315025604123 
1400	 0.118368576309628 
1401	 0.113669332820311 
1402	 0.109752864841305 
1403	 0.106752496718785 
1404	 0.103424387251075 
1405	 0.100562846836092 
1406	 9.80038760244346E-02 
1407	 9.46522906981832E-02 
1408	 9.18234797998715E-02 
1409	 8.90556242223946E-02 
1410	 8.67967496242882E-02 
1411	 8.47261253621833E-02 
1412	 8.29188901692246E-02 
1413	 8.13174749823699E-02 
1414	 7.99274041021087E-02 
1415	 7.85812036670416E-02 
1416	 7.74778179337604E-02 
1417	 7.61912875575712E-02 
1418	 7.47809458685985E-02 
1419	 7.36767585643216E-02 
1420	 7.26481258361186E-02 
1421	 7.16607222485851E-02 
1422	 7.06202501497569E-02 
1423	 7.00070433677264E-02 
1424	 6.96676538944547E-02 
1425	 6.90552506547664E-02 
1426	 6.85673337846592E-02 
1427	 6.80411977009201E-02 
1428	 6.71696158952791E-02 
1429	 6.65609859542039E-02 
1430	 6.61604311211043E-02 
1431	 6.57768211407482E-02 
1432	 6.53536988130851E-02 
1433	 6.50254303935535E-02 
1434	 6.49344084713724E-02 
1435	 6.46254156265132E-02 
1436	 6.41690564985019E-02 
1437	 6.38959496344789E-02 
1438	 6.35572743489378E-02 
1439	 6.33314268749094E-02 
1440	 6.33489434309881E-02 
1441	 6.32298215919961E-02 
1442	 6.30318613157723E-02 
1443	 0.06296757471109 
1444	 6.27216150031182E-02 
1445	 6.24308204735599E-02 
1446	 0.06229004708749 
1447	 0.06229113043566 
1448	 6.21628568681517E-02 
1449	 6.21303766555623E-02 
1450	 0.061933474295689 
1451	 6.14781263928368E-02 
1452	 6.14883624712374E-02 
1453	 6.17146336458171E-02 
1454	 6.17148327043728E-02 
1455	 6.18250449040299E-02 
1456	 6.18438853423209E-02 
1457	 6.15771854439302E-02 
1458	 0.061668890876375 
1459	 6.20722413244016E-02 
1460	 6.22204170650906E-02 
1461	 6.23113399387383E-02 
1462	 6.25103266082446E-02 
1463	 6.25917184238443E-02 
1464	 6.29032294883174E-02 
1465	 6.35573271966057E-02 
1466	 6.39992070649376E-02 
1467	 0.064364800936736 
1468	 6.48355499968805E-02 
1469	 6.52490537712221E-02 
1470	 6.57569629975679E-02 
1471	 6.64509224429424E-02 
1472	 6.69720421633732E-02 
1473	 6.72831198608676E-02 
1474	 0.067779186889947 
1475	 6.83196946688079E-02 
1476	 6.88100861798314E-02 
1477	 6.93598019099147E-02 
1478	 6.99008870303277E-02 
1479	 7.02805305330496E-02 
1480	 7.08340354751712E-02 
1481	 0.071557233342464 
1482	 7.21843561833889E-02 
1483	 7.27969360947208E-02 
1484	 7.34449031175058E-02 
1485	 7.40291370560826E-02 
1486	 7.46716627887918E-02 
1487	 7.53921367701902E-02 
1488	 7.60809845442256E-02 
1489	 7.67230852312868E-02 
1490	 7.73587720477606E-02 
1491	 7.79664170029414E-02 
1492	 7.86013750337934E-02 
1493	 7.92639081899998E-02 
1494	 0.079919786719002 
1495	 8.05749818326374E-02 
1496	 8.12163479153228E-02 
1497	 8.19561039573457E-02 
1498	 8.27573138741236E-02 
1499	 8.35232846666373E-02 
1500	 8.43531381269796E-02 
1501	 8.51736790926823E-02 
1502	 8.59943168387171E-02 
1503	 8.67577838139295E-02 
1504	 8.75087177621572E-02 
1505	 8.83211654473547E-02 
1506	 8.90636252202156E-02 
1507	 8.99184745147168E-02 
1508	 9.09278352634299E-02 
1509	 9.17985890548109E-02 
1510	 9.26033769814211E-02 
1511	 9.34763972096505E-02 
1512	 9.43501405127167E-02 
1513	 9.52372858792973E-02 
1514	 9.62063747772576E-02 
1515	 9.70792156745449E-02 
1516	 9.78795681557644E-02 
1517	 9.87445687380899E-02 
1518	 9.96153365317757E-02 
1519	 0.100489326665801 
1520	 0.101386641046781 
1521	 0.102304874750863 
1522	 0.1032399125747 
1523	 0.104151110492501 
1524	 0.105080606131339 
1525	 0.106011891330755 
1526	 0.106904419045995 
1527	 0.107834591355141 
1528	 0.108838299416508 
1529	 0.109783741944864 
1530	 0.110698561373244 
1531	 0.111634486132143 
1532	 0.112575823637954 
1533	 0.113489503180554 
1534	 0.114393423870267 
1535	 0.115301063973372 
1536	 0.116179380493491 
1537	 0.117076507240268 
1538	 0.118001249632009 
1539	 0.118917916102345 
1540	 0.119813917066588 
1541	 0.12073501970563 
1542	 0.121696401666184 
1543	 0.122625813580336 
1544	 0.12357008509057 
1545	 0.124476544829915 
1546	 0.125315787145618 
1547	 0.126194155614564 
1548	 0.127061985753517 
1549	 0.127965225356194 
1550	 0.128959613878369 
1551	 0.129876033817006 
1552	 0.130755030917637 
1553	 0.131639797622677 
1554	 0.13243640907451 
1555	 0.133309795877409 
1556	 0.134306416291437 
1557	 0.135204169625606 
1558	 0.136054968396568 
1559	 0.136934482274469 
1560	 0.137751977617909 
1561	 0.138599705721031 
1562	 0.139590689331507 
1563	 0.140449944333876 
1564	 0.141207221977765 
1565	 0.141955324286659 
1566	 0.142762426916278 
1567	 0.14356165208929 
1568	 0.14437958147582 
1569	 0.145305786151291 
1570	 0.146117318912217 
1571	 0.146818639157768 
1572	 0.14766669218659 
1573	 0.148581302330029 
1574	 0.149399646006242 
1575	 0.150238081501166 
1576	 0.151014443232985 
1577	 0.151666551860444 
1578	 0.152444651915692 
1579	 0.153282006329289 
1580	 0.15403052352274 
1581	 0.154777006102346 
1582	 0.155492886072694 
1583	 0.156128860031247 
1584	 0.156849833431437 
1585	 0.157608382581581 
1586	 0.158348749204388 
1587	 0.159131474924549 
1588	 0.15982712241433 
1589	 0.160466014602211 
1590	 0.161173425617224 
1591	 0.161860886899305 
1592	 0.162577753655714 
1593	 0.163412219959585 
1594	 0.164034176773947 
1595	 0.164503465328171 
1596	 0.165162927307296 
1597	 0.165796354726155 
1598	 0.166486856853002 
1599	 0.167367332966659 
1600	 0.168049738225781 
1601	 0.168612451382977 
1602	 0.169234613027143 
1603	 0.169825341500402 
1604	 0.170460863231276 
1605	 0.171117119644849 
1606	 0.171755453656613 
1607	 0.172395800737558 
1608	 0.173047226468938 
1609	 0.173704575146928 
1610	 0.174325274049188 
1611	 0.174968861729548 
1612	 0.175518207679043 
1613	 0.175966194121456 
1614	 0.1765073597805 
1615	 0.177030331834683 
1616	 0.177594552624118 
1617	 0.178222279843829 
1618	 0.178814127463658 
1619	 0.179419166206315 
1620	 0.179965898841057 
1621	 0.180501637242135 
1622	 0.180997344653292 
1623	 0.181430255158943 
1624	 0.18187292594727 
1625	 0.182310258717852 
1626	 0.182745939500442 
1627	 0.183173690520767 
1628	 0.183584936181034 
1629	 0.183953999134857 
1630	 0.184416343025044 
1631	 0.18493288284138 
1632	 0.185370945393991 
1633	 0.18584078244635 
1634	 0.186312408614139 
1635	 0.186734052785054 
1636	 0.187136094130643 
1637	 0.187570314525303 
1638	 0.187983997711722 
1639	 0.188324852097538 
1640	 0.188677476451473 
1641	 0.189059218318962 
1642	 0.189462411289899 
1643	 0.189852016804363 
1644	 0.19018458293479 
1645	 0.190563056454154 
1646	 0.190842108018806 
1647	 0.190950653073262 
1648	 0.19123272865204 
1649	 0.191581480848962 
1650	 0.191897990925626 
1651	 0.192299098449716 
1652	 0.192550770462632 
1653	 0.192741431549101 
1654	 0.192892690971166 
1655	 0.192917000430226 
1656	 0.193067232763053 
1657	 0.193250301375503 
1658	 0.193405588885298 
1659	 0.193634437484759 
1660	 0.193799106298487 
1661	 0.193872351141518 
1662	 0.194060741121042 
1663	 0.194218269449582 
1664	 0.194259209233995 
1665	 0.194234716917429 
1666	 0.194194658227716 
1667	 0.194204238488398 
1668	 0.194310462780885 
1669	 0.194478667072084 
1670	 0.194552331579878 
1671	 0.194511914842148 
1672	 0.194356465196471 
1673	 0.194304572431831 
1674	 0.194359896204104 
1675	 0.19437080733865 
1676	 0.194452131501441 
1677	 0.194431853788595 
1678	 0.194291267068904 
1679	 0.194104532020115 
1680	 0.193832622301373 
1681	 0.193656500644987 
1682	 0.193639156754385 
1683	 0.193573259429114 
1684	 0.193506171389176 
1685	 0.193406543275334 
1686	 0.192981565574869 
1687	 0.192570216709812 
1688	 0.192356504315981 
1689	 0.192107575995146 
1690	 0.192022198373568 
1691	 0.191797467678398 
1692	 0.191425392724751 
1693	 0.19105474793338 
1694	 0.190528205774925 
1695	 0.190179475260485 
1696	 0.189993687242766 
1697	 0.189712037219516 
1698	 0.189542332290343 
1699	 0.18921964796931 
1700	 0.188669285531307 
1701	 0.188227415699941 
1702	 0.187819889024416 
1703	 0.187395331626863 
1704	 0.186950106824324 
1705	 0.186563820905814 
1706	 0.186232182123068 
1707	 0.185799574108364 
1708	 0.185418830088394 
1709	 0.184908761625789 
1710	 0.184164952543159 
1711	 0.183611921276123 
1712	 0.183134400976425 
1713	 0.182650717869845 
1714	 0.182190981392932 
1715	 0.181831812377344 
1716	 0.181532971490404 
1717	 0.181139832791313 
1718	 0.180833695049871 
1719	 0.180442835667126 
1720	 0.179936383668008 
1721	 0.179495795024134 
1722	 0.179040888303129 
1723	 0.178641220720191 
1724	 0.178244562944551 
1725	 0.17785139126946 
1726	 0.177567093231714 
1727	 0.177168330422348 
1728	 0.176739778152325 
1729	 0.17618814079527 
1730	 0.175418525652356 
1731	 0.174913724945243 
1732	 0.174559284045966 
1733	 0.174169196263146 
1734	 0.174015117383184 
1735	 0.173652505896547 
1736	 0.172935598865167 
1737	 0.172442251947353 
1738	 0.171926073541271 
1739	 0.171425139069441 
1740	 0.171091610916105 
1741	 0.170663206980363 
1742	 0.170265712269087 
1743	 0.169763157080588 
1744	 0.16913975296632 
1745	 0.168520913018336 
1746	 0.16779030683721 
1747	 0.167075411666196 
1748	 0.16643626942586 
1749	 0.165766081735599 
1750	 0.165039993487352 
1751	 0.164324261992578 
1752	 0.163548861054243 
1753	 0.162730765032502 
1754	 0.162210550461043 
1755	 0.161850403624199 
1756	 0.161206482919754 
1757	 0.16065317566559 
1758	 0.159991306963974 
1759	 0.159060449711116 
1760	 0.158464326320779 
1761	 0.157996618535863 
1762	 0.157447659175655 
1763	 0.157061703960179 
1764	 0.156543190157059 
1765	 0.155941554869981 
1766	 0.155336707441395 
1767	 0.154567364552606 
1768	 0.154148777672942 
1769	 0.153824784033765 
1770	 0.153602053671959 
1771	 0.153757813185761 
1772	 0.15357173670607 
1773	 0.153372451518886 
1774	 0.152918235347027 
1775	 0.152241815122717 
1776	 0.151914338932222 
1777	 0.151511722320748 
1778	 0.151392167906537 
1779	 0.151805422068682 
1780	 0.1517217126534 
1781	 0.151550023158595 
1782	 0.151416395546101 
1783	 0.150949523463363 
1784	 0.150883537978727 
1785	 0.150922839824 
1786	 0.150874066385906 
1787	 0.150831702859766 
1788	 0.150663662577747 
1789	 0.150652780946174 
1790	 0.150812458605818 
1791	 0.151156365386644 
1792	 0.151311938862804 
1793	 0.151349265227603 
1794	 0.151353321361446 
1795	 0.151344360020616 
1796	 0.151874511638513 
1797	 0.152464989563447 
1798	 0.152994910778168 
1799	 0.153573149788508 
1800	 0.154510944380207 
1801	 0.152836873806106 
1802	 0.154155298018628 
1803	 0.155279718627586 
1804	 0.157048237124679 
1805	 0.157629696278158 
1806	 0.156892924543745 
1807	 0.157092114061925 
1808	 0.156351501183325 
1809	 0.15652490113559 
1810	 0.156945893411107 
1811	 0.159032232757838 
1812	 0.159871623859226 
1813	 0.160074007227628 
1814	 0.160584297649721 
1815	 0.160409589880054 
1816	 0.161155773358062 
1817	 0.163023180484714 
1818	 0.164408036912307 
1819	 0.165954736282561 
1820	 0.168516428742761 
1821	 0.169992859525105 
1822	 0.171377345903715 
1823	 0.170847990898866 
1824	 0.166466766176543 
1825	 0.165385548438717 
1826	 0.161832653944138 
1827	 0.161238155264806 
1828	 0.163687875557678 
1829	 0.176521719657038 
1830	 0.182705868579475 
1831	 0.192336994563589 
1832	 0.196561298302805 
1833	 0.186918961751258 
1834	 0.182150286902079 
1835	 0.165400026720768 
1836	 0.15308333122094 
1837	 0.14253375274272 
1838	 0.143594721328547 
1839	 0.155685066285835 
1840	 0.180159067227097 
1841	 0.203137763014652 
1842	 0.255207257643141 
1843	 0.26366039384631 
1844	 0.251926897872786 
1845	 0.243725401934797 
1846	 0.200005204411054 
1847	 0.187661478616022 
1848	 0.185042198066291 
1849	 0.192651622095129 
1850	 0.205734604392768 
1851	 0.252587198287172 
1852	 0.265388690960228 
1853	 0.273641644973757 
1854	 0.263799854642266 
1855	 0.205036134067526 
1856	 0.19771994154151 
1857	 0.214074240610326 
1858	 0.220462733968149 
1859	 0.222498508807659 
1860	 0.247785835089076 
1861	 0.240465899863125 
1862	 0.201780358543666 
1863	 0.188767637544392 
1864	 0.182778759719669 
1865	 0.168765005803229 
1866	 0.160840632019267 
1867	 0.131524558631005 
1868	 0.109101999242249 
1869	 9.75031632839039E-02 
1870	 0.104379189016116 
1871	 0.163312140462469 
1872	 0.168653752673927 
1873	 0.16173927911849 
1874	 0.158002837500594 
1875	 0.145071792772299 
1876	 0.127918768673404 
1877	 0.119703404430511 
1878	 0.100371488597121 
1879	 8.00818889345956E-02 
1880	 6.92536398895808E-02 
1881	 6.73808146063889E-02 
1882	 7.79517468001312E-02 
1883	 7.67513940084218E-02 
1884	 7.42537981094735E-02 
1885	 7.28858801048495E-02 
1886	 7.01841710348868E-02 
1887	 6.45571537553051E-02 
1888	 5.59049191736019E-02 
1889	 5.37247478301796E-02 
1890	 0.051712435510005 
1891	 4.56019408424726E-02 
1892	 4.58297724234636E-02 
1893	 5.58948117260381E-02 
1894	 5.84037532751762E-02 
1895	 6.14606276510841E-02 
1896	 5.99851738121559E-02 
1897	 4.89718237353053E-02 
1898	 4.16952374960894E-02 
1899	 3.94257283057057E-02 
1900	 4.35140877453767E-02 
1901	 4.76506623204853E-02 
1902	 7.19542987526953E-02 
1903	 7.78076723237931E-02 
1904	 5.80300690911552E-02 
1905	 5.85923573641426E-02 
1906	 0.070122508470904 
1907	 7.36337639784187E-02 
1908	 5.45334109008708E-02 
1909	 6.02607220058037E-02 
1910	 5.75329540228819E-02 
1911	 4.56194362562041E-02 
1912	 4.13834579136309E-02 
1913	 4.66027172144202E-02 
1914	 4.36842962254313E-02 
1915	 0.034193369321794 
1916	 0.032691345568603 
1917	 3.41518616191678E-02 
1918	 3.56190828484023E-02 
1919	 3.53124461498729E-02 
1920	 3.26738426600524E-02 
1921	 3.01387007321724E-02 
1922	 2.84827639295805E-02 
1923	 0.027755862711964 
1924	 2.83334987885054E-02 
1925	 2.86436225650548E-02 
1926	 2.92538316067836E-02 
1927	 2.95556555402881E-02 
1928	 2.95112265779459E-02 
1929	 3.01030668191509E-02 
1930	 0.031676517862013 
1931	 3.21642975305593E-02 
1932	 3.18863389610745E-02 
1933	 3.12289529312296E-02 
1934	 3.00934179698482E-02 
1935	 2.80066928261717E-02 
1936	 2.68000747596584E-02 
1937	 2.49616886544325E-02 
1938	 0.024570291334134 
1939	 0.025444288682241 
1940	 2.48975463305426E-02 
1941	 0.02469908282443 
1942	 2.55490368445469E-02 
1943	 2.48238540002873E-02 
1944	 2.47211934611667E-02 
1945	 2.45175570134724E-02 
1946	 2.36117946626577E-02 
1947	 2.33986999303704E-02 
1948	 2.34310561796597E-02 
1949	 2.34974924378534E-02 
1950	 2.39480381296162E-02 
1951	 2.40514084632604E-02 
1952	 2.41370296221927E-02 
1953	 2.43749494950758E-02 
1954	 2.46847016552637E-02 
1955	 2.50923210036506E-02 
1956	 2.45962400439126E-02 
1957	 2.51423879344828E-02 
1958	 0.025519828136428 
1959	 2.55546191313754E-02 
1960	 2.57416624445006E-02 
1961	 2.68481450687521E-02 
1962	 2.61411269056391E-02 
1963	 2.53915662871638E-02 
1964	 2.58115535644524E-02 
1965	 2.55074865339714E-02 
1966	 2.59122913659721E-02 
1967	 2.67158647244078E-02 
1968	 2.63694422751305E-02 
1969	 2.62328748106241E-02 
1970	 2.63084234233994E-02 
1971	 2.62203769307681E-02 
1972	 2.57279695605674E-02 
1973	 2.55489734372253E-02 
1974	 2.59256666774251E-02 
1975	 2.58433945045542E-02 
1976	 2.63209313567565E-02 
1977	 2.71432441288573E-02 
1978	 2.73237654164184E-02 
1979	 2.74194400473872E-02 
1980	 2.71573950708426E-02 
1981	 2.68904088337448E-02 
1982	 2.70059483725494E-02 
1983	 2.74926013660485E-02 
1984	 2.78344885026293E-02 
1985	 2.81464656378433E-02 
1986	 2.83079384066806E-02 
1987	 2.78460024670698E-02 
1988	 2.76976616560306E-02 
1989	 2.78699432183072E-02 
1990	 2.79261657187508E-02 
1991	 2.81942487138282E-02 
1992	 2.83412874173237E-02 
1993	 0.028439029285799 
1994	 0.028708447605631 
1995	 2.90668028885082E-02 
1996	 2.96722607033636E-02 
1997	 3.04986455846153E-02 
1998	 3.12127908699346E-02 
1999	 3.15451042582214E-02 
2000	 3.17743936980525E-02 
2001	 3.18405414789565E-02 
2002	 3.17220124862326E-02 
2003	 3.23209214558134E-02 
2004	 3.30566771390434E-02 
2005	 3.35515489777673E-02 
2006	 3.37607977466792E-02 
2007	 3.38145255772675E-02 
2008	 3.33773592948095E-02 
2009	 3.29464636811047E-02 
2010	 3.30030399820393E-02 
2011	 3.36618274913286E-02 
2012	 3.41057202493635E-02 
2013	 3.46888547668264E-02 
2014	 3.47884103221819E-02 
2015	 3.44649926980012E-02 
2016	 3.49907190998567E-02 
2017	 3.53635088115206E-02 
2018	 3.59604052552428E-02 
2019	 3.63772469841371E-02 
2020	 3.69941005380851E-02 
2021	 3.68241565262276E-02 
2022	 3.67693285773516E-02 
2023	 3.68484079270433E-02 
2024	 3.68793435678495E-02 
2025	 3.69370270080977E-02 
2026	 0.03716369493053 
2027	 3.73359955210042E-02 
2028	 3.71609887619953E-02 
2029	 3.71655518977115E-02 
2030	 3.73092923638615E-02 
2031	 3.74682331801153E-02 
2032	 3.76954551242229E-02 
2033	 0.038082043984537 
2034	 3.86482320694008E-02 
2035	 3.92350389031123E-02 
2036	 3.94508820143891E-02 
2037	 3.96523575879149E-02 
2038	 0.039760809619667 
2039	 3.96635017590932E-02 
2040	 0.039767719769719 
2041	 3.98872017243574E-02 
2042	 4.01752964472657E-02 
2043	 4.05050970328865E-02 
2044	 4.05786463013863E-02 
2045	 4.07264485954745E-02 
2046	 0.040920844600708 
2047	 4.11572488917643E-02 
2048	 4.14254254074348E-02 
2049	 0.041955899566752 
2050	 4.26059945244282E-02 
2051	 4.31630792095698E-02 
2052	 4.33414074539507E-02 
2053	 4.33459837612634E-02 
2054	 4.34010030618567E-02 
2055	 4.33970670015872E-02 
2056	 4.37605171893871E-02 
2057	 4.38542722177955E-02 
2058	 0.04375101382411 
2059	 4.39668263979712E-02 
2060	 4.42358206569363E-02 
2061	 4.45605778195758E-02 
2062	 4.51916356526718E-02 
2063	 4.56278667908705E-02 
2064	 4.61062439355446E-02 
2065	 4.61998623967858E-02 
2066	 4.60268396410051E-02 
2067	 4.64306682439196E-02 
2068	 4.68261993587482E-02 
2069	 4.72377894924299E-02 
2070	 0.047592808394499 
2071	 4.80173605778848E-02 
2072	 4.84873567560105E-02 
2073	 4.89283514514495E-02 
2074	 4.91121178217129E-02 
2075	 4.96369311140199E-02 
2076	 5.00806993598548E-02 
2077	 4.99475054739995E-02 
2078	 4.99044975261273E-02 
2079	 5.02296800831332E-02 
2080	 5.03453292750644E-02 
2081	 5.04771355984044E-02 
2082	 5.09873525251752E-02 
2083	 0.051051922477179 
2084	 5.11029988624276E-02 
2085	 5.13510811225133E-02 
2086	 5.15075600404871E-02 
2087	 5.18626691989075E-02 
2088	 5.23861080799761E-02 
2089	 5.28863318313722E-02 
2090	 5.34227078768953E-02 
2091	 0.053737169050918 
2092	 5.38996108144962E-02 
2093	 5.42547758424895E-02 
2094	 5.43624469642284E-02 
2095	 5.46888533173385E-02 
2096	 5.51542856043549E-02 
2097	 5.52533426730208E-02 
2098	 5.55263052200067E-02 
2099	 5.61267848749335E-02 
2100	 5.66324976185995E-02 
2101	 5.68569948287301E-02 
2102	 5.70261110339521E-02 
2103	 5.71234320223429E-02 
2104	 5.69439796474239E-02 
2105	 5.69235600503592E-02 
2106	 5.75417532982982E-02 
2107	 0.058476676987717 
2108	 5.93946471578216E-02 
2109	 5.99712223516774E-02 
2110	 6.03834961868653E-02 
2111	 6.03550065002425E-02 
2112	 5.99848158722818E-02 
2113	 6.00848366653257E-02 
2114	 6.02516665744203E-02 
2115	 6.02429976019059E-02 
2116	 6.07061072061616E-02 
2117	 6.11898602526467E-02 
2118	 0.061778686408885 
2119	 6.20784428290059E-02 
2120	 6.25063122909883E-02 
2121	 6.26452962408496E-02 
2122	 6.22082132150915E-02 
2123	 6.23958292089796E-02 
2124	 6.30334321118248E-02 
2125	 6.35933153079004E-02 
2126	 6.44852684935921E-02 
2127	 6.51151191195059E-02 
2128	 6.52384614793768E-02 
2129	 0.065686631791005 
2130	 6.60131134689334E-02 
2131	 6.59465753305689E-02 
2132	 6.62233945435932E-02 
2133	 6.62556768095282E-02 
2134	 6.62335186883518E-02 
2135	 6.60392350087202E-02 
2136	 6.64929409784499E-02 
2137	 6.67943870096956E-02 
2138	 0.066985209996904 
2139	 6.75626019277444E-02 
2140	 6.77406656815901E-02 
2141	 6.77408044389209E-02 
2142	 6.79545966087471E-02 
2143	 6.83548651045988E-02 
2144	 0.069024300942204 
2145	 6.93274495872097E-02 
2146	 6.96091553890784E-02 
2147	 6.98810670356446E-02 
2148	 6.98450893659899E-02 
2149	 6.97905984620944E-02 
2150	 6.98066492323373E-02 
2151	 7.00737565131675E-02 
2152	 7.06427288420946E-02 
2153	 7.07090886399202E-02 
2154	 7.07002532286992E-02 
2155	 7.09579530227769E-02 
2156	 7.07347129717843E-02 
2157	 7.06357449509005E-02 
2158	 7.14322359122091E-02 
2159	 7.21866280863122E-02 
2160	 7.27111636208919E-02 
2161	 7.33455305107263E-02 
2162	 7.36799412705593E-02 
2163	 7.40292093077664E-02 
2164	 7.44783748036614E-02 
2165	 7.47938803453963E-02 
2166	 7.48925523694369E-02 
2167	 7.45157629573523E-02 
2168	 7.44881289920692E-02 
2169	 7.43604186385602E-02 
2170	 7.44695930408173E-02 
2171	 7.47897817404723E-02 
2172	 7.55365754600627E-02 
2173	 0.07572465680127 
2174	 7.55643535706938E-02 
2175	 7.54761945723596E-02 
2176	 7.51008210114798E-02 
2177	 7.54809499428696E-02 
2178	 7.62771642983759E-02 
2179	 7.65862193329782E-02 
2180	 7.68561670383999E-02 
2181	 7.69798603675193E-02 
2182	 7.66223907152866E-02 
2183	 7.66114456921989E-02 
2184	 7.69783351782408E-02 
2185	 7.68721096134185E-02 
2186	 7.68280045234755E-02 
2187	 7.69788366784614E-02 
2188	 7.73408353302965E-02 
2189	 7.74037341824469E-02 
2190	 7.74429750386945E-02 
2191	 7.75785672393313E-02 
2192	 7.76602039573405E-02 
2193	 7.79154390201031E-02 
2194	 7.85283692624397E-02 
2195	 7.88430845305862E-02 
2196	 7.87781967683599E-02 
2197	 7.85730131923777E-02 
2198	 7.82823552519542E-02 
2199	 7.85917670904514E-02 
2200	 7.89870938467995E-02 
2201	 7.88677757008543E-02 
2202	 7.91640696329356E-02 
2203	 7.91730056347737E-02 
2204	 7.87166137548962E-02 
2205	 7.89272822126583E-02 
2206	 7.92752962039159E-02 
2207	 7.89952946328348E-02 
2208	 7.90383042436349E-02 
2209	 7.97041567778618E-02 
2210	 7.98018574141132E-02 
2211	 7.94635567689658E-02 
2212	 7.94814789446018E-02 
2213	 7.97856130675547E-02 
2214	 7.93914117896952E-02 
2215	 7.91757849293933E-02 
2216	 7.93147396754281E-02 
2217	 7.92620510548297E-02 
2218	 7.90428500795909E-02 
2219	 7.93458235397604E-02 
2220	 0.079595542338037 
2221	 0.079464808013447 
2222	 7.98501947072731E-02 
2223	 7.96414237663343E-02 
2224	 0.079213450039101 
2225	 7.93665329658458E-02 
2226	 7.95022069322902E-02 
2227	 7.95545937102484E-02 
2228	 7.95736056070276E-02 
2229	 7.97953264020119E-02 
2230	 7.93069274201208E-02 
2231	 7.88238363351401E-02 
2232	 7.84975807115048E-02 
2233	 7.81190580853086E-02 
2234	 7.74045343043936E-02 
2235	 7.68791239456167E-02 
2236	 7.65920214701891E-02 
2237	 7.58715747035644E-02 
2238	 7.49382161913155E-02 
2239	 7.46921613971033E-02 
2240	 7.45372455582482E-02 
2241	 7.42669454458933E-02 
2242	 7.48333104311242E-02 
2243	 7.48646595122679E-02 
2244	 7.42878255254964E-02 
2245	 7.42964996507215E-02 
2246	 0.074380241805849 
2247	 7.40262011210873E-02 
2248	 7.34867575714863E-02 
2249	 7.31545196902215E-02 
2250	 7.28293307953403E-02 
2251	 7.27864606771197E-02 
2252	 7.29663868792036E-02 
2253	 7.27257361526868E-02 
2254	 7.22509245142226E-02 
2255	 7.17233918798426E-02 
2256	 7.13711038831738E-02 
2257	 7.11397505486272E-02 
2258	 7.12958497859764E-02 
2259	 7.13794141417343E-02 
2260	 7.09312818948464E-02 
2261	 7.02062660002469E-02 
2262	 6.95356420870244E-02 
2263	 6.87428026759327E-02 
2264	 6.83034947752992E-02 
2265	 6.78845400543213E-02 
2266	 0.067230612836407 
2267	 6.69930675099475E-02 
2268	 6.64636421006435E-02 
2269	 0.066248566132799 
2270	 6.68354155225262E-02 
2271	 6.64897300349845E-02 
2272	 6.61426978770541E-02 
2273	 6.59807498962108E-02 
2274	 6.48135909139882E-02 
2275	 6.45096985504066E-02 
2276	 6.46051970252783E-02 
2277	 6.40311186462017E-02 
2278	 6.39805342652987E-02 
2279	 6.42763321805236E-02 
2280	 6.48278997659756E-02 
2281	 6.46513047685973E-02 
2282	 6.39453530803472E-02 
2283	 6.33042195886261E-02 
2284	 6.14726063115818E-02 
2285	 0.060662344931539 
2286	 6.04389498640009E-02 
2287	 6.13622774421259E-02 
2288	 6.09124805180546E-02 
2289	 6.03876998555605E-02 
2290	 5.99150880051697E-02 
2291	 5.93387123394089E-02 
2292	 5.97649555958525E-02 
2293	 6.10257149843495E-02 
2294	 6.15948685535387E-02 
2295	 6.03974398319978E-02 
2296	 5.90621352372393E-02 
2297	 5.78180520376172E-02 
2298	 5.71743903988974E-02 
2299	 5.80572242184031E-02 
2300	 5.87481317552093E-02 
2301	 5.82593702538687E-02 
2302	 5.72648573807326E-02 
2303	 5.65437802350225E-02 
2304	 5.52270595291677E-02 
2305	 5.52466085613332E-02 
2306	 5.61072764263051E-02 
2307	 0.055535246380629 
2308	 5.60517249881341E-02 
2309	 5.59325721408643E-02 
2310	 5.50601747985089E-02 
2311	 5.54623338455557E-02 
2312	 5.49025374021036E-02 
2313	 5.44650482628222E-02 
2314	 5.49307941466868E-02 
2315	 5.45721540243566E-02 
2316	 5.38420480488239E-02 
2317	 5.28690281068595E-02 
2318	 5.16793314204214E-02 
2319	 5.12791633847149E-02 
2320	 5.13558900862833E-02 
2321	 5.14601489698985E-02 
2322	 5.23598055915793E-02 
2323	 5.25354422715154E-02 
2324	 5.23028533224027E-02 
2325	 5.24146411475896E-02 
2326	 0.05154200420431 
2327	 0.051144050471644 
2328	 5.04582861097681E-02 
2329	 4.89234864173621E-02 
2330	 4.92029372197118E-02 
2331	 4.99656295964664E-02 
2332	 5.03683915036789E-02 
2333	 5.04111705626273E-02 
2334	 4.93601738884748E-02 
2335	 0.04815287706833 
2336	 4.79324250894461E-02 
2337	 4.85215944328393E-02 
2338	 4.91176120321212E-02 
2339	 4.91783095278176E-02 
2340	 4.86639175195707E-02 
2341	 4.79625220886515E-02 
2342	 4.77146032197188E-02 
2343	 0.047748717001182 
2344	 4.65754456880777E-02 
2345	 4.54791093423062E-02 
2346	 4.49216408690483E-02 
2347	 4.49970615584267E-02 
2348	 4.65337347484252E-02 
2349	 4.75029778379393E-02 
2350	 4.84360394861674E-02 
2351	 4.88228051898613E-02 
2352	 4.80413747579912E-02 
2353	 4.73638338065155E-02 
2354	 4.67460194992368E-02 
2355	 4.56029735457877E-02 
2356	 4.42948112652664E-02 
2357	 4.45629598479898E-02 
2358	 4.44002321603007E-02 
2359	 4.41350416594476E-02 
2360	 4.43810618023779E-02 
2361	 4.30984713319155E-02 
2362	 4.33575309708134E-02 
2363	 4.55806768985815E-02 
2364	 4.69273555050622E-02 
2365	 4.84641325886542E-02 
2366	 4.86268285229421E-02 
2367	 4.61888724406437E-02 
2368	 0.044605470148176 
2369	 4.29435300809851E-02 
2370	 4.14848278039531E-02 
2371	 4.03563631083568E-02 
2372	 0.039624153860507 
2373	 3.94822178252401E-02 
2374	 3.95039948494365E-02 
2375	 0.039943692291037 
2376	 0.040696220331958 
2377	 4.20647068059007E-02 
2378	 4.23308869196813E-02 
2379	 4.25885313225158E-02 
2380	 4.18817975349046E-02 
2381	 3.86465188748329E-02 
2382	 3.74717264509945E-02 
2383	 3.75891411313214E-02 
2384	 3.74110588117687E-02 
2385	 3.83178953695891E-02 
2386	 3.93815391062463E-02 
2387	 4.04479206604669E-02 
2388	 3.97618468542218E-02 
2389	 0.038881293283677 
2390	 0.037913640951455 
2391	 3.44346462583592E-02 
2392	 3.43969518959573E-02 
2393	 3.70504006956845E-02 
2394	 3.74438187671203E-02 
2395	 3.80757782653095E-02 
2396	 3.85988911152207E-02 
2397	 3.68432712802496E-02 
2398	 3.74399142215375E-02 
2399	 0.041637110668962 
2400	 4.20141046457579E-02 
2401	 4.00600366537604E-02 
2402	 4.19361196651646E-02 
2403	 4.01296868104702E-02 
2404	 3.61246486300457E-02 
2405	 3.75972860407278E-02 
2406	 3.77126980977976E-02 
2407	 3.84386539319405E-02 
2408	 4.08326916062997E-02 
2409	 3.92663163666325E-02 
2410	 3.80942288785943E-02 
2411	 3.53556782407836E-02 
2412	 3.46375921412635E-02 
2413	 3.88579863401366E-02 
2414	 3.80631890236495E-02 
2415	 3.86400992877399E-02 
2416	 4.10188977769916E-02 
2417	 3.80695856948112E-02 
2418	 3.88435908608238E-02 
2419	 4.03823127017655E-02 
2420	 4.01740335955839E-02 
2421	 4.22843452605849E-02 
2422	 4.09589000121983E-02 
2423	 0.037959391451839 
2424	 3.56547818659561E-02 
2425	 3.09733550043389E-02 
2426	 3.08488282846363E-02 
2427	 3.52209470507342E-02 
2428	 3.51302864610952E-02 
2429	 3.82949365444963E-02 
2430	 0.041797911978982 
2431	 3.89187125295548E-02 
2432	 3.97653499839574E-02 
2433	 0.038690609409226 
2434	 3.64828186149423E-02 
2435	 0.032591980366815 
2436	 3.05198616568958E-02 
2437	 3.01750284830709E-02 
2438	 2.86912110841083E-02 
2439	 2.66764217381146E-02 
2440	 2.77218384985621E-02 
2441	 2.97804403522223E-02 
2442	 2.94429794521789E-02 
2443	 2.97851997739542E-02 
2444	 3.22365877239158E-02 
2445	 0.035841802699443 
2446	 3.63702761646479E-02 
2447	 3.88503447489077E-02 
2448	 3.84237141596324E-02 
2449	 2.67855763037889E-02 
2450	 2.47562632763451E-02 
2451	 3.04042484845737E-02 
2452	 3.43290601214518E-02 
2453	 4.59690938731367E-02 
2454	 4.60799337287864E-02 
2455	 3.79318967382897E-02 
2456	 3.44639413420031E-02 
2457	 2.46152722141549E-02 
2458	 2.16798042573747E-02 
2459	 2.38752624461105E-02 
2460	 2.47649930365905E-02 
2461	 2.82534302298953E-02 
2462	 3.24836297805569E-02 
2463	 4.32608260487769E-02 
2464	 4.61351306723136E-02 
2465	 0.041304364698651 
2466	 4.06462623013453E-02 
2467	 3.54239051487749E-02 
2468	 3.48731294453492E-02 
2469	 4.36758917085164E-02 
2470	 4.69152142960396E-02 
2471	 4.66789082850817E-02 
2472	 4.48722296747483E-02 
2473	 3.87571912638112E-02 
2474	 3.75647328690826E-02 
2475	 3.79191212726503E-02 
2476	 0.040602186407734 
2477	 4.86678408235494E-02 
2478	 5.14197797135616E-02 
2479	 5.43874262838503E-02 
2480	 4.76233639875818E-02 
2481	 3.00297750866801E-02 
2482	 0.024665242809688 
2483	 1.59246227401914E-02 
2484	 1.33646476964675E-02 
2485	 2.11359481440123E-02 
2486	 1.40215368929516E-02 
2487	 0.031628746019887 
2488	 2.82449689442709E-02 
2489	 4.34708166215867E-02 
2490	 8.37200647640173E-02 
2491	 7.11386499564214E-02 
2492	 8.84817210312659E-02 
2493	 0.143879288796779 
2494	 0.133525687371864 
2495	 0.111865454619328 
2496	 7.16488552033111E-02 
2497	 0.020353828966257 
2498	-1.05772334868863E-02 
2499	 5.56793016675432E-03 
2500	 6.62760924273846E-02 
