Wavelength	ref00057.asd
350	 4.23420040392557E-02 
351	 4.24119311900668E-02 
352	 4.15172078170354E-02 
353	 0.042100863526704 
354	 4.18565262933433E-02 
355	 4.19278129755907E-02 
356	 4.28950689498167E-02 
357	 4.30040145910782E-02 
358	 4.25340598494435E-02 
359	 4.25401300614901E-02 
360	 4.35849163310322E-02 
361	 4.31052023716907E-02 
362	 4.30722464601262E-02 
363	 4.33447633065912E-02 
364	 4.25659769138587E-02 
365	 4.28820725535713E-02 
366	 4.33285919618937E-02 
367	 4.32823369719305E-02 
368	 4.31131639062994E-02 
369	 4.34592126014938E-02 
370	 4.36692822277439E-02 
371	 0.043310415307297 
372	 4.36252849111202E-02 
373	 4.37962062556539E-02 
374	 4.37153020423159E-02 
375	 4.36873081801955E-02 
376	 4.40971883358263E-02 
377	 4.42102920036706E-02 
378	 4.40709981435767E-02 
379	 4.47232625402861E-02 
380	 4.46743154156337E-02 
381	 0.044970306407413 
382	 4.62012660620986E-02 
383	 4.62370958627553E-02 
384	 4.64917344151166E-02 
385	 4.69723601756899E-02 
386	 4.71332604318968E-02 
387	 4.71148314599588E-02 
388	 4.73726927265823E-02 
389	 4.78034353065136E-02 
390	 4.77669056291159E-02 
391	 4.84049787696393E-02 
392	 4.89727800189098E-02 
393	 4.89921124978107E-02 
394	 4.93156461489048E-02 
395	 4.99353278994597E-02 
396	 0.050393128949926 
397	 5.02919858398643E-02 
398	 5.05032007427418E-02 
399	 5.01873379763621E-02 
400	 4.98044779923526E-02 
401	 5.07341763954945E-02 
402	 0.050809006609051 
403	 5.07939199542605E-02 
404	 5.12911256908906E-02 
405	 5.17090903184127E-02 
406	 5.19001355466784E-02 
407	 5.19950613101558E-02 
408	 0.052223793326406 
409	 5.27044986771028E-02 
410	 5.27489715094753E-02 
411	 5.25343776232724E-02 
412	 5.29333046431809E-02 
413	 5.30200157433369E-02 
414	 5.29930991021194E-02 
415	 0.053096209160496 
416	 5.32824469272225E-02 
417	 5.35630249442834E-02 
418	 5.37508531327483E-02 
419	 5.37261757304269E-02 
420	 5.40100746944475E-02 
421	 5.43989260598672E-02 
422	 5.46665507859897E-02 
423	 5.46315526112698E-02 
424	 5.45472226505005E-02 
425	 5.46508104151771E-02 
426	 5.50052236195658E-02 
427	 5.53549404641037E-02 
428	 5.55613387320766E-02 
429	 5.55858901663712E-02 
430	 5.54913775061174E-02 
431	 5.54981535041239E-02 
432	 5.56936666316985E-02 
433	 5.58809106344091E-02 
434	 5.56854913919312E-02 
435	 5.57073690255863E-02 
436	 5.58933583424845E-02 
437	 5.60767685010787E-02 
438	 5.60751234746634E-02 
439	 5.61928645376808E-02 
440	 5.64239344014094E-02 
441	 5.66573024591462E-02 
442	 5.68839405411238E-02 
443	 5.71577351120737E-02 
444	 5.74239096203907E-02 
445	 5.75398635961626E-02 
446	 5.78117909946743E-02 
447	 5.80731578882932E-02 
448	 5.82338196290795E-02 
449	 5.86111841357952E-02 
450	 5.89732082096268E-02 
451	 5.92629412242268E-02 
452	 0.059504052637167 
453	 5.97136112808997E-02 
454	 5.99715393726289E-02 
455	 6.02426077044022E-02 
456	 6.03596967636539E-02 
457	 6.05273876660032E-02 
458	 0.060598214667346 
459	 6.05127819453142E-02 
460	 6.07142998135534E-02 
461	 0.060873564042516 
462	 6.09215303853966E-02 
463	 6.09374161623218E-02 
464	 6.09200940859158E-02 
465	 6.10422529773153E-02 
466	 6.12718538365417E-02 
467	 6.12525739731219E-02 
468	 6.13122158290578E-02 
469	 6.13646355279416E-02 
470	 0.061304300218246 
471	 6.14042330245972E-02 
472	 6.14906630291817E-02 
473	 6.15555355896321E-02 
474	 6.16997168750887E-02 
475	 6.17831808646665E-02 
476	 6.18897315877579E-02 
477	 6.20640078570539E-02 
478	 6.22182463318076E-02 
479	 6.24082388932731E-02 
480	 6.26183556720617E-02 
481	 6.28086237720248E-02 
482	 6.29327277557636E-02 
483	 6.31081623195575E-02 
484	 6.34241186924384E-02 
485	 6.39142107245818E-02 
486	 6.43000107505353E-02 
487	 6.45560487095274E-02 
488	 6.47573989729352E-02 
489	 0.065076781589242 
490	 6.54024797996237E-02 
491	 0.065791350250811 
492	 6.63521995236646E-02 
493	 6.70356748146786E-02 
494	 6.76939385087702E-02 
495	 6.83448166631284E-02 
496	 6.92124670262211E-02 
497	 6.99666938262063E-02 
498	 7.08352153291249E-02 
499	 7.20188142457203E-02 
500	 7.31839767362478E-02 
501	 7.43352130800882E-02 
502	 7.55348759128758E-02 
503	 7.68616813909976E-02 
504	 7.81115005941474E-02 
505	 7.94246936564119E-02 
506	 8.09054482739473E-02 
507	 8.25374370281392E-02 
508	 8.41331876979992E-02 
509	 8.58045000125807E-02 
510	 8.76650502693452E-02 
511	 8.93839833817079E-02 
512	 9.12553002448686E-02 
513	 9.32743881023571E-02 
514	 9.51900474990743E-02 
515	 9.73206734732276E-02 
516	 9.96417036308121E-02 
517	 0.102036707817043 
518	 0.104386666114757 
519	 0.106540278475767 
520	 0.108520158077214 
521	 0.110464865561843 
522	 0.112613049968146 
523	 0.114698266123966 
524	 0.116625018368278 
525	 0.118504289783862 
526	 0.120440501505151 
527	 0.122329210532959 
528	 0.124010923326288 
529	 0.125284734964094 
530	 0.126570976221947 
531	 0.127921058163535 
532	 0.129174941148358 
533	 0.130326628710486 
534	 0.131302728980582 
535	 0.132096467000178 
536	 0.13281423355553 
537	 0.133569178377837 
538	 0.134302511485031 
539	 0.134939116943438 
540	 0.135640560973191 
541	 0.136234859617961 
542	 0.136651777854742 
543	 0.136941051431281 
544	 0.137430533488642 
545	 0.13796694048378 
546	 0.138408474694798 
547	 0.13881540035493 
548	 0.139411335466024 
549	 0.139983214781692 
550	 0.140224178777713 
551	 0.140543844824148 
552	 0.140792778120287 
553	 0.140890450119787 
554	 0.140888508043741 
555	 0.140872546430782 
556	 0.140783054251075 
557	 0.140571476500964 
558	 0.14037464247664 
559	 0.140014996055495 
560	 0.139536493438582 
561	 0.139113785328321 
562	 0.138673050324762 
563	 0.138098448362854 
564	 0.137389129709122 
565	 0.136758592786964 
566	 0.136152459652974 
567	 0.135433438324717 
568	 0.134517918837739 
569	 0.133739326865261 
570	 0.13285209573916 
571	 0.131823409902746 
572	 0.130833030684964 
573	 0.129745616104487 
574	 0.128788848586662 
575	 0.128033236477657 
576	 0.127003934370323 
577	 0.126046321323263 
578	 0.125288737799967 
579	 0.124723804016083 
580	 0.12420899146002 
581	 0.123633619735945 
582	 0.12300167072987 
583	 0.122454749928814 
584	 0.121984914045893 
585	 0.12154701730733 
586	 0.121090081770403 
587	 0.120560877163411 
588	 0.120267940765163 
589	 0.120069984759798 
590	 0.119534726645204 
591	 0.119007525023062 
592	 0.118685214595957 
593	 0.118558785690054 
594	 0.118332352690357 
595	 0.118178762975918 
596	 0.118009440357654 
597	 0.11770308876485 
598	 0.117416586368871 
599	 0.11709643745647 
600	 0.116797444089862 
601	 0.116675127263346 
602	 0.116397132389673 
603	 0.116113912551845 
604	 0.115928497095913 
605	 0.115534436753774 
606	 0.115227499966236 
607	 0.114962851729493 
608	 0.114568754487591 
609	 0.114276161507 
610	 0.114011607937598 
611	 0.113703135338362 
612	 0.113320526772673 
613	 0.112996006555825 
614	 0.112666104525168 
615	 0.112246600816351 
616	 0.111776797548024 
617	 0.111370754433007 
618	 0.110961586782512 
619	 0.110393076077388 
620	 0.110095541688905 
621	 0.10987013455469 
622	 0.109581209209421 
623	 0.109382130967446 
624	 0.109220848511635 
625	 0.1091234844818 
626	 0.1091125302684 
627	 0.109064000360918 
628	 0.109119539177986 
629	 0.109218305702912 
630	 0.109108666575753 
631	 0.109047804391968 
632	 0.10884403909757 
633	 0.108412261676895 
634	 0.108169653019381 
635	 0.107733499960149 
636	 0.107058223023415 
637	 0.106244710268605 
638	 0.105218980813373 
639	 0.104182443463384 
640	 0.103178529219892 
641	 0.102056190023515 
642	 0.100896502924438 
643	 9.97048844178586E-02 
644	 9.84948736416789E-02 
645	 9.74077656167797E-02 
646	 9.63090571261326E-02 
647	 9.52819759945558E-02 
648	 9.45129864448009E-02 
649	 9.38039504489674E-02 
650	 9.32341958927826E-02 
651	 9.28196330437945E-02 
652	 9.23919993692626E-02 
653	 9.22162871129617E-02 
654	 9.21419850135649E-02 
655	 9.20023438352973E-02 
656	 0.092204461083777 
657	 9.20254442451576E-02 
658	 9.14529745249124E-02 
659	 9.10075400708334E-02 
660	 9.05808289149527E-02 
661	 9.00375256259581E-02 
662	 8.93955602021487E-02 
663	 8.89519728230358E-02 
664	 8.85200001914671E-02 
665	 8.80632178569002E-02 
666	 8.76252715629729E-02 
667	 8.73964227426519E-02 
668	 8.72383710368725E-02 
669	 8.71677237015806E-02 
670	 8.73361685488043E-02 
671	 8.74993122247761E-02 
672	 8.78226611889012E-02 
673	 8.83758876532495E-02 
674	 8.88356064034135E-02 
675	 0.089446117644945 
676	 9.03057797746886E-02 
677	 0.091389961032349 
678	 9.23234052788802E-02 
679	 9.35413722636001E-02 
680	 9.50500793260952E-02 
681	 9.63827029703844E-02 
682	 9.80940097303114E-02 
683	 9.99824316360122E-02 
684	 0.101894874340227 
685	 0.104130997240612 
686	 0.10721125122229 
687	 0.11101899662758 
688	 0.114665710146547 
689	 0.117708742980186 
690	 0.120876275004758 
691	 0.124645178248439 
692	 0.128824516707117 
693	 0.133472940712736 
694	 0.138572625475696 
695	 0.14402371939589 
696	 0.149714907920488 
697	 0.155578170183843 
698	 0.161588176047109 
699	 0.16767508925504 
700	 0.173590523529429 
701	 0.17961524187334 
702	 0.185671757532975 
703	 0.1912094727638 
704	 0.196679950540954 
705	 0.201964095580212 
706	 0.207033556961014 
707	 0.212273821024393 
708	 0.217412897009323 
709	 0.222364237933762 
710	 0.227117664086146 
711	 0.23179946650616 
712	 0.236313041932479 
713	 0.240691391678848 
714	 0.245130611023185 
715	 0.249224512095984 
716	 0.253103905205057 
717	 0.257109997210653 
718	 0.261474524477839 
719	 0.265695448714595 
720	 0.269461090031548 
721	 0.272731989464913 
722	 0.275429355918556 
723	 0.278098794184017 
724	 0.281020641216192 
725	 0.283825719596257 
726	 0.286421344616092 
727	 0.288823663813984 
728	 0.291153763139163 
729	 0.293504275193514 
730	 0.295561664051632 
731	 0.297410256106502 
732	 0.299234382512762 
733	 0.300723090493943 
734	 0.30216707078046 
735	 0.30366100895242 
736	 0.305063113298136 
737	 0.306389685232938 
738	 0.30764458689142 
739	 0.308808995576236 
740	 0.309752710116529 
741	 0.310646635592083 
742	 0.311384613358771 
743	 0.31183205875765 
744	 0.31216857766406 
745	 0.312539969318435 
746	 0.31288384486322 
747	 0.3130215921985 
748	 0.31337393467993 
749	 0.313606357177377 
750	 0.313614690857696 
751	 0.313854690056853 
752	 0.313927314995085 
753	 0.313822559208558 
754	 0.313665442637078 
755	 0.313638525828014 
756	 0.31351115557952 
757	 0.313322438948564 
758	 0.313398776069291 
759	 0.31507653854096 
760	 0.318470197963844 
761	 0.321986805777501 
762	 0.320525349712954 
763	 0.319050779335641 
764	 0.317856385564199 
765	 0.31646991966985 
766	 0.315021771612326 
767	 0.313879092921579 
768	 0.313162833431247 
769	 0.312846818805942 
770	 0.312461457721867 
771	 0.312335086650277 
772	 0.31240592319183 
773	 0.312285503763305 
774	 0.312230136465382 
775	 0.312272495586512 
776	 0.312323050511169 
777	 0.312136234037302 
778	 0.312187570470525 
779	 0.312331623981254 
780	 0.312333235049264 
781	 0.312296384646139 
782	 0.312363694124198 
783	 0.312507242645415 
784	 0.312611779016102 
785	 0.312711830478265 
786	 0.312704340630677 
787	 0.312664185929404 
788	 0.312842024948114 
789	 0.312984528791378 
790	 0.3130490256987 
791	 0.313087093658506 
792	 0.313246210206118 
793	 0.313619298252618 
794	 0.313922558159913 
795	 0.313927301840827 
796	 0.314147923599195 
797	 0.314247444397458 
798	 0.31425661066194 
799	 0.314401327117509 
800	 0.314537686010185 
801	 0.314678725247846 
802	 0.314836195909557 
803	 0.315007770600674 
804	 0.315216858339854 
805	 0.315427993428106 
806	 0.315609995641952 
807	 0.315766935202793 
808	 0.315933839181576 
809	 0.316005407812032 
810	 0.315910358506058 
811	 0.315894168769071 
812	 0.315737718536146 
813	 0.315575311522029 
814	 0.315675420787996 
815	 0.315564852536904 
816	 0.315650110646355 
817	 0.316034108077513 
818	 0.316386367424762 
819	 0.316456079238842 
820	 0.316488695472109 
821	 0.316739977055837 
822	 0.317337822320901 
823	 0.317625182601477 
824	 0.317541045929975 
825	 0.317354317277797 
826	 0.317664657186055 
827	 0.317972464531801 
828	 0.318205898095368 
829	 0.318420849106051 
830	 0.318357001108076 
831	 0.318562013847426 
832	 0.319013412293811 
833	 0.319270072219929 
834	 0.319498571324912 
835	 0.319674813383652 
836	 0.319799169168643 
837	 0.319925329500382 
838	 0.320260430271032 
839	 0.320588198871052 
840	 0.320756185373733 
841	 0.32090857776156 
842	 0.321051546903052 
843	 0.321231895649637 
844	 0.321443259042925 
845	 0.321511493441328 
846	 0.321352025082839 
847	 0.321270813148196 
848	 0.321611349043827 
849	 0.321943282817854 
850	 0.322190765219822 
851	 0.322345287465694 
852	 0.322458619123825 
853	 0.322613338417204 
854	 0.322980265976291 
855	 0.323351067651875 
856	 0.323163731708868 
857	 0.322930447900103 
858	 0.322967123643065 
859	 0.323281911563982 
860	 0.323489489486208 
861	 0.323849141877226 
862	 0.323989276989931 
863	 0.323736406088866 
864	 0.323740901929412 
865	 0.324333714620275 
866	 0.324997108147471 
867	 0.325064073854787 
868	 0.324655178706335 
869	 0.324464192763196 
870	 0.324622368637494 
871	 0.324916237767984 
872	 0.32511216824082 
873	 0.325193819716443 
874	 0.325323666040604 
875	 0.325689274900355 
876	 0.325770054881848 
877	 0.325719574084682 
878	 0.325742919913606 
879	 0.325979501893379 
880	 0.326102805735709 
881	 0.326232134598071 
882	 0.326427413830066 
883	 0.32657156904836 
884	 0.326414151606594 
885	 0.326546828194511 
886	 0.326984217185424 
887	 0.326424062783045 
888	 0.326546521615117 
889	 0.326884409929977 
890	 0.326829689281975 
891	 0.326894070602163 
892	 0.326850667813312 
893	 0.326825922190665 
894	 0.326909390966538 
895	 0.326625647997182 
896	 0.326788453458833 
897	 0.327020832887301 
898	 0.326720330752961 
899	 0.326876787286496 
900	 0.327318626737798 
901	 0.32742100457231 
902	 0.326720347428678 
903	 0.326542702172077 
904	 0.326434095859879 
905	 0.326702199473192 
906	 0.327837241550411 
907	 0.328096460245638 
908	 0.328013357945829 
909	 0.327671225609069 
910	 0.326847878246434 
911	 0.32713144538421 
912	 0.327324037653883 
913	 0.327205861621016 
914	 0.327691514273229 
915	 0.328090761518858 
916	 0.32790490329323 
917	 0.327514477001672 
918	 0.328044949862819 
919	 0.328087784975097 
920	 0.328132166781216 
921	 0.328451322459638 
922	 0.328662281407112 
923	 0.328332593951925 
924	 0.327846712895517 
925	 0.327646684510829 
926	 0.327926565591549 
927	 0.326940292085447 
928	 0.326015423457929 
929	 0.326150519565729 
930	 0.326259712660481 
931	 0.326393829769251 
932	 0.325941724432839 
933	 0.324913941694738 
934	 0.324954477992043 
935	 0.323943047250239 
936	 0.322848914229047 
937	 0.322271927650115 
938	 0.320532098789296 
939	 0.319956345834817 
940	 0.319977217262857 
941	 0.320125113425628 
942	 0.321370261994906 
943	 0.323658183415011 
944	 0.324229795024056 
945	 0.321909079688767 
946	 0.320313570195581 
947	 0.321302232935991 
948	 0.321385555249649 
949	 0.31940784285036 
950	 0.32194945681562 
951	 0.320706272532618 
952	 0.319467080986683 
953	 0.321106966602274 
954	 0.320377683111707 
955	 0.320706957939867 
956	 0.321157781335804 
957	 0.32069725752559 
958	 0.320214457726647 
959	 0.319768460461915 
960	 0.320452047340897 
961	 0.321923379798784 
962	 0.321161916492188 
963	 0.322263490022981 
964	 0.32306756547191 
965	 0.321999217854363 
966	 0.320813362799175 
967	 0.321458590767766 
968	 0.322542911371424 
969	 0.322733009436543 
970	 0.322135592081534 
971	 0.322412051083975 
972	 0.323057108033988 
973	 0.32358468217306 
974	 0.324213297811843 
975	 0.324861847322661 
976	 0.32494829605817 
977	 0.324338318017252 
978	 0.323646920511037 
979	 0.324209305795192 
980	 0.324045508365506 
981	 0.323568409419872 
982	 0.325589918617966 
983	 0.325001161074822 
984	 0.324456320942036 
985	 0.325268322689765 
986	 0.326326579602204 
987	 0.325966888562588 
988	 0.325788357498627 
989	 0.32638689768923 
990	 0.327154959064106 
991	 0.327326675622104 
992	 0.328069596981854 
993	 0.327923727504179 
994	 0.325287087645842 
995	 0.326476937412652 
996	 0.32845927973676 
997	 0.329112517569548 
998	 0.328088210941574 
999	 0.328857997162553 
1000	 0.327197340023372 
1001	 0.338963972985298 
1002	 0.339071551208732 
1003	 0.339163130915239 
1004	 0.339143499876509 
1005	 0.339285317827536 
1006	 0.339445594915393 
1007	 0.339623206166569 
1008	 0.340003456602111 
1009	 0.340211067614665 
1010	 0.340311382924538 
1011	 0.34033800865898 
1012	 0.340470862225576 
1013	 0.34057514814711 
1014	 0.340723290799236 
1015	 0.341008340613179 
1016	 0.34144691238078 
1017	 0.341857142532162 
1018	 0.342110795766018 
1019	 0.342373694493212 
1020	 0.342511514241271 
1021	 0.342375239128434 
1022	 0.342401237552319 
1023	 0.342432530845801 
1024	 0.342548256579461 
1025	 0.342689567214347 
1026	 0.342828277887741 
1027	 0.343014721673372 
1028	 0.343142456377265 
1029	 0.343246522820678 
1030	 0.343411999589425 
1031	 0.343412869297121 
1032	 0.343359895921623 
1033	 0.343409488953672 
1034	 0.343447448031819 
1035	 0.343504370562173 
1036	 0.343722739835739 
1037	 0.34378857286785 
1038	 0.343773210728843 
1039	 0.343696045896451 
1040	 0.343696666768763 
1041	 0.343834763170945 
1042	 0.343900667534633 
1043	 0.344006880318574 
1044	 0.344144097548896 
1045	 0.344134232265519 
1046	 0.344183285104881 
1047	 0.344153169870754 
1048	 0.344050640768499 
1049	 0.344126781574203 
1050	 0.344192613683309 
1051	 0.344294630951126 
1052	 0.344433538228143 
1053	 0.344605030633781 
1054	 0.344697112383991 
1055	 0.344932027251018 
1056	 0.345213344186278 
1057	 0.345279591327576 
1058	 0.345283245915858 
1059	 0.345301356657564 
1060	 0.345422232052147 
1061	 0.345691138280616 
1062	 0.345960130564739 
1063	 0.346141083737508 
1064	 0.346250905384933 
1065	 0.346384389372838 
1066	 0.346528492007248 
1067	 0.346702574994647 
1068	 0.346831620144148 
1069	 0.346887922605947 
1070	 0.346933343146815 
1071	 0.347044140860528 
1072	 0.347233181859609 
1073	 0.347500729068151 
1074	 0.347587224961311 
1075	 0.347590649594243 
1076	 0.347719271173894 
1077	 0.347781350887156 
1078	 0.34782414453103 
1079	 0.34793868998937 
1080	 0.348025848364854 
1081	 0.348075961200483 
1082	 0.348046279244595 
1083	 0.348114237077495 
1084	 0.348181594260619 
1085	 0.348132187567678 
1086	 0.348068176290735 
1087	 0.348037436160665 
1088	 0.348055296606793 
1089	 0.348074967808396 
1090	 0.348051453411463 
1091	 0.347976334387558 
1092	 0.34800288018634 
1093	 0.348090105566129 
1094	 0.348015089139746 
1095	 0.347975187658927 
1096	 0.347884240946064 
1097	 0.347605520364717 
1098	 0.347374106148884 
1099	 0.347171591043349 
1100	 0.347011602769779 
1101	 0.346757810689601 
1102	 0.346497616418816 
1103	 0.346254809843544 
1104	 0.346124360215453 
1105	 0.345904947377716 
1106	 0.345654857592526 
1107	 0.345420095142194 
1108	 0.345002826921031 
1109	 0.34445749888652 
1110	 0.34387702024819 
1111	 0.343295317940609 
1112	 0.342610866854523 
1113	 0.341930970996348 
1114	 0.341214419774131 
1115	 0.340430959450343 
1116	 0.339583442594251 
1117	 0.338644206690022 
1118	 0.33764325150241 
1119	 0.336894022900738 
1120	 0.336186112850469 
1121	 0.335518107694965 
1122	 0.334961366544151 
1123	 0.334516550164348 
1124	 0.334017503982921 
1125	 0.333460108088725 
1126	 0.333068641196299 
1127	 0.332680722428939 
1128	 0.332502366249775 
1129	 0.332662139719379 
1130	 0.332582495524068 
1131	 0.332446943488943 
1132	 0.332388447222948 
1133	 0.332316226829817 
1134	 0.332290238950437 
1135	 0.332174564552577 
1136	 0.331843440075316 
1137	 0.331406428179164 
1138	 0.330884492743398 
1139	 0.330281002915009 
1140	 0.329675595928904 
1141	 0.329012874398505 
1142	 0.328218393540933 
1143	 0.327424110920358 
1144	 0.326578772750048 
1145	 0.325839394364443 
1146	 0.325010025576883 
1147	 0.324338684934199 
1148	 0.323766207250082 
1149	 0.32330222110358 
1150	 0.322962331390531 
1151	 0.322694291475822 
1152	 0.322494226155321 
1153	 0.322459192632798 
1154	 0.322486734967664 
1155	 0.322466303938962 
1156	 0.322559910261963 
1157	 0.322722937742641 
1158	 0.322748195344973 
1159	 0.322785154194362 
1160	 0.322835527610964 
1161	 0.322840450980168 
1162	 0.322881290572446 
1163	 0.322996871929106 
1164	 0.323048271119702 
1165	 0.323091810700368 
1166	 0.3230775546295 
1167	 0.322983161876246 
1168	 0.322949665089838 
1169	 0.322908255941067 
1170	 0.322877011828957 
1171	 0.322894430448768 
1172	 0.322938191175207 
1173	 0.322903511377805 
1174	 0.322947445336729 
1175	 0.322996898220923 
1176	 0.322863297263884 
1177	 0.32274688711623 
1178	 0.322560397818858 
1179	 0.322423152971781 
1180	 0.322249464073338 
1181	 0.322147109151809 
1182	 0.322120358801021 
1183	 0.322037431158915 
1184	 0.321954631628821 
1185	 0.321858502478705 
1186	 0.321702715819837 
1187	 0.321615635877589 
1188	 0.321540413862111 
1189	 0.321513581429317 
1190	 0.321514247700549 
1191	 0.321527414120373 
1192	 0.321598939870377 
1193	 0.321632678866609 
1194	 0.321625974790758 
1195	 0.321596942191533 
1196	 0.321605811796785 
1197	 0.32158478457888 
1198	 0.321558753947644 
1199	 0.321569929762034 
1200	 0.321599604798504 
1201	 0.321578252537423 
1202	 0.3216070088682 
1203	 0.321698804208148 
1204	 0.321768385170504 
1205	 0.321875380483672 
1206	 0.321929220293996 
1207	 0.321918832839591 
1208	 0.321990009012884 
1209	 0.322065756911616 
1210	 0.322119930072499 
1211	 0.322297436547649 
1212	 0.32247382340399 
1213	 0.322619482835401 
1214	 0.322754661367628 
1215	 0.322860424622235 
1216	 0.322918851570858 
1217	 0.323069525303631 
1218	 0.323252540183727 
1219	 0.32339673439717 
1220	 0.323597333223117 
1221	 0.323737246158917 
1222	 0.323768588960325 
1223	 0.323887055180432 
1224	 0.324067249827133 
1225	 0.324220930341165 
1226	 0.324426270643021 
1227	 0.324563609310208 
1228	 0.324631753453687 
1229	 0.324700515567225 
1230	 0.324877768776082 
1231	 0.325018776143584 
1232	 0.325199613123533 
1233	 0.325478981471602 
1234	 0.325668798357539 
1235	 0.325828674484557 
1236	 0.325968562992149 
1237	 0.32606774367605 
1238	 0.326213981691134 
1239	 0.326367660804162 
1240	 0.326479795698823 
1241	 0.326634820705175 
1242	 0.326725708814351 
1243	 0.32669413424407 
1244	 0.326754458858876 
1245	 0.326862361369974 
1246	 0.326938132504625 
1247	 0.327031810358222 
1248	 0.327118090361574 
1249	 0.327220074900035 
1250	 0.327255222978444 
1251	 0.327238757611649 
1252	 0.327231061822468 
1253	 0.327261725630108 
1254	 0.327259200439069 
1255	 0.327281433148236 
1256	 0.32739210799714 
1257	 0.327417630437075 
1258	 0.327386785718186 
1259	 0.327350587434945 
1260	 0.327249730238273 
1261	 0.327250149508533 
1262	 0.327275538263402 
1263	 0.327305089394104 
1264	 0.327454609830307 
1265	 0.327506055091964 
1266	 0.327514187050704 
1267	 0.32747621745737 
1268	 0.327311795721552 
1269	 0.327269021518022 
1270	 0.327200765678481 
1271	 0.327216454416839 
1272	 0.327347858584662 
1273	 0.327539271956829 
1274	 0.32764457501265 
1275	 0.327760793597827 
1276	 0.327829657356451 
1277	 0.327828282714382 
1278	 0.327893194437884 
1279	 0.327989059644897 
1280	 0.328032622681002 
1281	 0.328070453233093 
1282	 0.32811124249509 
1283	 0.328101952476007 
1284	 0.328136596063848 
1285	 0.328242074295853 
1286	 0.328270440250943 
1287	 0.328312071550624 
1288	 0.328263811469515 
1289	 0.328051116607485 
1290	 0.327982121206901 
1291	 0.327973032468229 
1292	 0.327903321363178 
1293	 0.327925946237743 
1294	 0.327868284087851 
1295	 0.327736608478979 
1296	 0.32751023890906 
1297	 0.327351142031999 
1298	 0.327230863341659 
1299	 0.326987775226864 
1300	 0.326690638613209 
1301	 0.326399447138809 
1302	 0.326023561604585 
1303	 0.325686273915153 
1304	 0.325370715740798 
1305	 0.325045813836701 
1306	 0.324683735559397 
1307	 0.324362033364876 
1308	 0.324141281156205 
1309	 0.323766159586996 
1310	 0.323369294524686 
1311	 0.322871999055249 
1312	 0.322200158112119 
1313	 0.321582500739797 
1314	 0.320902482004224 
1315	 0.320265051340054 
1316	 0.319731229949646 
1317	 0.319067731203247 
1318	 0.318331407166804 
1319	 0.317598077417146 
1320	 0.316789196774832 
1321	 0.315909268621924 
1322	 0.31512629544954 
1323	 0.314427902553921 
1324	 0.313568192662777 
1325	 0.31264507718552 
1326	 0.311721909019638 
1327	 0.310653949829555 
1328	 0.309681778095545 
1329	 0.308830776642835 
1330	 0.307776967277687 
1331	 0.306556227417714 
1332	 0.305515330608802 
1333	 0.30446717684603 
1334	 0.303448501944632 
1335	 0.302613015396482 
1336	 0.301683024796414 
1337	 0.300574651314201 
1338	 0.299630190351801 
1339	 0.298759312315849 
1340	 0.297859393681238 
1341	 0.296989799089837 
1342	 0.296042941029647 
1343	 0.294839744488634 
1344	 0.293701009164891 
1345	 0.292456754146243 
1346	 0.291045810684609 
1347	 0.289552950592097 
1348	 0.288256048932123 
1349	 0.286694563265803 
1350	 0.284976205514887 
1351	 0.283065545416755 
1352	 0.280827139081427 
1353	 0.278909358857295 
1354	 0.278535667782332 
1355	 0.276431491773689 
1356	 0.275951614313256 
1357	 0.273240642467442 
1358	 0.263925117615734 
1359	 0.259105475746444 
1360	 0.270179720448111 
1361	 0.271441585721699 
1362	 0.282782983164424 
1363	 0.282942978277155 
1364	 0.245249793984153 
1365	 0.225022769860033 
1366	 0.214658029546106 
1367	 0.210799233388293 
1368	 0.219708433544532 
1369	 0.221452059378287 
1370	 0.224844327351523 
1371	 0.226064861993531 
1372	 0.224556569384109 
1373	 0.223496307527259 
1374	 0.218528193538941 
1375	 0.22269803275466 
1376	 0.226023721617844 
1377	 0.22319852323735 
1378	 0.22075462322396 
1379	 0.217440728493667 
1380	 0.213233436762564 
1381	 0.206595843581521 
1382	 0.20185728558192 
1383	 0.197100086885076 
1384	 0.194830260464499 
1385	 0.19573880591098 
1386	 0.191950697488719 
1387	 0.18705204947351 
1388	 0.185167560959416 
1389	 0.183032844462992 
1390	 0.180308677439334 
1391	 0.178318223230892 
1392	 0.177890632700432 
1393	 0.177269836365666 
1394	 0.17576409740017 
1395	 0.177688254844969 
1396	 0.175543900055522 
1397	 0.167701295643918 
1398	 0.164945371312775 
1399	 0.163738642642767 
1400	 0.162031253809714 
1401	 0.163778504835161 
1402	 0.162485921095258 
1403	 0.158603361438662 
1404	 0.155955990314893 
1405	 0.152747594155412 
1406	 0.150467397843693 
1407	 0.149421073457846 
1408	 0.148482811444367 
1409	 0.148975985542681 
1410	 0.149245937761735 
1411	 0.148572102732438 
1412	 0.147905708195562 
1413	 0.147035354764313 
1414	 0.145218555567219 
1415	 0.14477240539109 
1416	 0.145059946214534 
1417	 0.144844784620205 
1418	 0.144725631439002 
1419	 0.144591267593185 
1420	 0.144385919105937 
1421	 0.143952306672706 
1422	 0.143515287179773 
1423	 0.143183388702075 
1424	 0.142554553733194 
1425	 0.142307362926086 
1426	 0.1426192864886 
1427	 0.142247128143856 
1428	 0.141462203972141 
1429	 0.141084120818936 
1430	 0.140505219795692 
1431	 0.14010464896826 
1432	 0.140208479670596 
1433	 0.139974407468433 
1434	 0.139360798335043 
1435	 0.13908693283494 
1436	 0.138977992838894 
1437	 0.138744500875681 
1438	 0.138523711481992 
1439	 0.138463136339593 
1440	 0.13822558095169 
1441	 0.138299341562711 
1442	 0.138790337631102 
1443	 0.139145750558706 
1444	 0.139322530021557 
1445	 0.139587906331932 
1446	 0.139566627117523 
1447	 0.139533320445241 
1448	 0.139654729896162 
1449	 0.139752636665315 
1450	 0.140154993165117 
1451	 0.140784182119516 
1452	 0.141124071522344 
1453	 0.141567250885947 
1454	 0.141799585829681 
1455	 0.141753641611078 
1456	 0.141936656725105 
1457	 0.142242727124404 
1458	 0.142446788814281 
1459	 0.142672563251573 
1460	 0.142854745308949 
1461	 0.142982801144412 
1462	 0.143112266850523 
1463	 0.143260068456663 
1464	 0.143370899271251 
1465	 0.143338738227213 
1466	 0.143548535766424 
1467	 0.14385844675549 
1468	 0.144213403476271 
1469	 0.144743211510907 
1470	 0.14525075825943 
1471	 0.145591602070572 
1472	 0.146241284122049 
1473	 0.147179788702483 
1474	 0.147909115523218 
1475	 0.148685466169638 
1476	 0.149401051337818 
1477	 0.149864347209255 
1478	 0.150512423294925 
1479	 0.151230981047227 
1480	 0.15200105481683 
1481	 0.152860822990037 
1482	 0.153697988399397 
1483	 0.15451543405097 
1484	 0.155398503106878 
1485	 0.156302121065669 
1486	 0.157176850508267 
1487	 0.158051964480929 
1488	 0.158965134014707 
1489	 0.159792048023352 
1490	 0.160603844781065 
1491	 0.161501773406499 
1492	 0.162442628575562 
1493	 0.163437061867022 
1494	 0.164453166733161 
1495	 0.165338880862088 
1496	 0.16620374611946 
1497	 0.167020784137577 
1498	 0.167759251307288 
1499	 0.168551484893853 
1500	 0.169349179435762 
1501	 0.170189191673999 
1502	 0.171054110066121 
1503	 0.171918986134041 
1504	 0.172829416388388 
1505	 0.173718123473227 
1506	 0.174602409429585 
1507	 0.175452406902694 
1508	 0.176259607226528 
1509	 0.177127007971281 
1510	 0.178024034095143 
1511	 0.17886091575492 
1512	 0.17971077935302 
1513	 0.180558365584763 
1514	 0.181352576823956 
1515	 0.182173324715008 
1516	 0.183027637793299 
1517	 0.183907882203935 
1518	 0.184802474800883 
1519	 0.185670716940881 
1520	 0.186595942931789 
1521	 0.187457427214789 
1522	 0.188233993116477 
1523	 0.189068528270445 
1524	 0.189949504633271 
1525	 0.19076509182974 
1526	 0.191556425427934 
1527	 0.192368338686375 
1528	 0.193138916610303 
1529	 0.193942436808977 
1530	 0.194810885498069 
1531	 0.195620074902394 
1532	 0.196438912058315 
1533	 0.197190106944144 
1534	 0.19782614709041 
1535	 0.198567837522959 
1536	 0.199349188586983 
1537	 0.200081556584583 
1538	 0.200843224620429 
1539	 0.201608110652966 
1540	 0.202311664549994 
1541	 0.203046916788061 
1542	 0.203869287812207 
1543	 0.204627755802248 
1544	 0.205327827209105 
1545	 0.206047155069103 
1546	 0.206781966487816 
1547	 0.207472710765995 
1548	 0.208123397741244 
1549	 0.20880637513993 
1550	 0.209475730093616 
1551	 0.210150838274295 
1552	 0.210859841771742 
1553	 0.211561426357007 
1554	 0.212265683736368 
1555	 0.212939717328441 
1556	 0.213608953584099 
1557	 0.214268462080119 
1558	 0.214892339976092 
1559	 0.215515255151711 
1560	 0.216133511403249 
1561	 0.216757513200944 
1562	 0.217383575703453 
1563	 0.218002534191511 
1564	 0.218672294412417 
1565	 0.21926212468168 
1566	 0.219793107953062 
1567	 0.220384936908311 
1568	 0.221007840327087 
1569	 0.221655627896605 
1570	 0.222242996573218 
1571	 0.222841586545358 
1572	 0.223477608340321 
1573	 0.224058843129252 
1574	 0.224698681419388 
1575	 0.225465473000114 
1576	 0.226031848178952 
1577	 0.226491882717978 
1578	 0.226972102631135 
1579	 0.227351614436723 
1580	 0.227854052978568 
1581	 0.22841208781371 
1582	 0.228902417602298 
1583	 0.229402036673199 
1584	 0.229910363709289 
1585	 0.230406184000496 
1586	 0.230838605403176 
1587	 0.231271564218109 
1588	 0.231708699212229 
1589	 0.232058153174098 
1590	 0.23250122186921 
1591	 0.233017429174613 
1592	 0.233522538101887 
1593	 0.234052967511712 
1594	 0.234520839246046 
1595	 0.235015204606823 
1596	 0.235434456223192 
1597	 0.235755076318242 
1598	 0.236142830485174 
1599	 0.236528055972177 
1600	 0.236940035190532 
1601	 0.237352466258462 
1602	 0.237835958985516 
1603	 0.238397932121348 
1604	 0.238857361990491 
1605	 0.239345043760364 
1606	 0.239739904030205 
1607	 0.239997216090349 
1608	 0.240369421296406 
1609	 0.240767437755064 
1610	 0.241145696815631 
1611	 0.241585072401881 
1612	 0.241895377416195 
1613	 0.242120372895417 
1614	 0.242389306463946 
1615	 0.242544658427196 
1616	 0.242903844047571 
1617	 0.243384298658529 
1618	 0.243817541541298 
1619	 0.244399544265361 
1620	 0.244754892005981 
1621	 0.245001310311296 
1622	 0.245233555264751 
1623	 0.245304319858486 
1624	 0.245578135456584 
1625	 0.245946335931661 
1626	 0.246206375375167 
1627	 0.246546709104758 
1628	 0.246735961488374 
1629	 0.246708462327718 
1630	 0.24698203967927 
1631	 0.247391527654143 
1632	 0.247641356352384 
1633	 0.247970388638783 
1634	 0.248227590735108 
1635	 0.248283244746695 
1636	 0.248577213225309 
1637	 0.249064205684023 
1638	 0.249374330852012 
1639	 0.249674776056481 
1640	 0.249916597540544 
1641	 0.250084886699645 
1642	 0.250240982202168 
1643	 0.250325856509881 
1644	 0.25054798358757 
1645	 0.250797152092354 
1646	 0.250994400105898 
1647	 0.251294141253584 
1648	 0.251449157035229 
1649	 0.251491372589551 
1650	 0.251554639096145 
1651	 0.251520065593865 
1652	 0.25171264264782 
1653	 0.251964854805362 
1654	 0.252208572654105 
1655	 0.252692460771784 
1656	 0.25281896928784 
1657	 0.252754374247631 
1658	 0.252684984560048 
1659	 0.252572564280928 
1660	 0.252634374687961 
1661	 0.252658800399761 
1662	 0.252748136218185 
1663	 0.252963994025908 
1664	 0.25313850878573 
1665	 0.25322599972664 
1666	 0.253306515998049 
1667	 0.253272498386448 
1668	 0.25326782779829 
1669	 0.253412624909666 
1670	 0.253385667713565 
1671	 0.25331366241534 
1672	 0.253226541464935 
1673	 0.253110014867473 
1674	 0.253152160696752 
1675	 0.253263936834469 
1676	 0.253426048647344 
1677	 0.253479919859202 
1678	 0.253531486035638 
1679	 0.253705451421726 
1680	 0.253696656137759 
1681	 0.253641633840549 
1682	 0.253585367261221 
1683	 0.253430263399906 
1684	 0.253352979134288 
1685	 0.253369740956319 
1686	 0.253410449321406 
1687	 0.253470250800888 
1688	 0.253513021928486 
1689	 0.253513921724942 
1690	 0.253553354162268 
1691	 0.253433564181032 
1692	 0.253099891897439 
1693	 0.252942610785509 
1694	 0.252761802962161 
1695	 0.252633160209953 
1696	 0.252687822365596 
1697	 0.252706077370433 
1698	 0.252686436774192 
1699	 0.252598462567164 
1700	 0.252604434049879 
1701	 0.252410141527103 
1702	 0.25199076128262 
1703	 0.2517281347418 
1704	 0.251389451771672 
1705	 0.251124177184506 
1706	 0.251010003710404 
1707	 0.250827172096993 
1708	 0.250566640053197 
1709	 0.250406033772594 
1710	 0.250363223762059 
1711	 0.25013511161648 
1712	 0.249835720921889 
1713	 0.249599816674976 
1714	 0.24928880123232 
1715	 0.249017821582502 
1716	 0.248924594664554 
1717	 0.248616050241271 
1718	 0.248128861268777 
1719	 0.247694650924009 
1720	 0.247132750971119 
1721	 0.246722560806043 
1722	 0.246308399629131 
1723	 0.246057547308495 
1724	 0.246072577313597 
1725	 0.245782117560434 
1726	 0.245515296462286 
1727	 0.245157025771084 
1728	 0.244505464108055 
1729	 0.244016651249701 
1730	 0.243619585327906 
1731	 0.243245726783311 
1732	 0.242844832831248 
1733	 0.242496301330373 
1734	 0.242125844723627 
1735	 0.241861844849297 
1736	 0.241693900662689 
1737	 0.241509602095975 
1738	 0.24129703707657 
1739	 0.240884349842389 
1740	 0.240320550729732 
1741	 0.239883571986168 
1742	 0.239392528277724 
1743	 0.238964110887562 
1744	 0.238738950118987 
1745	 0.238321176028765 
1746	 0.237731953665608 
1747	 0.237112490243476 
1748	 0.236320682722728 
1749	 0.235630888817322 
1750	 0.235403052546847 
1751	 0.235225179205908 
1752	 0.234917854282238 
1753	 0.234715808906006 
1754	 0.234294249742779 
1755	 0.233608511613785 
1756	 0.232973913803421 
1757	 0.232086151090064 
1758	 0.231429620706889 
1759	 0.231018212802517 
1760	 0.230449626071313 
1761	 0.229846625985233 
1762	 0.229385492481299 
1763	 0.228924537951093 
1764	 0.228414301963309 
1765	 0.228036118662243 
1766	 0.227567786395693 
1767	 0.226855877221512 
1768	 0.226376951136899 
1769	 0.226132153390875 
1770	 0.225747163145547 
1771	 0.225469461537227 
1772	 0.224909910348703 
1773	 0.224074087902997 
1774	 0.223192309042487 
1775	 0.222365807700883 
1776	 0.221928908420227 
1777	 0.221669435014302 
1778	 0.221537639604283 
1779	 0.22147040344533 
1780	 0.221253467392533 
1781	 0.220878042100081 
1782	 0.220648250140877 
1783	 0.220475036315424 
1784	 0.220231574011846 
1785	 0.220139978892252 
1786	 0.21955493693371 
1787	 0.218721426602817 
1788	 0.218114193637781 
1789	 0.217396178829726 
1790	 0.216922148525618 
1791	 0.216987809732507 
1792	 0.216792402206576 
1793	 0.216504554395635 
1794	 0.216596367959356 
1795	 0.215848543207232 
1796	 0.214669401525011 
1797	 0.213702182021511 
1798	 0.21280851833629 
1799	 0.212395839026604 
1800	 0.212767626000858 
1801	 0.214301476035612 
1802	 0.212640372225817 
1803	 0.211902688510919 
1804	 0.210887550985003 
1805	 0.210282388833357 
1806	 0.210753855404149 
1807	 0.210785627273757 
1808	 0.211283523183758 
1809	 0.210596259336912 
1810	 0.210578384153825 
1811	 0.210821527528336 
1812	 0.210645613896536 
1813	 0.210402142680037 
1814	 0.209921694497802 
1815	 0.209437081460428 
1816	 0.20806842133138 
1817	 0.205333514670262 
1818	 0.202939539373764 
1819	 0.200141921709552 
1820	 0.194942738463571 
1821	 0.193854099603323 
1822	 0.196862441726484 
1823	 0.196930496890274 
1824	 0.198094343964257 
1825	 0.199952344167777 
1826	 0.199963351249373 
1827	 0.201545113084242 
1828	 0.205093799869619 
1829	 0.216415955251172 
1830	 0.224516664245008 
1831	 0.234135842512572 
1832	 0.240886448948878 
1833	 0.245824265962368 
1834	 0.24619320269602 
1835	 0.196975771179847 
1836	 0.192183652126702 
1837	 0.254644598376954 
1838	 0.282567465249742 
1839	 0.312284267020075 
1840	 0.398757108993061 
1841	 0.390930782363532 
1842	 0.263315579529344 
1843	 0.245689003056729 
1844	 0.261931795854266 
1845	 0.254214033735186 
1846	 0.272336160418785 
1847	 0.278517064023077 
1848	 0.2736146583123 
1849	 0.23289540966797 
1850	 0.211272271680577 
1851	 0.201778124057242 
1852	 0.185400666824213 
1853	 0.151806175024782 
1854	 0.142269673816865 
1855	 0.1642430899286 
1856	 0.15537257142177 
1857	 0.124630742626328 
1858	 0.116384858802809 
1859	 0.126212621928445 
1860	 0.147582335139433 
1861	 0.141637903417299 
1862	 0.143990792392184 
1863	 0.143882617819864 
1864	 9.94134838546688E-02 
1865	 9.33329281214251E-02 
1866	 0.132289858978311 
1867	 0.157357652074975 
1868	 0.169254526836764 
1869	 0.181522452421157 
1870	 0.188999215468967 
1871	 0.175913473397429 
1872	 0.178449759803857 
1873	 0.224795579254904 
1874	 0.199069631002206 
1875	 0.129790098341277 
1876	 0.11007102285272 
1877	 9.45046410321077E-02 
1878	 7.28984481244178E-02 
1879	 8.14777686945489E-02 
1880	 0.105111994975934 
1881	 0.110677568544024 
1882	 0.1147959086697 
1883	 0.113410074933669 
1884	 0.104876947214815 
1885	 0.102590145637171 
1886	 0.100943780775369 
1887	 9.91201619562842E-02 
1888	 9.94098981037976E-02 
1889	 9.28855735893295E-02 
1890	 0.088726358541513 
1891	 7.96171256918616E-02 
1892	 0.076389839707599 
1893	 0.07738295672522 
1894	 7.91618013122221E-02 
1895	 7.99361712272821E-02 
1896	 8.49902642512906E-02 
1897	 0.1049567815254 
1898	 0.11025878855026 
1899	 0.107846905024655 
1900	 0.119486743621618 
1901	 0.120824598509622 
1902	 0.103974304561428 
1903	 9.84488450181341E-02 
1904	 9.44582851519051E-02 
1905	 8.84714721227794E-02 
1906	 7.62410773811741E-02 
1907	 8.58793651251103E-02 
1908	 8.65371405295333E-02 
1909	 8.66376911252793E-02 
1910	 8.52013613628712E-02 
1911	 6.20264936277145E-02 
1912	 0.057622315997951 
1913	 5.07448059463006E-02 
1914	 5.50741862903106E-02 
1915	 6.99448068504141E-02 
1916	 7.36064745527702E-02 
1917	 7.47629426649555E-02 
1918	 7.78412199209564E-02 
1919	 7.50781978465877E-02 
1920	 7.26350340156869E-02 
1921	 7.81616168887068E-02 
1922	 7.81696986257624E-02 
1923	 7.68701233170012E-02 
1924	 7.59653184453803E-02 
1925	 7.58991029004695E-02 
1926	 0.07272355493108 
1927	 7.19565898450835E-02 
1928	 7.48318410433669E-02 
1929	 7.36471018774025E-02 
1930	 7.33717216021176E-02 
1931	 7.24842605472969E-02 
1932	 7.18994013055422E-02 
1933	 7.42866063785399E-02 
1934	 7.58431497444867E-02 
1935	 7.80376745339075E-02 
1936	 7.94654866734435E-02 
1937	 8.14735266805083E-02 
1938	 8.12016985101569E-02 
1939	 7.91121610176951E-02 
1940	 7.79097908229614E-02 
1941	 7.88635068978739E-02 
1942	 7.90768389937503E-02 
1943	 8.03267651341219E-02 
1944	 8.09968987547956E-02 
1945	 7.99395461349686E-02 
1946	 8.01017308022401E-02 
1947	 8.01043197530618E-02 
1948	 8.06333766199187E-02 
1949	 8.07401575102508E-02 
1950	 8.05838410885971E-02 
1951	 8.03963501299218E-02 
1952	 8.05166744243284E-02 
1953	 8.04915637964581E-02 
1954	 8.10746535405872E-02 
1955	 8.10033464227632E-02 
1956	 8.09554713809253E-02 
1957	 0.082127353399365 
1958	 8.34607466816662E-02 
1959	 8.55780119598812E-02 
1960	 8.64064629785133E-02 
1961	 8.72179285387046E-02 
1962	 8.78658117174956E-02 
1963	 8.63430914044887E-02 
1964	 8.60308963747177E-02 
1965	 8.70877432006755E-02 
1966	 8.73085393940817E-02 
1967	 8.88285439548222E-02 
1968	 8.96798957924099E-02 
1969	 8.99459465708534E-02 
1970	 8.96001549224673E-02 
1971	 0.089637305162659 
1972	 8.91846022919238E-02 
1973	 8.95761786247958E-02 
1974	 9.02005242752176E-02 
1975	 9.07124862455362E-02 
1976	 9.12289823466418E-02 
1977	 9.14370082885508E-02 
1978	 9.18779286760594E-02 
1979	 9.22196740016102E-02 
1980	 9.24784255197073E-02 
1981	 9.30224658804136E-02 
1982	 9.34884301364605E-02 
1983	 0.093857526797885 
1984	 9.43371191924625E-02 
1985	 9.50134226055806E-02 
1986	 9.54046782268592E-02 
1987	 0.096053339322644 
1988	 9.64972810658609E-02 
1989	 0.096781018122297 
1990	 9.75518888486725E-02 
1991	 9.80562981023422E-02 
1992	 9.82691333142696E-02 
1993	 9.83138425211105E-02 
1994	 9.85709629783059E-02 
1995	 9.90139789743715E-02 
1996	 9.97032974861174E-02 
1997	 0.100270919778053 
1998	 0.100876429950917 
1999	 0.101042320713736 
2000	 0.100631364378469 
2001	 0.100683958311671 
2002	 0.101274172480172 
2003	 0.102715421585126 
2004	 0.104489650388441 
2005	 0.10597528734117 
2006	 0.10666519771949 
2007	 0.106948794597149 
2008	 0.106486831413652 
2009	 0.10635876735963 
2010	 0.10606748902734 
2011	 0.106303070841092 
2012	 0.107221249281393 
2013	 0.107673023335723 
2014	 0.10832866094974 
2015	 0.109301461970178 
2016	 0.109636411419355 
2017	 0.109848219288403 
2018	 0.109913551639394 
2019	 0.110319128796689 
2020	 0.110869405644736 
2021	 0.111892635343974 
2022	 0.112399912581846 
2023	 0.112764355866789 
2024	 0.113242548606322 
2025	 0.113612318279536 
2026	 0.114172751469021 
2027	 0.114744421664427 
2028	 0.114854843349711 
2029	 0.114833613427568 
2030	 0.114839174902772 
2031	 0.115203541353468 
2032	 0.115521338420485 
2033	 0.1160632334325 
2034	 0.11633154931675 
2035	 0.116870231482352 
2036	 0.117424117624991 
2037	 0.117917903772145 
2038	 0.118628763420623 
2039	 0.119102456726562 
2040	 0.11933479555728 
2041	 0.119742024397705 
2042	 0.120493190114223 
2043	 0.121335892128485 
2044	 0.121980632773923 
2045	 0.122574126746982 
2046	 0.123188293989861 
2047	 0.123439355261549 
2048	 0.123509743384792 
2049	 0.123735793676025 
2050	 0.123466323654537 
2051	 0.123553115811912 
2052	 0.124020085243235 
2053	 0.123889889152972 
2054	 0.124317734605897 
2055	 0.125207615186658 
2056	 0.125509090603597 
2057	 0.126463881439368 
2058	 0.127027306710582 
2059	 0.127269972167846 
2060	 0.126868647770578 
2061	 0.127245759306591 
2062	 0.127227377469834 
2063	 0.127604977336426 
2064	 0.128350416196185 
2065	 0.128524761590961 
2066	 0.128965500772767 
2067	 0.129579308855935 
2068	 0.130183565242455 
2069	 0.130739418843594 
2070	 0.131386233586747 
2071	 0.131922305572606 
2072	 0.132294126415926 
2073	 0.132518073175471 
2074	 0.132968068064619 
2075	 0.133230726878148 
2076	 0.133207284652615 
2077	 0.133358693399025 
2078	 0.133721934287908 
2079	 0.134080207812954 
2080	 0.134669101739236 
2081	 0.135679548930923 
2082	 0.136077491039361 
2083	 0.136228898435148 
2084	 0.136665286131295 
2085	 0.136578948993103 
2086	 0.137027512620447 
2087	 0.137604141709619 
2088	 0.138526612964958 
2089	 0.138954015651934 
2090	 0.139635402786863 
2091	 0.139934901913238 
2092	 0.1398374237294 
2093	 0.140176258861297 
2094	 0.140679753583332 
2095	 0.141130408697135 
2096	 0.141856683996398 
2097	 0.142511212365927 
2098	 0.142799825232493 
2099	 0.143201174391289 
2100	 0.143929490341404 
2101	 0.144142751831039 
2102	 0.144259028896688 
2103	 0.144170952088885 
2104	 0.144661375051194 
2105	 0.144799227212964 
2106	 0.145101442191331 
2107	 0.146187173206829 
2108	 0.146691955392506 
2109	 0.146354264663182 
2110	 0.14645007051083 
2111	 0.147057472623831 
2112	 0.147717205830648 
2113	 0.14877847516873 
2114	 0.149813541012466 
2115	 0.1503103780561 
2116	 0.150394183240738 
2117	 0.150681654908347 
2118	 0.15098623628838 
2119	 0.151331065392579 
2120	 0.151671124021228 
2121	 0.152209416957395 
2122	 0.152488262665802 
2123	 0.153096636606014 
2124	 0.153775840572076 
2125	 0.153811765668312 
2126	 0.15389036757392 
2127	 0.154102521524123 
2128	 0.154321302320162 
2129	 0.154924515545407 
2130	 0.15603820363687 
2131	 0.156530431824073 
2132	 0.156739665720587 
2133	 0.157234858481115 
2134	 0.15757381822124 
2135	 0.157666826837915 
2136	 0.158117312227585 
2137	 0.158510506754262 
2138	 0.15848948960729 
2139	 0.158446685728033 
2140	 0.158632716601751 
2141	 0.158915021905696 
2142	 0.159510992287622 
2143	 0.16028617991307 
2144	 0.160423478849196 
2145	 0.16064690612654 
2146	 0.160925027829787 
2147	 0.160603845930849 
2148	 0.160483119146513 
2149	 0.160497650496214 
2150	 0.160559389377731 
2151	 0.160733605625294 
2152	 0.161294750387363 
2153	 0.161635008783513 
2154	 0.162054340520969 
2155	 0.161985032722866 
2156	 0.161967765525436 
2157	 0.162659410655801 
2158	 0.162853496526851 
2159	 0.162674236720562 
2160	 0.162690603905468 
2161	 0.16205327081999 
2162	 0.162207673601012 
2163	 0.163206574481127 
2164	 0.163658368213152 
2165	 0.164237617354793 
2166	 0.164162102003244 
2167	 0.163599821291029 
2168	 0.163554634613713 
2169	 0.163799878640424 
2170	 0.163878050848785 
2171	 0.164126643517658 
2172	 0.164374566818662 
2173	 0.164164497051634 
2174	 0.164247490096667 
2175	 0.164336475516577 
2176	 0.164198017971561 
2177	 0.164250886612347 
2178	 0.164039506311179 
2179	 0.16377715062135 
2180	 0.163885479070771 
2181	 0.163908581594554 
2182	 0.163872350132442 
2183	 0.163735057946017 
2184	 0.163727639406351 
2185	 0.164368414953708 
2186	 0.165219045393387 
2187	 0.165681291572332 
2188	 0.166229642477609 
2189	 0.166585621301487 
2190	 0.166588907719133 
2191	 0.166438916378515 
2192	 0.166639936469288 
2193	 0.166855164321267 
2194	 0.166599165648208 
2195	 0.166341300818671 
2196	 0.166141691901946 
2197	 0.165653838450463 
2198	 0.165317021576332 
2199	 0.165474662517713 
2200	 0.165004449549465 
2201	 0.164977986915563 
2202	 0.165374100617392 
2203	 0.165034608715631 
2204	 0.165438002912217 
2205	 0.165735604593585 
2206	 0.165781383680882 
2207	 0.166090164616295 
2208	 0.166062429850989 
2209	 0.165683788535153 
2210	 0.165560347673644 
2211	 0.165420119709021 
2212	 0.165147264233239 
2213	 0.164913383744802 
2214	 0.165161162516313 
2215	 0.165702672363095 
2216	 0.166035787424287 
2217	 0.166720681663103 
2218	 0.166919275631846 
2219	 0.166337444989682 
2220	 0.166143238512783 
2221	 0.165895022304858 
2222	 0.165678556864077 
2223	 0.16520989562675 
2224	 0.164554114673204 
2225	 0.164611404523371 
2226	 0.164606024419978 
2227	 0.164620951904521 
2228	 0.165269118765132 
2229	 0.165170204605571 
2230	 0.164455481266757 
2231	 0.164378801301984 
2232	 0.164955113024174 
2233	 0.164771655374641 
2234	 0.16450825891084 
2235	 0.16419271284596 
2236	 0.163094629309834 
2237	 0.162528152653061 
2238	 0.162424105521731 
2239	 0.162690990109518 
2240	 0.163562003581157 
2241	 0.163523709075796 
2242	 0.163290525039676 
2243	 0.163725242298884 
2244	 0.163367577142507 
2245	 0.163058388845667 
2246	 0.163135186140594 
2247	 0.162894558299781 
2248	 0.163430530855935 
2249	 0.164130017263971 
2250	 0.164018176554983 
2251	 0.162936225522778 
2252	 0.161646382391004 
2253	 0.16106936624549 
2254	 0.160098509105049 
2255	 0.160125031071748 
2256	 0.160081363401268 
2257	 0.16032524592021 
2258	 0.159414608804855 
2259	 0.159377769742767 
2260	 0.158816714329283 
2261	 0.157725933585515 
2262	 0.156686326216714 
2263	 0.155963269397481 
2264	 0.156013996200788 
2265	 0.155995054614931 
2266	 0.156123709852033 
2267	 0.155894087626604 
2268	 0.154847323214372 
2269	 0.153756331875071 
2270	 0.152955170873358 
2271	 0.152252206992355 
2272	 0.151545340737328 
2273	 0.15093412074605 
2274	 0.150935267241773 
2275	 0.150908388451157 
2276	 0.150673412450001 
2277	 0.150985759755296 
2278	 0.150921689280022 
2279	 0.149837751070677 
2280	 0.148553522753338 
2281	 0.147702951879953 
2282	 0.147234377602625 
2283	 0.147367532006813 
2284	 0.148137618188216 
2285	 0.148640407475794 
2286	 0.148721248081799 
2287	 0.148233271855386 
2288	 0.147942447689804 
2289	 0.147312916598743 
2290	 0.146400324942787 
2291	 0.146869034671882 
2292	 0.147186357586134 
2293	 0.146878465613991 
2294	 0.147869078150592 
2295	 0.147674772647646 
2296	 0.146902697440554 
2297	 0.146772562699441 
2298	 0.144989241585792 
2299	 0.143092085128001 
2300	 0.141787611679899 
2301	 0.141608560719532 
2302	 0.142685499521919 
2303	 0.143272066220488 
2304	 0.143088148228724 
2305	 0.141724335190176 
2306	 0.140107887193282 
2307	 0.139275266436562 
2308	 0.139099646756768 
2309	 0.138429268057924 
2310	 0.137908835902714 
2311	 0.138155553393047 
2312	 0.137592098304491 
2313	 0.137806785473285 
2314	 0.139063442865917 
2315	 0.139247823303117 
2316	 0.13812429685741 
2317	 0.137430111589269 
2318	 0.137243460758149 
2319	 0.135956662985455 
2320	 0.135596772414527 
2321	 0.135536867373164 
2322	 0.136227661552446 
2323	 0.135280045429608 
2324	 0.133978531820385 
2325	 0.132287093463486 
2326	 0.130522375266755 
2327	 0.129561226294658 
2328	 0.130517393556193 
2329	 0.132364041120528 
2330	 0.133323743335279 
2331	 0.133122944134142 
2332	 0.131889953077938 
2333	 0.131443530827862 
2334	 0.131881779607504 
2335	 0.132724485142294 
2336	 0.133521020882611 
2337	 0.133204790089081 
2338	 0.132310739641862 
2339	 0.130098252340516 
2340	 0.128792647981694 
2341	 0.128713451607124 
2342	 0.128176340451311 
2343	 0.129515164875316 
2344	 0.130526670887968 
2345	 0.130012945600027 
2346	 0.130305282967528 
2347	 0.129546150401364 
2348	 0.127043952171076 
2349	 0.12618510811599 
2350	 0.125773374017202 
2351	 0.12521767988193 
2352	 0.125382159029568 
2353	 0.125330863969973 
2354	 0.124720486262969 
2355	 0.12162207272645 
2356	 0.12008734447845 
2357	 0.120197802422243 
2358	 0.119434838811669 
2359	 0.121337860636959 
2360	 0.123331362381874 
2361	 0.12346852335798 
2362	 0.122900527975022 
2363	 0.120873289406635 
2364	 0.118291514978181 
2365	 0.116138812837096 
2366	 0.115170988477097 
2367	 0.114501254462056 
2368	 0.114515006247476 
2369	 0.117895834672536 
2370	 0.12038925634537 
2371	 0.120858135054902 
2372	 0.121181157250448 
2373	 0.119203405573032 
2374	 0.118169207511774 
2375	 0.118460201504199 
2376	 0.117232145038533 
2377	 0.115928436263307 
2378	 0.114582323111033 
2379	 0.110093731602424 
2380	 0.108493196161023 
2381	 0.109564177217685 
2382	 0.109205925149116 
2383	 0.109472266082946 
2384	 0.109279082110253 
2385	 0.107300476938646 
2386	 0.107711376493077 
2387	 0.110186511735476 
2388	 0.111372103966224 
2389	 0.114616322639735 
2390	 0.113846731059604 
2391	 0.108197199246139 
2392	 0.106842110991661 
2393	 0.105089518913515 
2394	 0.104796797912889 
2395	 0.109467886498984 
2396	 0.110776300196381 
2397	 0.11031083175767 
2398	 0.110165127399789 
2399	 0.108476935704857 
2400	 0.106190640789871 
2401	 0.101627679832728 
2402	 0.103432413155148 
2403	 0.102950459321899 
2404	 0.104627338056639 
2405	 0.109606410587264 
2406	 0.107923153534485 
2407	 0.104052494239855 
2408	 0.101461978769928 
2409	 9.98111170009036E-02 
2410	 9.87629145518039E-02 
2411	 0.101702318629124 
2412	 0.108428669275555 
2413	 0.112263222505598 
2414	 0.11379753166085 
2415	 0.111517638901912 
2416	 0.104788263549445 
2417	 9.98281976686049E-02 
2418	 9.52725920305667E-02 
2419	 0.093598516773555 
2420	 9.55331357285549E-02 
2421	 0.095487202721415 
2422	 9.85537976938047E-02 
2423	 0.101466323321341 
2424	 0.101260056583102 
2425	 0.101112567700108 
2426	 9.86895011313105E-02 
2427	 9.67777955494732E-02 
2428	 9.94847654834737E-02 
2429	 0.102502038538702 
2430	 9.86405534472976E-02 
2431	 9.48202659525111E-02 
2432	 9.26790289702579E-02 
2433	 9.09633287650079E-02 
2434	 9.04945155130745E-02 
2435	 9.30346262538366E-02 
2436	 9.40753388885691E-02 
2437	 9.32398420845424E-02 
2438	 0.091965721430006 
2439	 9.20408248589604E-02 
2440	 8.97113044588834E-02 
2441	 8.43727628605702E-02 
2442	 8.16403329077783E-02 
2443	 7.62442602224189E-02 
2444	 7.54680215163592E-02 
2445	 8.02943882991812E-02 
2446	 8.31416715207548E-02 
2447	 9.26490599921684E-02 
2448	 9.33229352202638E-02 
2449	 8.53925525060431E-02 
2450	 8.18304790745959E-02 
2451	 0.069301835659604 
2452	 6.94607446283162E-02 
2453	 8.27390680890788E-02 
2454	 8.75423571872621E-02 
2455	 9.82046695296433E-02 
2456	 0.101079159706173 
2457	 9.66117663432713E-02 
2458	 9.12745086538944E-02 
2459	 0.076957626265812 
2460	 7.30016491594968E-02 
2461	 7.34806967606836E-02 
2462	 0.07039163093469 
2463	 7.55635753234792E-02 
2464	 7.34287287990476E-02 
2465	 5.72772188120386E-02 
2466	 5.22866337786993E-02 
2467	 5.33820225699297E-02 
2468	 5.41804071801478E-02 
2469	 5.78990380601664E-02 
2470	 6.53634758931681E-02 
2471	 8.07280129807868E-02 
2472	 8.24558379540823E-02 
2473	 8.23764420945436E-02 
2474	 8.72449343435983E-02 
2475	 7.72516229659192E-02 
2476	 8.17891051958599E-02 
2477	 0.10749508627178 
2478	 0.112206726826034 
2479	 0.114911413184259 
2480	 0.106581878273674 
2481	 0.074878281447207 
2482	 4.57357993087232E-02 
2483	-3.16594994922697E-03 
2484	-2.72078524953698E-02 
2485	-4.49742301878565E-02 
2486	-3.18347155967457E-02 
2487	 1.33078946412105E-02 
2488	 0.050767548849762 
2489	 4.43140357608018E-02 
2490	 6.29923215759271E-02 
2491	 8.18865217067892E-02 
2492	 0.113831937138872 
2493	 0.193002389319914 
2494	 0.211492262952643 
2495	 0.156141112788492 
2496	 0.112541402038372 
2497	 7.10893271710714E-02 
2498	 4.48611390675929E-02 
2499	 5.83258825591568E-02 
2500	 3.49383501296895E-02 
