Wavelength	ref00110.asd
350	 1.41808259085099 
351	 1.40152760165582 
352	 1.39896569270072 
353	 1.3873920857825 
354	 1.38024985866373 
355	 1.37055313368381 
356	 1.35505694907915 
357	 1.33893118521354 
358	 1.35293819881867 
359	 1.34996922384544 
360	 1.29411468347306 
361	 1.2865959062124 
362	 1.29906720231308 
363	 1.30197545527784 
364	 1.2742550187999 
365	 1.26805101804842 
366	 1.26223260549436 
367	 1.24628052861014 
368	 1.23571829801654 
369	 1.22949956216895 
370	 1.22650630843558 
371	 1.22071260218249 
372	 1.19176476715207 
373	 1.17106935600302 
374	 1.16457188662687 
375	 1.16344566782062 
376	 1.15056143709525 
377	 1.13632035870098 
378	 1.13067050324151 
379	 1.13927982439036 
380	 1.11878480322341 
381	 1.09711492482733 
382	 1.09546804341457 
383	 1.07673094967134 
384	 1.06515115320631 
385	 1.06102406182533 
386	 1.05455875562334 
387	 1.04415207212605 
388	 1.02634907668941 
389	 1.01005639874212 
390	 1.01215326248432 
391	 0.99464474134054 
392	 0.982158799972959 
393	 0.987178926043642 
394	 0.974298283490979 
395	 0.961869895160362 
396	 0.952635754183202 
397	 0.943608100652296 
398	 0.928921485923074 
399	 0.926862635088673 
400	 0.930574229923358 
401	 0.916058493892771 
402	 0.914156014633999 
403	 0.913779936850159 
404	 0.907036338126827 
405	 0.903747729518656 
406	 0.900514265561019 
407	 0.894487750223273 
408	 0.885456404514296 
409	 0.885152947327122 
410	 0.888047769444376 
411	 0.88968871309717 
412	 0.887912042019107 
413	 0.887365970863167 
414	 0.890419030939048 
415	 0.895469330540543 
416	 0.893726685857727 
417	 0.893014365512082 
418	 0.893637460753245 
419	 0.89386812495476 
420	 0.894656732994746 
421	 0.896429715370839 
422	 0.898816127088589 
423	 0.90088452128948 
424	 0.904060017753936 
425	 0.905786951643883 
426	 0.905097280333043 
427	 0.90513243910124 
428	 0.909465405321586 
429	 0.911641162950102 
430	 0.90545439750197 
431	 0.903465614406371 
432	 0.904363199890173 
433	 0.905332963303576 
434	 0.903526106116635 
435	 0.905200627322232 
436	 0.908457683415778 
437	 0.909976989772435 
438	 0.905349792639842 
439	 0.905497273188968 
440	 0.906823238545235 
441	 0.903229398816211 
442	 0.904254117689278 
443	 0.905267118247206 
444	 0.905031467142269 
445	 0.906050047084927 
446	 0.90584284264336 
447	 0.907450555239294 
448	 0.911577409838537 
449	 0.911245331772052 
450	 0.909271167481379 
451	 0.908334253736293 
452	 0.90998670344875 
453	 0.908612220328511 
454	 0.907745702310533 
455	 0.908031888809132 
456	 0.906112498182426 
457	 0.90522507787722 
458	 0.903326214913035 
459	 0.899347948254768 
460	 0.898515798975596 
461	 0.896866706150021 
462	 0.894457295310888 
463	 0.893287182010654 
464	 0.892275967721179 
465	 0.890212595843767 
466	 0.887184948613197 
467	 0.885104531317035 
468	 0.883821363091283 
469	 0.882260114820101 
470	 0.879794252797719 
471	 0.878706850357665 
472	 0.876768770885426 
473	 0.874600250460674 
474	 0.874366855357148 
475	 0.871602012438807 
476	 0.868933935472823 
477	 0.867582567882797 
478	 0.864284045553184 
479	 0.862537298326148 
480	 0.861799622971772 
481	 0.860249656400565 
482	 0.856868245339158 
483	 0.854506963377218 
484	 0.853082630882895 
485	 0.849675257639833 
486	 0.847146169308628 
487	 0.844961093335252 
488	 0.842971817769619 
489	 0.843834927632686 
490	 0.843976363553523 
491	 0.843097099977894 
492	 0.842426340845041 
493	 0.842980914554551 
494	 0.843666306812334 
495	 0.844514382163227 
496	 0.847079461208158 
497	 0.849904440985811 
498	 0.85355204648831 
499	 0.858516484479319 
500	 0.863591192518113 
501	 0.868969887580812 
502	 0.874790183818334 
503	 0.88135343917451 
504	 0.890173873205328 
505	 0.898607142630301 
506	 0.906583862846565 
507	 0.919105391854665 
508	 0.929446104004199 
509	 0.940362942336968 
510	 0.955628019816502 
511	 0.970199362138065 
512	 0.984460840895142 
513	 0.999261830802693 
514	 1.01582836623043 
515	 1.03364568716674 
516	 1.05293225305251 
517	 1.07366377489679 
518	 1.09526259678927 
519	 1.11632226041576 
520	 1.13699605945251 
521	 1.15784051124137 
522	 1.17636759331059 
523	 1.19610005931309 
524	 1.2178663075711 
525	 1.23878711003602 
526	 1.25667231143343 
527	 1.27371381964182 
528	 1.2919085830176 
529	 1.30915646343427 
530	 1.32505820763046 
531	 1.33924701933773 
532	 1.35171847679738 
533	 1.36374806352863 
534	 1.37569922429765 
535	 1.38713659622415 
536	 1.39670121116287 
537	 1.40288434593861 
538	 1.40887776508465 
539	 1.41753071459441 
540	 1.42309575109154 
541	 1.42794247965872 
542	 1.43288776071765 
543	 1.43716957241378 
544	 1.44066153988595 
545	 1.443726110062 
546	 1.44665984649114 
547	 1.44945618704845 
548	 1.45145644227378 
549	 1.45334098271606 
550	 1.45570211270609 
551	 1.45493354880731 
552	 1.45308346817045 
553	 1.45112999132074 
554	 1.44827611681492 
555	 1.44197480415866 
556	 1.43456717818242 
557	 1.42786311729997 
558	 1.41791837221057 
559	 1.40721090218906 
560	 1.39699261717597 
561	 1.38734726822711 
562	 1.37667783507693 
563	 1.36388318943531 
564	 1.34952710033397 
565	 1.33690747451634 
566	 1.32346380726692 
567	 1.30909185954515 
568	 1.29440224054829 
569	 1.27943838359716 
570	 1.26417631554445 
571	 1.24901693255144 
572	 1.23464747623501 
573	 1.22094814061881 
574	 1.20771542552182 
575	 1.19461424527247 
576	 1.18117966831662 
577	 1.16842399059597 
578	 1.15638762333576 
579	 1.14471100308399 
580	 1.13435412523132 
581	 1.12388054156145 
582	 1.11325164501309 
583	 1.1044764770293 
584	 1.09538886228205 
585	 1.0862514532612 
586	 1.07782192224682 
587	 1.07012950649145 
588	 1.06212917221106 
589	 1.05389098784832 
590	 1.04660509386019 
591	 1.04215989401469 
592	 1.03822524077304 
593	 1.03282444953293 
594	 1.02570969237289 
595	 1.02049055281655 
596	 1.01596439654993 
597	 1.01004216620844 
598	 1.00548785020757 
599	 1.00109314598609 
600	 0.996244772319475 
601	 0.991083692630124 
602	 0.984543730168006 
603	 0.977678947210545 
604	 0.971180084023912 
605	 0.963630416722557 
606	 0.955272993164168 
607	 0.946520910728454 
608	 0.937705733062477 
609	 0.927592929926413 
610	 0.916794241669413 
611	 0.9059962593474 
612	 0.895642811943507 
613	 0.885539906180607 
614	 0.875563978697878 
615	 0.865700873224662 
616	 0.855997807811384 
617	 0.847207072946434 
618	 0.83960548402257 
619	 0.83283178507151 
620	 0.825613887894218 
621	 0.819012904308014 
622	 0.813465625888827 
623	 0.807544561938362 
624	 0.802832989782161 
625	 0.798702846590668 
626	 0.794236497985234 
627	 0.791284551881116 
628	 0.788176791357802 
629	 0.784749600856035 
630	 0.782374847103989 
631	 0.779794447012938 
632	 0.777272247282478 
633	 0.77486357622192 
634	 0.771235768966481 
635	 0.768017515108917 
636	 0.764877375319546 
637	 0.760733279262011 
638	 0.755898771200658 
639	 0.750525814617305 
640	 0.744523831819462 
641	 0.737667153526292 
642	 0.730615420274337 
643	 0.723753398742943 
644	 0.716919055201314 
645	 0.708712052590041 
646	 0.700498720813469 
647	 0.692618693784103 
648	 0.684865190942686 
649	 0.678206731061064 
650	 0.671417400689856 
651	 0.664113097328957 
652	 0.657278412536398 
653	 0.650764846577523 
654	 0.644001849892635 
655	 0.636152237914903 
656	 0.626997099673401 
657	 0.616759001559488 
658	 0.606715397507118 
659	 0.59677763639787 
660	 0.585645248842574 
661	 0.574523548562962 
662	 0.564078464868741 
663	 0.552364449318341 
664	 0.541438604747186 
665	 0.531242838425609 
666	 0.521285579315319 
667	 0.513168593220518 
668	 0.506004385980961 
669	 0.499733453238163 
670	 0.49491972126729 
671	 0.489644884143013 
672	 0.485227445803311 
673	 0.482492828554039 
674	 0.479576136749184 
675	 0.477189421409095 
676	 0.475847960377771 
677	 0.47567651094619 
678	 0.474733677889573 
679	 0.47496179875043 
680	 0.476940640189109 
681	 0.479629616197451 
682	 0.484003727704938 
683	 0.490093747740776 
684	 0.497952037762194 
685	 0.508179662223123 
686	 0.521673411108332 
687	 0.538819901280639 
688	 0.557834106459409 
689	 0.577741919978912 
690	 0.599153332575628 
691	 0.623477058681571 
692	 0.651159469015486 
693	 0.680543250177522 
694	 0.712688885523365 
695	 0.748169707850201 
696	 0.785251027013318 
697	 0.824809918060021 
698	 0.866154188203722 
699	 0.907849026536149 
700	 0.951037390250851 
701	 0.995314376842854 
702	 1.04004031246163 
703	 1.0846526519231 
704	 1.12941200083658 
705	 1.17384419647683 
706	 1.21788563105835 
707	 1.26159891079673 
708	 1.30582128268187 
709	 1.35034285923748 
710	 1.39420366575681 
711	 1.43821200754752 
712	 1.4824477593254 
713	 1.52695772653363 
714	 1.57194749225108 
715	 1.61479399223563 
716	 1.65614269894528 
717	 1.69827092874713 
718	 1.74118628232365 
719	 1.78716969418417 
720	 1.83479390569446 
721	 1.88099856505708 
722	 1.92403801395067 
723	 1.96526877350207 
724	 2.00726202207897 
725	 2.04905068399506 
726	 2.08939840548631 
727	 2.1281401351148 
728	 2.16638459972479 
729	 2.20459075371977 
730	 2.24038195101018 
731	 2.27460745792691 
732	 2.30914158673699 
733	 2.34247406920316 
734	 2.37240506194747 
735	 2.39932596706332 
736	 2.42522248771181 
737	 2.4503093280847 
738	 2.47302756625568 
739	 2.49326415733915 
740	 2.51361015634307 
741	 2.53229044134267 
742	 2.54917643393224 
743	 2.56438214253657 
744	 2.57729703542117 
745	 2.58893643781386 
746	 2.59971274720787 
747	 2.60946365454117 
748	 2.61784237419403 
749	 2.62420062975666 
750	 2.62886856481822 
751	 2.63380181434826 
752	 2.6374902238066 
753	 2.64082452425583 
754	 2.64424191302458 
755	 2.64407747564811 
756	 2.64500614954213 
757	 2.64670263364862 
758	 2.64631620341633 
759	 2.64712063092203 
760	 2.64863752754348 
761	 2.64930699919431 
762	 2.64707843950183 
763	 2.64300331927449 
764	 2.63791861475526 
765	 2.63321265264853 
766	 2.63175192391777 
767	 2.62670492985809 
768	 2.62081080509905 
769	 2.61785832397262 
770	 2.61354045401411 
771	 2.60903588676665 
772	 2.60523419191517 
773	 2.60226471844363 
774	 2.59652653340029 
775	 2.59176536616607 
776	 2.58915194235066 
777	 2.58368244245077 
778	 2.57873470995125 
779	 2.57471319433109 
780	 2.57109643595314 
781	 2.5669778765558 
782	 2.56341420218846 
783	 2.55997861529875 
784	 2.55553728507937 
785	 2.55004404161552 
786	 2.54496735123512 
787	 2.54056509883125 
788	 2.53572481449524 
789	 2.53006478806149 
790	 2.52557819797415 
791	 2.52264342806723 
792	 2.51739449523427 
793	 2.51305600612164 
794	 2.50943649784643 
795	 2.50529416771559 
796	 2.49962712850847 
797	 2.49555899440411 
798	 2.4925784489187 
799	 2.48830709752803 
800	 2.48426649131744 
801	 2.47963968656171 
802	 2.47484457462125 
803	 2.47165248208014 
804	 2.46783918177304 
805	 2.46366880428923 
806	 2.45983015092965 
807	 2.45693389261572 
808	 2.45185381640188 
809	 2.44670579655009 
810	 2.44361997477835 
811	 2.43793509304944 
812	 2.4313004984419 
813	 2.42440766442957 
814	 2.41744096972374 
815	 2.41086008373656 
816	 2.40491312706357 
817	 2.39997423343118 
818	 2.39647718943793 
819	 2.39545979451497 
820	 2.39543878212386 
821	 2.39384858851461 
822	 2.38701755910124 
823	 2.38253671356871 
824	 2.38067975323421 
825	 2.37944369915628 
826	 2.37704193242886 
827	 2.37345908350756 
828	 2.36990487398918 
829	 2.36745316072284 
830	 2.36252099011929 
831	 2.35934414238551 
832	 2.35754791912419 
833	 2.35367195193261 
834	 2.35102391844571 
835	 2.34962724106926 
836	 2.34862893709409 
837	 2.3467177821175 
838	 2.3446528357521 
839	 2.3418279953934 
840	 2.33805177770094 
841	 2.33424287036196 
842	 2.33290672121387 
843	 2.33109706765033 
844	 2.32667272010901 
845	 2.32582189748302 
846	 2.32291107931422 
847	 2.31874154864099 
848	 2.31623230169628 
849	 2.31290105118744 
850	 2.30883378436454 
851	 2.30557070706411 
852	 2.30487003297107 
853	 2.30239196092736 
854	 2.29818024698746 
855	 2.29369368200378 
856	 2.29120928305564 
857	 2.29114716407138 
858	 2.28868252790238 
859	 2.28316064304087 
860	 2.28144288704709 
861	 2.27811067157521 
862	 2.27544911913503 
863	 2.27514498956633 
864	 2.27293060097015 
865	 2.26795613435734 
866	 2.26361567435965 
867	 2.26291225800204 
868	 2.26107234946519 
869	 2.25810807481893 
870	 2.25546071343009 
871	 2.25409686728733 
872	 2.24895133896658 
873	 2.24629616393766 
874	 2.24498571184713 
875	 2.23955244226717 
876	 2.23682239900823 
877	 2.23510028148818 
878	 2.23239171988078 
879	 2.22769367084984 
880	 2.22435841845756 
881	 2.22137586761245 
882	 2.21867871386175 
883	 2.21810128849796 
884	 2.21527634724172 
885	 2.21201585610791 
886	 2.20977718829575 
887	 2.20703998467001 
888	 2.20368112059378 
889	 2.20045398499943 
890	 2.19765894065627 
891	 2.19401815203227 
892	 2.18803817663459 
893	 2.18180602131704 
894	 2.17724184870365 
895	 2.17095594751559 
896	 2.16725485010287 
897	 2.16364256706971 
898	 2.15682382997837 
899	 2.15403189457759 
900	 2.15135433128486 
901	 2.14902050079208 
902	 2.14912879242972 
903	 2.15121739197034 
904	 2.149681987225 
905	 2.14459852972866 
906	 2.13986852221644 
907	 2.13825954272882 
908	 2.13069015110752 
909	 2.12149406657753 
910	 2.12395778572351 
911	 2.12312519973874 
912	 2.12043204435662 
913	 2.11608824108604 
914	 2.10861408830382 
915	 2.10761786991871 
916	 2.10553100731851 
917	 2.10255801308446 
918	 2.10815379760588 
919	 2.10570428616535 
920	 2.10189085693935 
921	 2.10037399783696 
922	 2.09669785939436 
923	 2.09627270225589 
924	 2.09391212636682 
925	 2.08835838861797 
926	 2.08671497952634 
927	 2.07794789217489 
928	 2.06937931037945 
929	 2.06451957866677 
930	 2.05213490906678 
931	 2.04283077639784 
932	 2.0318701876302 
933	 2.01680110246117 
934	 2.00862618989354 
935	 2.00837089130194 
936	 2.00711954907498 
937	 2.00372915480409 
938	 2.01575262066556 
939	 2.01495064938298 
940	 2.01313416108195 
941	 2.01768139201525 
942	 2.01050973370929 
943	 2.00296289349363 
944	 2.00009861534565 
945	 2.00012981218684 
946	 1.99039876414837 
947	 1.98653558392202 
948	 1.98264516629038 
949	 1.975029454635 
950	 1.9756568128421 
951	 1.97971541935419 
952	 1.97580174801724 
953	 1.96222836908943 
954	 1.95891210395195 
955	 1.95690444837905 
956	 1.95744119905332 
957	 1.95823771685485 
958	 1.94663581339155 
959	 1.94850874304863 
960	 1.95339552535655 
961	 1.95109571995436 
962	 1.9487020301024 
963	 1.95509411424316 
964	 1.95483332600551 
965	 1.94603574799327 
966	 1.95624051418429 
967	 1.95872843487807 
968	 1.95465850287598 
969	 1.95020009370786 
970	 1.94916728090993 
971	 1.95411464644153 
972	 1.95034441054437 
973	 1.9382866157018 
974	 1.94214239725597 
975	 1.9401130092809 
976	 1.93670598657914 
977	 1.93715789523148 
978	 1.94063918055249 
979	 1.94042389647866 
980	 1.93977664000715 
981	 1.94050311292835 
982	 1.94050919408522 
983	 1.93412708812782 
984	 1.93350910651482 
985	 1.93808074426209 
986	 1.93589885743937 
987	 1.93930017084981 
988	 1.93683310275516 
989	 1.92971600824651 
990	 1.929078059095 
991	 1.93182116247771 
992	 1.93444985471966 
993	 1.93687012097496 
994	 1.94032217768193 
995	 1.94120949801107 
996	 1.93435819102058 
997	 1.93092750188732 
998	 1.93985927459083 
999	 1.92880226811009 
1000	 1.92117654577964 
1001	 1.89708502606934 
1002	 1.89662295083458 
1003	 1.89642001625292 
1004	 1.89682765538399 
1005	 1.89670536482646 
1006	 1.89667512134231 
1007	 1.89632892962728 
1008	 1.89548431221236 
1009	 1.89469236784961 
1010	 1.89380323485489 
1011	 1.89298162847358 
1012	 1.89155136096134 
1013	 1.89127556831996 
1014	 1.89105563325028 
1015	 1.88998543348689 
1016	 1.88908376174803 
1017	 1.88836029783433 
1018	 1.88805355384191 
1019	 1.8880761143363 
1020	 1.88814543202854 
1021	 1.88894743314618 
1022	 1.88873654650353 
1023	 1.88816798304843 
1024	 1.88717550392122 
1025	 1.88606761073422 
1026	 1.88514249013362 
1027	 1.88466234829492 
1028	 1.88499418827846 
1029	 1.8847172848148 
1030	 1.88407316589833 
1031	 1.88358381743657 
1032	 1.88218211713855 
1033	 1.8813133324061 
1034	 1.88080065527827 
1035	 1.88029564818276 
1036	 1.87980199260352 
1037	 1.87933216275032 
1038	 1.87900489496592 
1039	 1.87821310980993 
1040	 1.87747762884292 
1041	 1.87693980244844 
1042	 1.87623375690789 
1043	 1.87616418465207 
1044	 1.87600628930654 
1045	 1.87555166096809 
1046	 1.87458150141521 
1047	 1.87287839581777 
1048	 1.8716353342764 
1049	 1.87103689513017 
1050	 1.87039800900163 
1051	 1.87035553685359 
1052	 1.86967011573575 
1053	 1.86889699009369 
1054	 1.86838012109083 
1055	 1.86710871444592 
1056	 1.86628898317889 
1057	 1.86548016255186 
1058	 1.86414608524443 
1059	 1.86328791685763 
1060	 1.86237577469257 
1061	 1.86136595766268 
1062	 1.8599988082881 
1063	 1.8583319195455 
1064	 1.85731070893387 
1065	 1.85587796697123 
1066	 1.85422614084855 
1067	 1.85266775803882 
1068	 1.85176305032887 
1069	 1.84997307878948 
1070	 1.84893611963591 
1071	 1.84872956760132 
1072	 1.8470639680844 
1073	 1.84563246160365 
1074	 1.84452371665618 
1075	 1.84215957144273 
1076	 1.83975516435024 
1077	 1.8380432337098 
1078	 1.83645990241773 
1079	 1.83505848558476 
1080	 1.83424090006334 
1081	 1.83276803734403 
1082	 1.83104061441825 
1083	 1.82855749231813 
1084	 1.82686207585295 
1085	 1.82551242518596 
1086	 1.82371022048 
1087	 1.82230138308704 
1088	 1.82077935320743 
1089	 1.81772086506283 
1090	 1.81485455937699 
1091	 1.81276953607964 
1092	 1.81012348521918 
1093	 1.80750610428417 
1094	 1.80509991780542 
1095	 1.80288371124609 
1096	 1.80076377107319 
1097	 1.79907743635524 
1098	 1.79669200792005 
1099	 1.79435368646965 
1100	 1.79119337567716 
1101	 1.78784549120903 
1102	 1.78499714662243 
1103	 1.78247737875898 
1104	 1.77991260638677 
1105	 1.77750465464532 
1106	 1.77481350385861 
1107	 1.77188880684012 
1108	 1.76895748693498 
1109	 1.76537063513734 
1110	 1.76120083164167 
1111	 1.75653452172027 
1112	 1.75063866731827 
1113	 1.74530241419608 
1114	 1.7393996409962 
1115	 1.73352494512784 
1116	 1.72756675538029 
1117	 1.72193634153643 
1118	 1.71649637904306 
1119	 1.70943413687669 
1120	 1.70263413541335 
1121	 1.69686660553581 
1122	 1.69099457189213 
1123	 1.68718299415323 
1124	 1.68390703170448 
1125	 1.68046910856524 
1126	 1.67825745147061 
1127	 1.67727099067528 
1128	 1.67516551036504 
1129	 1.67415864935205 
1130	 1.67228107142151 
1131	 1.66932882286591 
1132	 1.66703686192605 
1133	 1.66511857266416 
1134	 1.66287561399851 
1135	 1.66085792433543 
1136	 1.6577544951598 
1137	 1.65483290568707 
1138	 1.65133052288829 
1139	 1.6464725412868 
1140	 1.64178914493447 
1141	 1.63589752577011 
1142	 1.62997833071455 
1143	 1.62427596678324 
1144	 1.61830089079649 
1145	 1.61232736994971 
1146	 1.60624184457721 
1147	 1.60071209706641 
1148	 1.5947232943543 
1149	 1.59066737076302 
1150	 1.58869049432721 
1151	 1.58588441212781 
1152	 1.58348709035755 
1153	 1.58152800059104 
1154	 1.57948457520246 
1155	 1.57756218496717 
1156	 1.57666563486648 
1157	 1.57621465901005 
1158	 1.57570527729081 
1159	 1.57441744534474 
1160	 1.57356257912776 
1161	 1.57273147339675 
1162	 1.57215189559442 
1163	 1.57202291566202 
1164	 1.5713445424058 
1165	 1.57046908956682 
1166	 1.56944663433672 
1167	 1.56787969945415 
1168	 1.5667664796475 
1169	 1.56577205251143 
1170	 1.5650405254961 
1171	 1.56412369544567 
1172	 1.56294893918779 
1173	 1.5618270317615 
1174	 1.56069225235684 
1175	 1.55956804771091 
1176	 1.55836013229093 
1177	 1.55702005129076 
1178	 1.55550363270373 
1179	 1.55388390043168 
1180	 1.55194303724727 
1181	 1.55048284309251 
1182	 1.54908350119854 
1183	 1.54778967860843 
1184	 1.54681759230816 
1185	 1.54582381994189 
1186	 1.54494322722759 
1187	 1.54390677421416 
1188	 1.54288773468888 
1189	 1.54194303736876 
1190	 1.54066395873483 
1191	 1.53951876343031 
1192	 1.53889297500785 
1193	 1.5383446326499 
1194	 1.53764758970841 
1195	 1.53715995488436 
1196	 1.53638982538788 
1197	 1.53512342633446 
1198	 1.53446948503818 
1199	 1.53416584113425 
1200	 1.53365018775322 
1201	 1.53327911936949 
1202	 1.53292622913209 
1203	 1.5323040057804 
1204	 1.53198272947289 
1205	 1.53193283500022 
1206	 1.53194757461704 
1207	 1.5322416717735 
1208	 1.53233354154896 
1209	 1.53241797713006 
1210	 1.53239471835681 
1211	 1.53254893548264 
1212	 1.53272210615816 
1213	 1.53291218851835 
1214	 1.5332003829514 
1215	 1.53369190445574 
1216	 1.53414271175803 
1217	 1.53482742398907 
1218	 1.53605650203157 
1219	 1.53674376633625 
1220	 1.53727390822831 
1221	 1.53776893637676 
1222	 1.53787027257038 
1223	 1.53837839612088 
1224	 1.53932700250476 
1225	 1.53976660003159 
1226	 1.54012298069095 
1227	 1.54041991237651 
1228	 1.5403954153951 
1229	 1.54016516268643 
1230	 1.54060608176295 
1231	 1.5412519659571 
1232	 1.54171831368871 
1233	 1.54247293854517 
1234	 1.54277680061959 
1235	 1.5427546486711 
1236	 1.54289336729835 
1237	 1.54285310944476 
1238	 1.54299654967542 
1239	 1.54338973448827 
1240	 1.54346964448785 
1241	 1.5434349863563 
1242	 1.54343782605865 
1243	 1.54324813334895 
1244	 1.54313760331014 
1245	 1.54304599656448 
1246	 1.54307782568455 
1247	 1.54320140945107 
1248	 1.54325338619433 
1249	 1.54348316142531 
1250	 1.54353817081708 
1251	 1.54345646756381 
1252	 1.54325861969556 
1253	 1.54310713747305 
1254	 1.54288513294571 
1255	 1.54272943350034 
1256	 1.54270283718387 
1257	 1.54234813288989 
1258	 1.5418253914849 
1259	 1.54138240043621 
1260	 1.54067664014639 
1261	 1.54018610889429 
1262	 1.53997765722989 
1263	 1.5395054462318 
1264	 1.53874944680902 
1265	 1.53834794211108 
1266	 1.53801148626109 
1267	 1.53774230632688 
1268	 1.53813267255152 
1269	 1.53784532412966 
1270	 1.53726438988021 
1271	 1.5365225691903 
1272	 1.53519859638116 
1273	 1.53408740611189 
1274	 1.53290924770377 
1275	 1.53172044642989 
1276	 1.530439195418 
1277	 1.52900152594648 
1278	 1.52785911229752 
1279	 1.52688066430437 
1280	 1.52562123017569 
1281	 1.52455309994898 
1282	 1.52309791805547 
1283	 1.52119435105638 
1284	 1.5194528880205 
1285	 1.51767324757172 
1286	 1.51586227305271 
1287	 1.51408199854542 
1288	 1.51213791164734 
1289	 1.51012323411859 
1290	 1.50800307236264 
1291	 1.50571399992275 
1292	 1.50339319109311 
1293	 1.50109768261411 
1294	 1.49855812029911 
1295	 1.49586301921383 
1296	 1.49297461736915 
1297	 1.49007540966776 
1298	 1.48698769912992 
1299	 1.48387019835367 
1300	 1.4806758546561 
1301	 1.4775031769302 
1302	 1.47422419368721 
1303	 1.47091153934449 
1304	 1.46771052781341 
1305	 1.46421002893162 
1306	 1.46037939602386 
1307	 1.45673797917252 
1308	 1.45318100348644 
1309	 1.44932469199412 
1310	 1.4454466727884 
1311	 1.44135309809578 
1312	 1.43674660975317 
1313	 1.43241877449541 
1314	 1.42828345514118 
1315	 1.42394788778718 
1316	 1.41955621883399 
1317	 1.41517719180428 
1318	 1.41073011385483 
1319	 1.40616529332584 
1320	 1.40153623766186 
1321	 1.39702665665047 
1322	 1.39188388552032 
1323	 1.38611483127198 
1324	 1.38082600624461 
1325	 1.37541426109898 
1326	 1.36961758980416 
1327	 1.36392310697762 
1328	 1.3576588862971 
1329	 1.3501850707284 
1330	 1.34381231130486 
1331	 1.33799879443865 
1332	 1.33175888334019 
1333	 1.32551623511542 
1334	 1.31988646138263 
1335	 1.31445029722787 
1336	 1.30900859584606 
1337	 1.30426683425339 
1338	 1.29915845601678 
1339	 1.29303015040885 
1340	 1.28753681205492 
1341	 1.28224556214736 
1342	 1.27661191076451 
1343	 1.2701301463978 
1344	 1.26386497331354 
1345	 1.25725806587835 
1346	 1.24908982377515 
1347	 1.24154820736943 
1348	 1.23360516830213 
1349	 1.22433321826567 
1350	 1.21306736518988 
1351	 1.20211934873377 
1352	 1.19065221936 
1353	 1.17797180794981 
1354	 1.17082042114604 
1355	 1.15658680634116 
1356	 1.14227883867887 
1357	 1.12357720825095 
1358	 1.1105311236012 
1359	 1.0861453675474 
1360	 1.07716895185251 
1361	 1.05752621662929 
1362	 1.05361925300389 
1363	 1.03573448212251 
1364	 1.04857031378556 
1365	 1.03574075881488 
1366	 1.00820510789043 
1367	 0.986213230758682 
1368	 0.966234649139996 
1369	 0.950992980528775 
1370	 0.945425636843621 
1371	 0.936074957307232 
1372	 0.916036921051756 
1373	 0.913131005419303 
1374	 0.924363976600071 
1375	 0.920366431594928 
1376	 0.911638855715183 
1377	 0.921732028088582 
1378	 0.916454181236842 
1379	 0.900724686391765 
1380	 0.884265164783848 
1381	 0.865893186567333 
1382	 0.848275557094176 
1383	 0.825608762399672 
1384	 0.80835166321967 
1385	 0.801496253708412 
1386	 0.782972432314179 
1387	 0.756909639254254 
1388	 0.743816586655527 
1389	 0.73214136361145 
1390	 0.725603862236174 
1391	 0.732643749047777 
1392	 0.723458981953431 
1393	 0.706250928947815 
1394	 0.693124973040038 
1395	 0.67562954417918 
1396	 0.66113008410037 
1397	 0.649498063933336 
1398	 0.638224053442004 
1399	 0.625732665470123 
1400	 0.613895676925234 
1401	 0.605834750891929 
1402	 0.595320413419103 
1403	 0.581827539542052 
1404	 0.571880289885809 
1405	 0.562922275824767 
1406	 0.556339366530194 
1407	 0.55073233838364 
1408	 0.544942393603327 
1409	 0.536060143940701 
1410	 0.526116703102772 
1411	 0.520555194968502 
1412	 0.515266973858533 
1413	 0.512303339833137 
1414	 0.512840600589492 
1415	 0.509931432097985 
1416	 0.506480974961627 
1417	 0.502731611101066 
1418	 0.497153185306121 
1419	 0.494762229994226 
1420	 0.493398171329202 
1421	 0.492101334271093 
1422	 0.49286831154139 
1423	 0.49132678253646 
1424	 0.488428527545255 
1425	 0.486371015143067 
1426	 0.483601555913243 
1427	 0.481667565752262 
1428	 0.480100404222298 
1429	 0.478947001844653 
1430	 0.478573600627099 
1431	 0.477444026591303 
1432	 0.476341293996796 
1433	 0.475147354421307 
1434	 0.472892934587193 
1435	 0.471666530087683 
1436	 0.471372057622266 
1437	 0.470680636357504 
1438	 0.470135588498101 
1439	 0.469618121775523 
1440	 0.468513147835593 
1441	 0.468222195158212 
1442	 0.46857344868652 
1443	 0.468820770720769 
1444	 0.46966271973274 
1445	 0.470362687889623 
1446	 0.470820492231764 
1447	 0.471729921517326 
1448	 0.4722083877374 
1449	 0.472531426308624 
1450	 0.473078705812156 
1451	 0.473503014865698 
1452	 0.47403737900918 
1453	 0.474831727793781 
1454	 0.475233553425611 
1455	 0.475368130322657 
1456	 0.475895944501246 
1457	 0.47650919067759 
1458	 0.477039561029716 
1459	 0.478006363296347 
1460	 0.47834782964687 
1461	 0.477984891353702 
1462	 0.47842814746238 
1463	 0.478821058883823 
1464	 0.479748693805586 
1465	 0.481607461253766 
1466	 0.483112434368865 
1467	 0.484699630562133 
1468	 0.486383707387321 
1469	 0.48783881014694 
1470	 0.489762197410701 
1471	 0.49173400108829 
1472	 0.494035422646041 
1473	 0.49670433525223 
1474	 0.499315705118562 
1475	 0.501902274899179 
1476	 0.50465246374885 
1477	 0.507162999871127 
1478	 0.510150085264178 
1479	 0.513513584859936 
1480	 0.516873072353103 
1481	 0.520336231083572 
1482	 0.523948705195226 
1483	 0.527498722095046 
1484	 0.531213344815959 
1485	 0.535321131377066 
1486	 0.539127449058778 
1487	 0.542754069402264 
1488	 0.54626790413327 
1489	 0.550001611403841 
1490	 0.553384860839782 
1491	 0.557687236130799 
1492	 0.562097848653217 
1493	 0.565646366269806 
1494	 0.569330371287409 
1495	 0.572761422831862 
1496	 0.575530808458896 
1497	 0.579108701368993 
1498	 0.583271872806384 
1499	 0.586865097007853 
1500	 0.590517997343224 
1501	 0.594069325576153 
1502	 0.59724309544735 
1503	 0.601022363473835 
1504	 0.605256894059846 
1505	 0.608934119155981 
1506	 0.612596049411919 
1507	 0.616209237987797 
1508	 0.619431035930793 
1509	 0.622890593207194 
1510	 0.626572685197229 
1511	 0.630113371889402 
1512	 0.633517539883275 
1513	 0.637076569802907 
1514	 0.640839106794391 
1515	 0.644381540297651 
1516	 0.647807338613771 
1517	 0.651407705372828 
1518	 0.655061846660415 
1519	 0.658661512575369 
1520	 0.662447364467814 
1521	 0.666013104730034 
1522	 0.669264347703151 
1523	 0.67282255780872 
1524	 0.676654409521879 
1525	 0.680170797347332 
1526	 0.683693614189057 
1527	 0.687123397222485 
1528	 0.690207963876282 
1529	 0.693498554353121 
1530	 0.696965482247412 
1531	 0.700349079911592 
1532	 0.703774715937711 
1533	 0.707099402114536 
1534	 0.710383890945108 
1535	 0.713614901447777 
1536	 0.7168933621148 
1537	 0.719909818523905 
1538	 0.722488435535205 
1539	 0.725532089148034 
1540	 0.728647787148997 
1541	 0.731759357800165 
1542	 0.735382590834947 
1543	 0.738634739883192 
1544	 0.741470870946421 
1545	 0.744525819891878 
1546	 0.747687444545157 
1547	 0.750700195119841 
1548	 0.753818841852491 
1549	 0.756736749292852 
1550	 0.759200810008125 
1551	 0.762041497867521 
1552	 0.765180992822037 
1553	 0.768063171724685 
1554	 0.77107794014759 
1555	 0.773950578948334 
1556	 0.776409480169812 
1557	 0.779029303989678 
1558	 0.781934745544613 
1559	 0.784547327601755 
1560	 0.786923242592334 
1561	 0.789405471229122 
1562	 0.791617001286702 
1563	 0.794077852932226 
1564	 0.796762605626083 
1565	 0.799665282893 
1566	 0.802417240938298 
1567	 0.804919683153532 
1568	 0.807139643154008 
1569	 0.808821388471403 
1570	 0.811342820988133 
1571	 0.814044063856708 
1572	 0.816560694875282 
1573	 0.819508134372251 
1574	 0.821996136404241 
1575	 0.823978417025507 
1576	 0.826262891611449 
1577	 0.828700138221589 
1578	 0.830907448069274 
1579	 0.832907639458613 
1580	 0.835045471333169 
1581	 0.83720916822404 
1582	 0.839260605937133 
1583	 0.841212149737004 
1584	 0.843403743158764 
1585	 0.845655478508119 
1586	 0.847813572394281 
1587	 0.850198787091949 
1588	 0.852227242039418 
1589	 0.853933585117974 
1590	 0.855882425771787 
1591	 0.857775281412683 
1592	 0.859880064634146 
1593	 0.862298994678063 
1594	 0.864195762509453 
1595	 0.865974278396689 
1596	 0.867766049645907 
1597	 0.869170151164541 
1598	 0.870978625618619 
1599	 0.873106847138917 
1600	 0.874995763861494 
1601	 0.876942811216168 
1602	 0.878629622773422 
1603	 0.879969659723347 
1604	 0.881873285254571 
1605	 0.883926581500895 
1606	 0.885839420102866 
1607	 0.888184644641711 
1608	 0.889878113028792 
1609	 0.890979421774755 
1610	 0.892505935443843 
1611	 0.893999960537671 
1612	 0.895578751526295 
1613	 0.897420869398158 
1614	 0.898815098665096 
1615	 0.899866886656571 
1616	 0.901368077837441 
1617	 0.90289889464494 
1618	 0.904383019334107 
1619	 0.906101043648661 
1620	 0.907758410030256 
1621	 0.90929647734616 
1622	 0.910750955729351 
1623	 0.912422379498872 
1624	 0.91370663635895 
1625	 0.914544020969247 
1626	 0.915714639741626 
1627	 0.917009087343386 
1628	 0.918124698721273 
1629	 0.919247821958321 
1630	 0.920238783046397 
1631	 0.921010488909408 
1632	 0.921940758087961 
1633	 0.922974537971564 
1634	 0.923884003752223 
1635	 0.924797688305882 
1636	 0.925614417928017 
1637	 0.926254107794493 
1638	 0.927023509849971 
1639	 0.92790221502825 
1640	 0.928531353390122 
1641	 0.929059983937598 
1642	 0.929674605101052 
1643	 0.930152807767631 
1644	 0.930616067399274 
1645	 0.931125625533472 
1646	 0.931713693367284 
1647	 0.932209394077807 
1648	 0.932811303422236 
1649	 0.933730437091921 
1650	 0.934197784579426 
1651	 0.934423083862159 
1652	 0.934671630243685 
1653	 0.934725009841566 
1654	 0.934842408501762 
1655	 0.935070048922766 
1656	 0.934974761967014 
1657	 0.934672883356722 
1658	 0.934307799885071 
1659	 0.934043496691496 
1660	 0.934309934858949 
1661	 0.934710549603132 
1662	 0.934763386544367 
1663	 0.934588242145872 
1664	 0.934298065623527 
1665	 0.93410624720816 
1666	 0.93407700672513 
1667	 0.934223818964958 
1668	 0.934048663123988 
1669	 0.933468576022508 
1670	 0.933341045292565 
1671	 0.93305507346089 
1672	 0.932592821847124 
1673	 0.932493975450757 
1674	 0.93210228101009 
1675	 0.931442847275936 
1676	 0.93110991541993 
1677	 0.930711020365317 
1678	 0.929894409986913 
1679	 0.92926878720322 
1680	 0.928530473796795 
1681	 0.92747360207773 
1682	 0.926703765435886 
1683	 0.925824057194631 
1684	 0.924615605168464 
1685	 0.923714251993425 
1686	 0.922734881783996 
1687	 0.921594092777505 
1688	 0.920900050301205 
1689	 0.919909026678675 
1690	 0.918823690400952 
1691	 0.917691275708009 
1692	 0.916235328281177 
1693	 0.91489017670123 
1694	 0.913527206369618 
1695	 0.912181680472313 
1696	 0.910846455327155 
1697	 0.909652315218188 
1698	 0.908615264313038 
1699	 0.907403744541766 
1700	 0.906339416163465 
1701	 0.904999938002549 
1702	 0.903541690979368 
1703	 0.901882441294722 
1704	 0.899632973035115 
1705	 0.897842996082011 
1706	 0.896229976790931 
1707	 0.894399451133475 
1708	 0.892547022942052 
1709	 0.891138105732481 
1710	 0.889866135627888 
1711	 0.888355581914441 
1712	 0.887301096305589 
1713	 0.885891126791437 
1714	 0.883746352069843 
1715	 0.882245249758202 
1716	 0.880971304880128 
1717	 0.879927108617863 
1718	 0.87928266367813 
1719	 0.878415751946777 
1720	 0.877891741423575 
1721	 0.876851170002502 
1722	 0.875183290883243 
1723	 0.874162443837438 
1724	 0.873512515495867 
1725	 0.872227839949266 
1726	 0.87078867644656 
1727	 0.869716754727332 
1728	 0.868115123006445 
1729	 0.867048630007387 
1730	 0.86690331119132 
1731	 0.865702860708739 
1732	 0.865046956047376 
1733	 0.863800087604305 
1734	 0.862203625880159 
1735	 0.860764308033285 
1736	 0.858120825661813 
1737	 0.856299161252953 
1738	 0.855822283922531 
1739	 0.854543283189949 
1740	 0.853362300641706 
1741	 0.851761740184921 
1742	 0.84922777654715 
1743	 0.847519396146028 
1744	 0.846495733383304 
1745	 0.845469630642622 
1746	 0.843893295710961 
1747	 0.841252358392043 
1748	 0.838788508873567 
1749	 0.836927895923324 
1750	 0.835337751679735 
1751	 0.834144032806481 
1752	 0.832690446371942 
1753	 0.83129393645405 
1754	 0.829726301951721 
1755	 0.827787573580026 
1756	 0.825885666838597 
1757	 0.82229137807964 
1758	 0.819894848222999 
1759	 0.818859630721896 
1760	 0.817023817400657 
1761	 0.815071236198584 
1762	 0.813245643144217 
1763	 0.810939026387089 
1764	 0.808633537066828 
1765	 0.806638569561081 
1766	 0.804838109718528 
1767	 0.80276889075244 
1768	 0.80107448344398 
1769	 0.799720291766425 
1770	 0.798567503844172 
1771	 0.797798197883098 
1772	 0.796215416930169 
1773	 0.79458142259795 
1774	 0.792317535248582 
1775	 0.790947849921344 
1776	 0.790324662890373 
1777	 0.788464606148076 
1778	 0.786694190987561 
1779	 0.785411951172023 
1780	 0.784575461959835 
1781	 0.783980550993478 
1782	 0.783308279207562 
1783	 0.782872247416457 
1784	 0.78170798340072 
1785	 0.781899263812438 
1786	 0.782827478669821 
1787	 0.781423476241455 
1788	 0.77914453751941 
1789	 0.777269709584334 
1790	 0.776499691686464 
1791	 0.775472943905529 
1792	 0.775225116727943 
1793	 0.775583649742735 
1794	 0.773959631281589 
1795	 0.773261342385545 
1796	 0.773224408315432 
1797	 0.773420340143136 
1798	 0.772859383926278 
1799	 0.772136303519246 
1800	 0.771683199000187 
1801	 0.746443498587391 
1802	 0.746258696892494 
1803	 0.743987875364164 
1804	 0.739436335064766 
1805	 0.738146663139174 
1806	 0.738407416687777 
1807	 0.736280783376862 
1808	 0.735923098429672 
1809	 0.735584954875208 
1810	 0.732313767353765 
1811	 0.722464378213384 
1812	 0.717497223796357 
1813	 0.713842348339734 
1814	 0.710194697010128 
1815	 0.707690850366858 
1816	 0.705200942919648 
1817	 0.706378257889911 
1818	 0.703693742048727 
1819	 0.699237691078123 
1820	 0.691523597636301 
1821	 0.686452501482635 
1822	 0.676265842876889 
1823	 0.673952721509266 
1824	 0.679368273322977 
1825	 0.685119448944826 
1826	 0.709044781653939 
1827	 0.718017270145658 
1828	 0.721164238387385 
1829	 0.714173475192094 
1830	 0.71675563722128 
1831	 0.700750822132834 
1832	 0.692439116897559 
1833	 0.72178206929828 
1834	 0.718241610987766 
1835	 0.636671127780754 
1836	 0.611086513087526 
1837	 0.609033746395452 
1838	 0.625485144893701 
1839	 0.6733223076536 
1840	 0.883647975680598 
1841	 0.863023893239759 
1842	 0.718162625070697 
1843	 0.657126773837093 
1844	 0.468023694184285 
1845	 0.427239277086594 
1846	 0.496447621881145 
1847	 0.544848953323973 
1848	 0.609858227839893 
1849	 0.744249883129993 
1850	 0.775008046007824 
1851	 0.801379516670904 
1852	 0.763608183994156 
1853	 0.594463057795487 
1854	 0.52253637524025 
1855	 0.456106898703034 
1856	 0.430397312957494 
1857	 0.451799842748782 
1858	 0.492375897516191 
1859	 0.484699652426304 
1860	 0.463024509841395 
1861	 0.450964395344042 
1862	 0.404261457920784 
1863	 0.405174538291153 
1864	 0.437540876007157 
1865	 0.474643655902329 
1866	 0.580643360451871 
1867	 0.641101476414694 
1868	 0.674596697317278 
1869	 0.696294861596515 
1870	 0.683533654350509 
1871	 0.589055303739013 
1872	 0.543666846254232 
1873	 0.502646499464739 
1874	 0.478497598628451 
1875	 0.463803852491697 
1876	 0.452129882637943 
1877	 0.4481738599718 
1878	 0.455009341935104 
1879	 0.447050614626537 
1880	 0.449591076577689 
1881	 0.449421266449692 
1882	 0.463641780308494 
1883	 0.441942080895282 
1884	 0.410146114068445 
1885	 0.384948250132281 
1886	 0.330486094558382 
1887	 0.302968253054012 
1888	 0.317512503610539 
1889	 0.294557264296552 
1890	 0.295690026896502 
1891	 0.335847761017239 
1892	 0.329490773813395 
1893	 0.291361268018921 
1894	 0.283832783463476 
1895	 0.261974247032704 
1896	 0.252520983093289 
1897	 0.285479721473864 
1898	 0.288729956530998 
1899	 0.275188374364686 
1900	 0.282895600683334 
1901	 0.30544180590908 
1902	 0.36514754392935 
1903	 0.387800165102939 
1904	 0.403401796251838 
1905	 0.416428999864455 
1906	 0.402177449455009 
1907	 0.369717517487461 
1908	 0.379334231693818 
1909	 0.370555485567823 
1910	 0.290062215927211 
1911	 0.216073497954677 
1912	 0.18417704488993 
1913	 0.144208926692404 
1914	 0.140856712424506 
1915	 0.158337730665368 
1916	 0.173453150479088 
1917	 0.20148800751085 
1918	 0.204530924015255 
1919	 0.212787376715017 
1920	 0.23813388942912 
1921	 0.245331404949733 
1922	 0.243956418800003 
1923	 0.236928417610562 
1924	 0.214464514511805 
1925	 0.211256725685878 
1926	 0.209962214909226 
1927	 0.21142719740452 
1928	 0.223922897369448 
1929	 0.232111010143321 
1930	 0.232662605236603 
1931	 0.232895616833624 
1932	 0.235304754262757 
1933	 0.237255016994496 
1934	 0.236807287606026 
1935	 0.234857561336473 
1936	 0.23354733682016 
1937	 0.230161556946903 
1938	 0.231455617890506 
1939	 0.236239801663671 
1940	 0.236627528203319 
1941	 0.236670124831269 
1942	 0.231562388421522 
1943	 0.233907020909025 
1944	 0.239365089444062 
1945	 0.242762714358036 
1946	 0.248059100373183 
1947	 0.249847133362468 
1948	 0.244000879738854 
1949	 0.243241174579753 
1950	 0.243924501431037 
1951	 0.246930748705542 
1952	 0.247600216689794 
1953	 0.252319628466685 
1954	 0.255083628125715 
1955	 0.253706579015354 
1956	 0.252528462655816 
1957	 0.250391003984655 
1958	 0.251728356576391 
1959	 0.25551253747856 
1960	 0.257000632289307 
1961	 0.259607848113266 
1962	 0.261785007918289 
1963	 0.259648765984071 
1964	 0.260195055074567 
1965	 0.262280935634195 
1966	 0.260630642898362 
1967	 0.259233652200173 
1968	 0.259304932643539 
1969	 0.259324111728202 
1970	 0.25986721333537 
1971	 0.259684405497276 
1972	 0.259519098618009 
1973	 0.258397748373506 
1974	 0.259984026720196 
1975	 0.261838106579071 
1976	 0.264026318760145 
1977	 0.268251196844313 
1978	 0.269041228487882 
1979	 0.268467526665978 
1980	 0.269838320115182 
1981	 0.270335474625504 
1982	 0.271412963975399 
1983	 0.272982042355491 
1984	 0.274566516346877 
1985	 0.275379817733186 
1986	 0.276902685088589 
1987	 0.277381669199575 
1988	 0.277368305548449 
1989	 0.27813975685967 
1990	 0.278419416182021 
1991	 0.278681788015988 
1992	 0.280513458160464 
1993	 0.281932360491389 
1994	 0.282482655469871 
1995	 0.282881797924739 
1996	 0.283039476476969 
1997	 0.281156441799287 
1998	 0.281285260852755 
1999	 0.283123796348677 
2000	 0.28443023284989 
2001	 0.288330114201132 
2002	 0.291763944051887 
2003	 0.296257819675961 
2004	 0.303110479847032 
2005	 0.306994368841185 
2006	 0.309488726594995 
2007	 0.31061185329045 
2008	 0.309971105442164 
2009	 0.306896688339802 
2010	 0.308352302536289 
2011	 0.310931947657647 
2012	 0.309596507067936 
2013	 0.309394173992914 
2014	 0.311500001806108 
2015	 0.31392743183451 
2016	 0.317567939282209 
2017	 0.322470246097625 
2018	 0.32334546222301 
2019	 0.32405809202426 
2020	 0.32313090744372 
2021	 0.323800544768479 
2022	 0.324081959575537 
2023	 0.32585654567738 
2024	 0.329152141951423 
2025	 0.331321465818184 
2026	 0.332078837028856 
2027	 0.333152630295853 
2028	 0.333407896609989 
2029	 0.334060409986474 
2030	 0.335982088880512 
2031	 0.337876374748122 
2032	 0.339801197682308 
2033	 0.342211951213505 
2034	 0.343196065683704 
2035	 0.344361855571237 
2036	 0.346410227501519 
2037	 0.346741563587335 
2038	 0.348648396405598 
2039	 0.351059223145223 
2040	 0.352267187966662 
2041	 0.355698169672713 
2042	 0.358152994811666 
2043	 0.359461722077418 
2044	 0.362311562512754 
2045	 0.364219110045931 
2046	 0.365072941007353 
2047	 0.365906063370591 
2048	 0.367801694483096 
2049	 0.368748480514834 
2050	 0.368048179999125 
2051	 0.368202095052631 
2052	 0.369788006447531 
2053	 0.37127921394655 
2054	 0.374340554685085 
2055	 0.376489634393382 
2056	 0.378460999631082 
2057	 0.381871619641319 
2058	 0.383390688892122 
2059	 0.385102371051204 
2060	 0.387644310883675 
2061	 0.390216365075005 
2062	 0.390633941284562 
2063	 0.390681064405851 
2064	 0.390258761486848 
2065	 0.389931621464423 
2066	 0.389591446134512 
2067	 0.390882192489655 
2068	 0.39465055590311 
2069	 0.397616808308045 
2070	 0.400479157897504 
2071	 0.402897849485059 
2072	 0.40445343700499 
2073	 0.405155874694952 
2074	 0.406462947160651 
2075	 0.406797291975164 
2076	 0.407018139836825 
2077	 0.408582945931903 
2078	 0.410252612996043 
2079	 0.412278871977859 
2080	 0.413981368480526 
2081	 0.415304181983596 
2082	 0.41579968901942 
2083	 0.415194253959521 
2084	 0.416578129081084 
2085	 0.419732863476904 
2086	 0.421969046102111 
2087	 0.423718787005351 
2088	 0.425926845573249 
2089	 0.427459778061499 
2090	 0.42744117959242 
2091	 0.42797053812447 
2092	 0.429794651721444 
2093	 0.431256128612237 
2094	 0.431647545185648 
2095	 0.433122734797438 
2096	 0.433561306567532 
2097	 0.433408855494397 
2098	 0.4364116643228 
2099	 0.437895709201055 
2100	 0.438432520145886 
2101	 0.441131125132572 
2102	 0.442591541315813 
2103	 0.442598124886889 
2104	 0.442805636374346 
2105	 0.444648055653398 
2106	 0.445247845559188 
2107	 0.446019465265287 
2108	 0.448088389074927 
2109	 0.450024704129317 
2110	 0.450979103713395 
2111	 0.452207628636814 
2112	 0.4534855324225 
2113	 0.454187554833327 
2114	 0.455651506214534 
2115	 0.456199675015117 
2116	 0.456468623439207 
2117	 0.456943807560177 
2118	 0.456588291226007 
2119	 0.457376616485729 
2120	 0.458943643365835 
2121	 0.460746366117403 
2122	 0.462593648823867 
2123	 0.46442058339889 
2124	 0.464129708523116 
2125	 0.463427234768598 
2126	 0.463752952822686 
2127	 0.464819942656319 
2128	 0.467279869432483 
2129	 0.469750976070404 
2130	 0.470510446130728 
2131	 0.471025978487782 
2132	 0.472534400677388 
2133	 0.473873437856695 
2134	 0.474323786462191 
2135	 0.47466635282379 
2136	 0.474237942853648 
2137	 0.474198834464788 
2138	 0.475079442185315 
2139	 0.475853099745662 
2140	 0.47755781184967 
2141	 0.478171537928894 
2142	 0.476279799162203 
2143	 0.476145226618101 
2144	 0.47776562689487 
2145	 0.479729311430636 
2146	 0.48320837073799 
2147	 0.485323672520287 
2148	 0.485915105808322 
2149	 0.486172480213682 
2150	 0.485760750342242 
2151	 0.486279317968592 
2152	 0.488017097520825 
2153	 0.489070522909874 
2154	 0.490200737680466 
2155	 0.491221176565867 
2156	 0.491680111792952 
2157	 0.492892732068952 
2158	 0.493541656153009 
2159	 0.494158082173745 
2160	 0.495735494327703 
2161	 0.495559816688764 
2162	 0.495907519380372 
2163	 0.497652815498581 
2164	 0.497350925478319 
2165	 0.49707607384234 
2166	 0.497326363840053 
2167	 0.495374984486056 
2168	 0.494982060861284 
2169	 0.495461607457351 
2170	 0.496773661369075 
2171	 0.49877994421805 
2172	 0.501466262624571 
2173	 0.503324381040728 
2174	 0.503960645848947 
2175	 0.504877632305722 
2176	 0.505279684457331 
2177	 0.506146734452695 
2178	 0.506645525835134 
2179	 0.506350045312172 
2180	 0.507260573713606 
2181	 0.507510863060497 
2182	 0.508370004396591 
2183	 0.511631661914754 
2184	 0.512442180847017 
2185	 0.512684575529931 
2186	 0.514758956955076 
2187	 0.515695896991635 
2188	 0.514997662470105 
2189	 0.515528038046981 
2190	 0.517404719800898 
2191	 0.516451107055291 
2192	 0.515070876104372 
2193	 0.513787125405471 
2194	 0.513030846717334 
2195	 0.513581476224301 
2196	 0.515128581777793 
2197	 0.516481362261798 
2198	 0.517132253724321 
2199	 0.519147887117132 
2200	 0.521591491529231 
2201	 0.522596148196689 
2202	 0.52294784405473 
2203	 0.521467258621529 
2204	 0.519801840517895 
2205	 0.519302851944453 
2206	 0.517899017343041 
2207	 0.518352668608019 
2208	 0.519863719520927 
2209	 0.521907784396762 
2210	 0.523219219622908 
2211	 0.526151789285955 
2212	 0.529006470469695 
2213	 0.525966479935727 
2214	 0.523967178829369 
2215	 0.522196709565118 
2216	 0.518346232779721 
2217	 0.518192484277139 
2218	 0.518620658691108 
2219	 0.516378825122203 
2220	 0.515088619779956 
2221	 0.516360973424333 
2222	 0.51673291221456 
2223	 0.517035420625549 
2224	 0.518792080993304 
2225	 0.518240782460467 
2226	 0.517280852181444 
2227	 0.518362947099266 
2228	 0.519872902143199 
2229	 0.520401692189492 
2230	 0.518817789469658 
2231	 0.517784470902589 
2232	 0.516810051595598 
2233	 0.515542560501761 
2234	 0.513264339888171 
2235	 0.513145911835688 
2236	 0.512831200310003 
2237	 0.510980298530201 
2238	 0.509790748866438 
2239	 0.509550208044934 
2240	 0.509926358626159 
2241	 0.507926344254147 
2242	 0.507121887449128 
2243	 0.506111131093469 
2244	 0.502194058575323 
2245	 0.502506677580316 
2246	 0.501985936263066 
2247	 0.499998865059692 
2248	 0.501338991226762 
2249	 0.500839089793685 
2250	 0.499411037386476 
2251	 0.497885613917236 
2252	 0.495440092476054 
2253	 0.493153712683835 
2254	 0.491879803896297 
2255	 0.491878866539988 
2256	 0.49059010735399 
2257	 0.488466432635168 
2258	 0.487884796420845 
2259	 0.486625993312632 
2260	 0.483468814324959 
2261	 0.482806374895935 
2262	 0.47985126479529 
2263	 0.478284423937128 
2264	 0.479122019623945 
2265	 0.477484959257666 
2266	 0.477596493132733 
2267	 0.477121156814577 
2268	 0.476864067578125 
2269	 0.480178552873409 
2270	 0.481172017000261 
2271	 0.47892068886228 
2272	 0.474152650658655 
2273	 0.468879238575303 
2274	 0.466802501075421 
2275	 0.466047322783042 
2276	 0.466287991537095 
2277	 0.468440553783663 
2278	 0.467473707486405 
2279	 0.464840878475169 
2280	 0.465040239420999 
2281	 0.462964451694938 
2282	 0.461377678481293 
2283	 0.461940008634102 
2284	 0.460888802329038 
2285	 0.46012875146603 
2286	 0.460166346389904 
2287	 0.460877366220864 
2288	 0.461335888053628 
2289	 0.460109513141223 
2290	 0.45947001182277 
2291	 0.460015971883681 
2292	 0.461041893941819 
2293	 0.460408758339378 
2294	 0.45788245569266 
2295	 0.453346635791618 
2296	 0.445018950001751 
2297	 0.441254939559542 
2298	 0.441408466255611 
2299	 0.439788630430373 
2300	 0.438884111812069 
2301	 0.438748372351865 
2302	 0.440475482900275 
2303	 0.442406460694316 
2304	 0.443185490790416 
2305	 0.444959366154885 
2306	 0.443706088798401 
2307	 0.441155289446799 
2308	 0.444866637730123 
2309	 0.447465565424323 
2310	 0.446671148035 
2311	 0.445997035399812 
2312	 0.43941175332531 
2313	 0.434918521375734 
2314	 0.436191397205529 
2315	 0.434928325273792 
2316	 0.432236145742017 
2317	 0.431516843922938 
2318	 0.432054744037961 
2319	 0.431474887628987 
2320	 0.433509888169735 
2321	 0.435409615491765 
2322	 0.435044064939995 
2323	 0.433890130342855 
2324	 0.433502692179216 
2325	 0.434677670124541 
2326	 0.429152220600927 
2327	 0.423258672697627 
2328	 0.418287843846213 
2329	 0.414444278553113 
2330	 0.414918058923597 
2331	 0.416847627444624 
2332	 0.417784654176638 
2333	 0.416282199465794 
2334	 0.415107564681342 
2335	 0.417732977614818 
2336	 0.420186818294515 
2337	 0.419618565490573 
2338	 0.415866675050627 
2339	 0.409191692546694 
2340	 0.405207192947028 
2341	 0.406641184790489 
2342	 0.404500544477136 
2343	 0.401213657551217 
2344	 0.398652594394149 
2345	 0.392232976855584 
2346	 0.394049174124171 
2347	 0.400291523936016 
2348	 0.398532294581071 
2349	 0.393912691582104 
2350	 0.391420992860715 
2351	 0.390873915972446 
2352	 0.393208685151343 
2353	 0.402402704594685 
2354	 0.406910323620545 
2355	 0.399514748430748 
2356	 0.397393384897102 
2357	 0.39531345596154 
2358	 0.385943330588692 
2359	 0.382328468027936 
2360	 0.377940554534694 
2361	 0.372545597829279 
2362	 0.376803048251968 
2363	 0.381953302402236 
2364	 0.385201969690959 
2365	 0.386863990945982 
2366	 0.384121759778431 
2367	 0.383340448522531 
2368	 0.38816238826731 
2369	 0.393060405976714 
2370	 0.396442393033153 
2371	 0.402320117121411 
2372	 0.401033292946927 
2373	 0.38832736027501 
2374	 0.38379230422896 
2375	 0.378749022064899 
2376	 0.374922755099985 
2377	 0.377973012493956 
2378	 0.376068548653652 
2379	 0.370745078470129 
2380	 0.366236690184514 
2381	 0.355073824722165 
2382	 0.354808429422579 
2383	 0.365369961505677 
2384	 0.368038856431822 
2385	 0.378730283981432 
2386	 0.376765962471693 
2387	 0.355975671255288 
2388	 0.350523875716637 
2389	 0.348055948804192 
2390	 0.343379993126915 
2391	 0.345662504926202 
2392	 0.342321765861536 
2393	 0.331244985758369 
2394	 0.329047152090963 
2395	 0.332481785439762 
2396	 0.336770188206256 
2397	 0.345279919924939 
2398	 0.346824964741377 
2399	 0.346464663442699 
2400	 0.348236382872234 
2401	 0.344164770053248 
2402	 0.350326683914462 
2403	 0.359331222827231 
2404	 0.363075939800895 
2405	 0.373911394084428 
2406	 0.372263822722203 
2407	 0.368867121086496 
2408	 0.363596772554078 
2409	 0.339076410044784 
2410	 0.334024836899803 
2411	 0.335638277621282 
2412	 0.337881135344783 
2413	 0.36029467600594 
2414	 0.365565660157507 
2415	 0.36233481962298 
2416	 0.362778245789085 
2417	 0.359120968442564 
2418	 0.360180625282846 
2419	 0.366806294391656 
2420	 0.366486114552516 
2421	 0.347106688696896 
2422	 0.342505894414264 
2423	 0.349087871898854 
2424	 0.336764754865502 
2425	 0.339191931711354 
2426	 0.339353120733571 
2427	 0.31712577866081 
2428	 0.315153654463789 
2429	 0.319310552684079 
2430	 0.308691871514664 
2431	 0.314363828835805 
2432	 0.325056534368524 
2433	 0.317184090462983 
2434	 0.309647670623698 
2435	 0.293735355315868 
2436	 0.287115492913473 
2437	 0.279759507413128 
2438	 0.283113826302056 
2439	 0.298907987217466 
2440	 0.317536692801862 
2441	 0.36220488100454 
2442	 0.374701583687979 
2443	 0.372163729365831 
2444	 0.359791045002941 
2445	 0.297855036167805 
2446	 0.28194068717921 
2447	 0.29537772992118 
2448	 0.29440954890386 
2449	 0.325226277525845 
2450	 0.324426256336023 
2451	 0.282089775453873 
2452	 0.273381992971289 
2453	 0.260204880475902 
2454	 0.258537614483893 
2455	 0.294877856473178 
2456	 0.293053682782793 
2457	 0.270796641044459 
2458	 0.270632201776602 
2459	 0.263628622703729 
2460	 0.261920137972629 
2461	 0.282219318294757 
2462	 0.283787911975868 
2463	 0.257346093400847 
2464	 0.253915823562976 
2465	 0.260024934631428 
2466	 0.282965405030307 
2467	 0.343756705174216 
2468	 0.369978313706081 
2469	 0.390791616845604 
2470	 0.386956929864485 
2471	 0.358356882133358 
2472	 0.331426161123121 
2473	 0.258388296829305 
2474	 0.255606553467748 
2475	 0.273986486594887 
2476	 0.285828767957571 
2477	 0.413578461435677 
2478	 0.42066194260923 
2479	 0.286536058574762 
2480	 0.271076643966969 
2481	 0.239406552767681 
2482	 0.236168284581021 
2483	 0.393152444853801 
2484	 0.390049908398564 
2485	 0.23114749312349 
2486	 0.223177084693444 
2487	 0.217662390911906 
2488	 0.228121651800872 
2489	 0.173264751543747 
2490	 0.253352707267637 
2491	 0.299379598277955 
2492	 0.353306743701655 
2493	 0.504161951820736 
2494	 0.502666390121811 
2495	 0.357976055422456 
2496	 0.286946737733778 
2497	 0.346330874798946 
2498	 0.251472629122835 
2499	 7.59814124399015E-02 
2500	-5.45008493214246E-02 
