Wavelength	ref00066.asd
350	 2.27850329508028E-02 
351	 2.21320560508862E-02 
352	 2.18849432212488E-02 
353	 2.28862079426782E-02 
354	 2.22616610295436E-02 
355	 2.13584206654565E-02 
356	 0.021371505300463 
357	 2.15987052165261E-02 
358	 2.16886305962806E-02 
359	 2.18193372019183E-02 
360	 0.022052368021888 
361	 2.10874673419349E-02 
362	 2.04433953677542E-02 
363	 2.06168773795382E-02 
364	 2.12001051477169E-02 
365	 2.08083590727954E-02 
366	 2.03791667541765E-02 
367	 0.020322191412591 
368	 1.98939810517047E-02 
369	 2.00772867808425E-02 
370	 2.01474581634333E-02 
371	 1.95768594825382E-02 
372	 1.96967591567306E-02 
373	 1.96807610314463E-02 
374	 0.019540810852464 
375	 1.96641081919517E-02 
376	 1.96953080820029E-02 
377	 0.019970090326574 
378	 2.03462997768635E-02 
379	 2.00815990196484E-02 
380	 2.02012693677575E-02 
381	 2.04911696822311E-02 
382	 2.06262852385318E-02 
383	 2.06980854911809E-02 
384	 2.12193709756756E-02 
385	 0.021783252762794 
386	 2.17174526375852E-02 
387	 2.14867381056441E-02 
388	 2.20317710429603E-02 
389	 2.30443858064811E-02 
390	 2.30093890626024E-02 
391	 2.30777650630054E-02 
392	 2.37170159096142E-02 
393	 2.47902853256511E-02 
394	 2.50779514397315E-02 
395	 2.59656718813234E-02 
396	 2.71743215442208E-02 
397	 2.80246958137841E-02 
398	 2.90291889957231E-02 
399	 3.01491386131016E-02 
400	 3.13672935127446E-02 
401	 3.26933807673784E-02 
402	 0.033779842403559 
403	 3.51540216262845E-02 
404	 3.71248791039405E-02 
405	 3.93532043808633E-02 
406	 4.19430813275065E-02 
407	 4.45657949906435E-02 
408	 4.69695111676821E-02 
409	 5.00431021998701E-02 
410	 5.33623278345419E-02 
411	 5.67796414180817E-02 
412	 6.04259594162886E-02 
413	 6.40563670984623E-02 
414	 6.78022862010741E-02 
415	 7.17510120406677E-02 
416	 7.57589055240259E-02 
417	 8.01384418618875E-02 
418	 8.45508395887976E-02 
419	 0.088632762044575 
420	 9.30774707702138E-02 
421	 9.76504702231628E-02 
422	 0.102084043083453 
423	 0.106176644936389 
424	 0.110299801050766 
425	 0.114421414480325 
426	 0.118464667895676 
427	 0.122388777098924 
428	 0.126366116832395 
429	 0.130351444697581 
430	 0.134246148891349 
431	 0.138181329604597 
432	 0.141763435828951 
433	 0.144905428305094 
434	 0.147822621662406 
435	 0.150619428196225 
436	 0.153276156796991 
437	 0.155753021855882 
438	 0.158007592742415 
439	 0.160239632013884 
440	 0.162314656652277 
441	 0.164049738190316 
442	 0.165704057608502 
443	 0.167208014015457 
444	 0.168532226641476 
445	 0.169711536507862 
446	 0.170837181340002 
447	 0.171889723272006 
448	 0.172853963005601 
449	 0.173764728742521 
450	 0.174723615582395 
451	 0.17570905309293 
452	 0.176668843378697 
453	 0.177718641999159 
454	 0.178926371727626 
455	 0.180248640908464 
456	 0.181525524578148 
457	 0.183015645634413 
458	 0.184626528634409 
459	 0.186271174675068 
460	 0.188125383267367 
461	 0.190104411729223 
462	 0.192068219628568 
463	 0.193886041973659 
464	 0.195843245259879 
465	 0.197756846994386 
466	 0.199510230992784 
467	 0.201159599614898 
468	 0.202636188638562 
469	 0.203833168051586 
470	 0.204706237171459 
471	 0.205462049824845 
472	 0.206038044602467 
473	 0.20634695460075 
474	 0.206324639992722 
475	 0.206307897187302 
476	 0.206179626087395 
477	 0.205916115935259 
478	 0.205789344116342 
479	 0.205741658388021 
480	 0.205794696704688 
481	 0.205995744107815 
482	 0.206415389733323 
483	 0.206974397121848 
484	 0.207739201482378 
485	 0.208903094925067 
486	 0.210171237664132 
487	 0.211629611463841 
488	 0.21334790874148 
489	 0.215169376639276 
490	 0.21715626147045 
491	 0.219191072613187 
492	 0.221193221788059 
493	 0.223621810864496 
494	 0.226418842848542 
495	 0.229477160620214 
496	 0.232689108529757 
497	 0.236224205780441 
498	 0.240112370590067 
499	 0.244290453688714 
500	 0.248501626897441 
501	 0.25315220333155 
502	 0.258113536455016 
503	 0.262946692633859 
504	 0.267711700113757 
505	 0.272528086641889 
506	 0.277419950203763 
507	 0.282228326142886 
508	 0.287094971106785 
509	 0.291914820178353 
510	 0.296577237058501 
511	 0.301309148220297 
512	 0.30598165405757 
513	 0.310462829008035 
514	 0.314661254368357 
515	 0.318929173136141 
516	 0.323169475169783 
517	 0.327259844988747 
518	 0.331291774994413 
519	 0.335289479640564 
520	 0.33897790890696 
521	 0.342116859825632 
522	 0.345276887998916 
523	 0.348196096966678 
524	 0.350825697567229 
525	 0.353376712822947 
526	 0.355781156134528 
527	 0.358084619608697 
528	 0.360325292708807 
529	 0.362438256862783 
530	 0.364407868216152 
531	 0.366165653934828 
532	 0.367676877940937 
533	 0.369400372053774 
534	 0.371155074755969 
535	 0.372749162294067 
536	 0.374112177635252 
537	 0.375514576511309 
538	 0.376919001393615 
539	 0.378228701865849 
540	 0.379550754790463 
541	 0.381014189582961 
542	 0.382490815062543 
543	 0.383671826190576 
544	 0.385063756923843 
545	 0.386516603931225 
546	 0.387861948932236 
547	 0.389121656505702 
548	 0.39050538195481 
549	 0.391916592254418 
550	 0.393191174413817 
551	 0.39466832464413 
552	 0.396080418884002 
553	 0.397393319197928 
554	 0.39889696282987 
555	 0.400410503936744 
556	 0.40195387009233 
557	 0.403589159028014 
558	 0.405321524331305 
559	 0.407349097043671 
560	 0.409521805584579 
561	 0.411530124199105 
562	 0.413828692826216 
563	 0.416231067384618 
564	 0.418728820435552 
565	 0.421771766157988 
566	 0.424799151008517 
567	 0.427859196847074 
568	 0.431113109447386 
569	 0.434231718432402 
570	 0.437286369876123 
571	 0.440358026367435 
572	 0.443521562000028 
573	 0.446674471095499 
574	 0.449828319070934 
575	 0.453037905449133 
576	 0.456317123751667 
577	 0.459738824900034 
578	 0.463283751235088 
579	 0.466925732181613 
580	 0.470909746447438 
581	 0.474929107378988 
582	 0.478769857941209 
583	 0.482420982374766 
584	 0.485859262249778 
585	 0.489173819563091 
586	 0.492455259346929 
587	 0.495744295340249 
588	 0.498955704191439 
589	 0.502158903350689 
590	 0.505466975915819 
591	 0.50882252817663 
592	 0.512036814515151 
593	 0.515147552822494 
594	 0.518428000711172 
595	 0.521763307167288 
596	 0.52502338675849 
597	 0.528113500849015 
598	 0.531065843612857 
599	 0.534001351533507 
600	 0.536854246568546 
601	 0.539374514339627 
602	 0.541785568555416 
603	 0.544112911781052 
604	 0.54631431928424 
605	 0.548292066880312 
606	 0.550155227048849 
607	 0.551941108832875 
608	 0.553635694644609 
609	 0.555187647615565 
610	 0.5566451938806 
611	 0.557980721898342 
612	 0.559058551319405 
613	 0.560070086552998 
614	 0.561044000603324 
615	 0.561954565501154 
616	 0.562768039562497 
617	 0.563584917261926 
618	 0.564395072408163 
619	 0.56513724359829 
620	 0.565973840005883 
621	 0.566758975138846 
622	 0.567425562508656 
623	 0.568137577057985 
624	 0.568784550564893 
625	 0.56947630970906 
626	 0.570322108165489 
627	 0.571048662966477 
628	 0.571763418701428 
629	 0.572449452905509 
630	 0.572961548397071 
631	 0.573588273639918 
632	 0.574187368573818 
633	 0.57462514404465 
634	 0.575018496040011 
635	 0.575315855580769 
636	 0.575490773593224 
637	 0.575526361420914 
638	 0.575405626483222 
639	 0.57517911324613 
640	 0.57486798951812 
641	 0.574457132099365 
642	 0.574054409753574 
643	 0.573531747181844 
644	 0.57280887755091 
645	 0.572172378899693 
646	 0.571432134916421 
647	 0.570614686309431 
648	 0.569883002680226 
649	 0.569309758282473 
650	 0.568730651565909 
651	 0.568110234898471 
652	 0.567635911925618 
653	 0.567217537206187 
654	 0.56672479175121 
655	 0.565985604493935 
656	 0.564799772546928 
657	 0.5634830512206 
658	 0.562288773991474 
659	 0.561085644917271 
660	 0.559324542749798 
661	 0.557329940368942 
662	 0.555332425594961 
663	 0.553016342089992 
664	 0.550599032049859 
665	 0.548126999995923 
666	 0.545631430774864 
667	 0.54343910763268 
668	 0.541239248088725 
669	 0.539078664170995 
670	 0.537301294400576 
671	 0.535753009284232 
672	 0.534367796384621 
673	 0.53315986231428 
674	 0.532245286523144 
675	 0.531601149313742 
676	 0.531180909764865 
677	 0.530962547728612 
678	 0.531087922064598 
679	 0.531668077435771 
680	 0.532822503086247 
681	 0.534675581376845 
682	 0.537372860469729 
683	 0.54083770294426 
684	 0.545025412781923 
685	 0.550171090116156 
686	 0.555642556686431 
687	 0.561505870927966 
688	 0.567459015225183 
689	 0.572905340615639 
690	 0.577978368635551 
691	 0.582980555848436 
692	 0.587787743367825 
693	 0.592447025396337 
694	 0.596748480141047 
695	 0.600578623993959 
696	 0.604409648626148 
697	 0.60785505889904 
698	 0.61104281519414 
699	 0.614246269025461 
700	 0.61726742751502 
701	 0.620045796589489 
702	 0.622603555558411 
703	 0.625038689086933 
704	 0.627129506640645 
705	 0.629165828517382 
706	 0.631356675958874 
707	 0.633326607633261 
708	 0.63537647913034 
709	 0.637413266464432 
710	 0.639199867181085 
711	 0.640973334402802 
712	 0.642765525527851 
713	 0.644582847446922 
714	 0.646424218899121 
715	 0.648373641338505 
716	 0.650446332460562 
717	 0.652700669497057 
718	 0.655232030084575 
719	 0.657225115381906 
720	 0.65860688104724 
721	 0.659836277111353 
722	 0.661043125524393 
723	 0.662620855218471 
724	 0.664631751317561 
725	 0.66654220683491 
726	 0.668004615120022 
727	 0.669368132541014 
728	 0.670905710014098 
729	 0.672200864295121 
730	 0.673365563236955 
731	 0.674399022709849 
732	 0.67527832188532 
733	 0.675949881443857 
734	 0.676824646500638 
735	 0.677854759458708 
736	 0.678588525525216 
737	 0.6796328645502 
738	 0.680665674154525 
739	 0.681442823538186 
740	 0.682168335867715 
741	 0.6828991447343 
742	 0.683555264160851 
743	 0.68409536765621 
744	 0.68494627319754 
745	 0.685565215432795 
746	 0.686022821045641 
747	 0.686802027480179 
748	 0.687184161980854 
749	 0.687622371761347 
750	 0.688290448323419 
751	 0.688628362956802 
752	 0.689010700010215 
753	 0.689417883381147 
754	 0.689746916667225 
755	 0.689972216290189 
756	 0.690360521862233 
757	 0.690816282784142 
758	 0.691075112750346 
759	 0.691393790132107 
760	 0.691900643754261 
761	 0.692568855319088 
762	 0.692872382963412 
763	 0.693065701369241 
764	 0.693174496909764 
765	 0.693176557944513 
766	 0.693105327439287 
767	 0.693213011271354 
768	 0.693388886756297 
769	 0.693478689208857 
770	 0.693613156589293 
771	 0.693894977602651 
772	 0.69423410755746 
773	 0.694400253456714 
774	 0.694514230821837 
775	 0.694714785267484 
776	 0.695019153001125 
777	 0.695242909386852 
778	 0.695337665131761 
779	 0.695508864480577 
780	 0.695881431939495 
781	 0.696040675636931 
782	 0.696268880652624 
783	 0.696564738640189 
784	 0.696797999857584 
785	 0.697116098617467 
786	 0.697346558234209 
787	 0.697540654506099 
788	 0.697985946362561 
789	 0.698333782786832 
790	 0.698626738822274 
791	 0.698923461177914 
792	 0.69915113992684 
793	 0.699422755536499 
794	 0.699682499190004 
795	 0.699876802363197 
796	 0.70018980637319 
797	 0.700521833919878 
798	 0.70081679275134 
799	 0.701055614666994 
800	 0.701251689969789 
801	 0.70145767464171 
802	 0.701726752462731 
803	 0.70209891419934 
804	 0.702423650598343 
805	 0.702700463353566 
806	 0.702948443456546 
807	 0.703152882467395 
808	 0.703471950198421 
809	 0.703774259459001 
810	 0.703960604801678 
811	 0.704436526554323 
812	 0.705049429095638 
813	 0.705675884047265 
814	 0.706207223302694 
815	 0.706518167751087 
816	 0.706962617788969 
817	 0.707422458819649 
818	 0.707308013976964 
819	 0.707318688074651 
820	 0.707335643520068 
821	 0.707378427072633 
822	 0.707944053757764 
823	 0.7079827787646 
824	 0.707856770873471 
825	 0.708037694932787 
826	 0.708067062173271 
827	 0.707980410867191 
828	 0.707957403953682 
829	 0.708142890289284 
830	 0.708093948186906 
831	 0.708131746099195 
832	 0.708144340608596 
833	 0.707793695715441 
834	 0.70794341725077 
835	 0.708022059867663 
836	 0.707917660734749 
837	 0.708212169739714 
838	 0.708165026883806 
839	 0.708119970263972 
840	 0.708333113837204 
841	 0.708472637461176 
842	 0.708604558563031 
843	 0.708720388537531 
844	 0.7088288955023 
845	 0.709051390403048 
846	 0.709178114250665 
847	 0.709289637534925 
848	 0.709510722308539 
849	 0.709435214131752 
850	 0.709483036861961 
851	 0.709645052604561 
852	 0.709616799944405 
853	 0.709746774325356 
854	 0.710071270382983 
855	 0.71039130245768 
856	 0.710353786224502 
857	 0.710602147300733 
858	 0.710895831700407 
859	 0.711053780952789 
860	 0.711209341347151 
861	 0.711446786316308 
862	 0.711574808698727 
863	 0.711488579808688 
864	 0.711461103296397 
865	 0.711646319984679 
866	 0.711849616320811 
867	 0.711888320414491 
868	 0.712173464812182 
869	 0.712457608919995 
870	 0.712711797852884 
871	 0.712958525493777 
872	 0.712845218787195 
873	 0.712904700107604 
874	 0.713105357495627 
875	 0.713067185474871 
876	 0.713280003301208 
877	 0.713505171938359 
878	 0.713622922849177 
879	 0.713685241541841 
880	 0.713379448605535 
881	 0.713305484922054 
882	 0.713592076501758 
883	 0.713585497107195 
884	 0.713682747213846 
885	 0.71390611350572 
886	 0.714168846258975 
887	 0.714330049450705 
888	 0.714267893130264 
889	 0.714341325374158 
890	 0.714686774997103 
891	 0.714541831271728 
892	 0.714937957253934 
893	 0.71526085763752 
894	 0.714915208076782 
895	 0.715411344340897 
896	 0.715661030476706 
897	 0.715643901520994 
898	 0.715792442462577 
899	 0.71621342346874 
900	 0.716448833624784 
901	 0.716452229370185 
902	 0.716455974054044 
903	 0.716786403413115 
904	 0.716392784147283 
905	 0.71581614917534 
906	 0.716299615784854 
907	 0.716474488559964 
908	 0.716983857850274 
909	 0.717517824663454 
910	 0.717088868506973 
911	 0.717023258308339 
912	 0.717023837759533 
913	 0.716974378824197 
914	 0.717073224767413 
915	 0.717159800932378 
916	 0.716923887755459 
917	 0.716421899503069 
918	 0.716091845469263 
919	 0.715678347199432 
920	 0.715371838606969 
921	 0.715174258444495 
922	 0.714801366667566 
923	 0.714541792741532 
924	 0.714290726599475 
925	 0.713910537936048 
926	 0.713363451175442 
927	 0.713874407345955 
928	 0.714139775223022 
929	 0.713409794314315 
930	 0.713192681266544 
931	 0.713680259869727 
932	 0.713855221022353 
933	 0.712957493639377 
934	 0.711859623495487 
935	 0.711014055665572 
936	 0.710944534960334 
937	 0.711090640744948 
938	 0.709259223569596 
939	 0.707608806213154 
940	 0.706567428278442 
941	 0.705626235487806 
942	 0.703395464713182 
943	 0.702933457043798 
944	 0.701776663069492 
945	 0.69879498903045 
946	 0.698731371558591 
947	 0.697152305813955 
948	 0.695205314808225 
949	 0.693997100007605 
950	 0.69143437737331 
951	 0.688694374115088 
952	 0.687071330495397 
953	 0.686519401431721 
954	 0.684381326586739 
955	 0.681497823978134 
956	 0.67946418079304 
957	 0.678536803990684 
958	 0.676175663180131 
959	 0.673965527448056 
960	 0.673232504887865 
961	 0.673550329914872 
962	 0.67176839266791 
963	 0.669555630630606 
964	 0.667528609725541 
965	 0.66622282036885 
966	 0.666256471755979 
967	 0.665855033292423 
968	 0.66519088283191 
969	 0.66474448779993 
970	 0.664700032011185 
971	 0.66349443880999 
972	 0.663109415312446 
973	 0.66413544097436 
974	 0.664285041566615 
975	 0.664288646873504 
976	 0.664024142446783 
977	 0.663661735239047 
978	 0.663785251962223 
979	 0.663854681850774 
980	 0.663453500512265 
981	 0.662715873773277 
982	 0.662364171981853 
983	 0.663359961870126 
984	 0.664058764159498 
985	 0.663913036969024 
986	 0.663827464122929 
987	 0.664825231142728 
988	 0.664590552543818 
989	 0.664097119045021 
990	 0.666241233344641 
991	 0.667962103855235 
992	 0.667083196295283 
993	 0.666117351524163 
994	 0.668655838187106 
995	 0.668354664996817 
996	 0.669385462592303 
997	 0.67099452611767 
998	 0.670603856142572 
999	 0.670020593728553 
1000	 0.669070911512465 
1001	 0.672032840102593 
1002	 0.672587321286166 
1003	 0.673363279053187 
1004	 0.674361890334218 
1005	 0.675178595827051 
1006	 0.676130104923689 
1007	 0.676978984015088 
1008	 0.677602893883109 
1009	 0.678382435235218 
1010	 0.679226942823588 
1011	 0.680158076967151 
1012	 0.681058210365714 
1013	 0.681927042075109 
1014	 0.682843051980586 
1015	 0.68371827751659 
1016	 0.684565396145874 
1017	 0.685401952508854 
1018	 0.6862721705029 
1019	 0.687237253790163 
1020	 0.688036727190978 
1021	 0.68869842488767 
1022	 0.689560034980429 
1023	 0.690453186048521 
1024	 0.69130397753659 
1025	 0.6922983273007 
1026	 0.693316420444278 
1027	 0.694374749222422 
1028	 0.69521210297104 
1029	 0.695939307116289 
1030	 0.696704482441442 
1031	 0.697320600228926 
1032	 0.69812515644537 
1033	 0.698908888582395 
1034	 0.699776513647512 
1035	 0.700579577357748 
1036	 0.701378812627238 
1037	 0.702126514015376 
1038	 0.702894796441681 
1039	 0.703589039235778 
1040	 0.704162097565285 
1041	 0.704711467026023 
1042	 0.705173698382796 
1043	 0.705576038404104 
1044	 0.706063548756143 
1045	 0.706522625860214 
1046	 0.706867885973926 
1047	 0.707358038299253 
1048	 0.7079525177965 
1049	 0.708402766223504 
1050	 0.708827714141399 
1051	 0.709249579967688 
1052	 0.70970411231223 
1053	 0.709974612265201 
1054	 0.71020512006301 
1055	 0.710588742104345 
1056	 0.710794636083628 
1057	 0.710756782861758 
1058	 0.710831510570595 
1059	 0.710890349367573 
1060	 0.710977203121766 
1061	 0.711266793542948 
1062	 0.711499430932282 
1063	 0.711584756069416 
1064	 0.711587222755879 
1065	 0.711659725833771 
1066	 0.711748800724345 
1067	 0.711827062613523 
1068	 0.711834390045141 
1069	 0.711919085855615 
1070	 0.711987619343623 
1071	 0.711964517432468 
1072	 0.711960541897685 
1073	 0.711973501406557 
1074	 0.71182399637242 
1075	 0.711671794827539 
1076	 0.711667658823415 
1077	 0.711627642073328 
1078	 0.711385251590308 
1079	 0.71118186676076 
1080	 0.711098797819218 
1081	 0.710959421337247 
1082	 0.710752000664122 
1083	 0.710726862722169 
1084	 0.710692007030106 
1085	 0.710375624723513 
1086	 0.710033799250514 
1087	 0.7096993824535 
1088	 0.709406121441099 
1089	 0.709245855435342 
1090	 0.709148886251573 
1091	 0.708978160281496 
1092	 0.708752664452928 
1093	 0.708604332969004 
1094	 0.708395344251267 
1095	 0.708150342274891 
1096	 0.707914202901433 
1097	 0.707587598574931 
1098	 0.707375270679051 
1099	 0.707222204925447 
1100	 0.707104237469256 
1101	 0.70687615187825 
1102	 0.70662889086251 
1103	 0.706407888338476 
1104	 0.70616049532896 
1105	 0.70605279843866 
1106	 0.706051057250205 
1107	 0.706021853316434 
1108	 0.706133451896963 
1109	 0.706194675996116 
1110	 0.706078585013848 
1111	 0.706031577887037 
1112	 0.70583118386722 
1113	 0.705720232628338 
1114	 0.70582387621634 
1115	 0.705801225308908 
1116	 0.705734696326556 
1117	 0.705514844142565 
1118	 0.705427749544679 
1119	 0.705075142343652 
1120	 0.704484282088285 
1121	 0.704013763309293 
1122	 0.703390231581615 
1123	 0.70250834550475 
1124	 0.701750131882297 
1125	 0.70087413720131 
1126	 0.699399065680823 
1127	 0.697642785695015 
1128	 0.695503462032103 
1129	 0.693066227854082 
1130	 0.690281957196003 
1131	 0.687270505405371 
1132	 0.684129515667775 
1133	 0.680662651147024 
1134	 0.677251954284954 
1135	 0.674018706378745 
1136	 0.670757838503853 
1137	 0.667603788951971 
1138	 0.664359642174286 
1139	 0.660975429595983 
1140	 0.65751431778149 
1141	 0.653970291328286 
1142	 0.650234021242238 
1143	 0.64648613792549 
1144	 0.642692745010153 
1145	 0.638712203664978 
1146	 0.634632708736816 
1147	 0.630505246741372 
1148	 0.62616139528767 
1149	 0.622191370494563 
1150	 0.618396266234242 
1151	 0.614971455129742 
1152	 0.611914492878199 
1153	 0.6091997626859 
1154	 0.606836699008131 
1155	 0.604653636622585 
1156	 0.602749999408394 
1157	 0.601061833924877 
1158	 0.599501141806252 
1159	 0.5980313320058 
1160	 0.596694614173557 
1161	 0.595486410189644 
1162	 0.5943677737107 
1163	 0.593272825051555 
1164	 0.592343811495147 
1165	 0.591470330889954 
1166	 0.590709487604784 
1167	 0.59008790383852 
1168	 0.589507557532588 
1169	 0.588984078444837 
1170	 0.58855057934718 
1171	 0.588095408540424 
1172	 0.587723873287271 
1173	 0.587375490755303 
1174	 0.586909557306899 
1175	 0.586516095429343 
1176	 0.586075523123137 
1177	 0.585694352620996 
1178	 0.585357545287922 
1179	 0.585013472758649 
1180	 0.584730764978511 
1181	 0.584331962333436 
1182	 0.583846884826255 
1183	 0.583415570865724 
1184	 0.582930162110282 
1185	 0.582518213956454 
1186	 0.582193811741431 
1187	 0.581830789940342 
1188	 0.581481455559521 
1189	 0.581098736284355 
1190	 0.580717400102927 
1191	 0.580383114067664 
1192	 0.580078258881201 
1193	 0.579801675653255 
1194	 0.579597987674004 
1195	 0.579446016949992 
1196	 0.579338062319588 
1197	 0.579308915218969 
1198	 0.579271459722834 
1199	 0.579241670561871 
1200	 0.579273074498324 
1201	 0.579324583849468 
1202	 0.579442380164651 
1203	 0.579666505882201 
1204	 0.579845205354881 
1205	 0.580052766509545 
1206	 0.580249567249204 
1207	 0.580361348258132 
1208	 0.580592620570932 
1209	 0.580940298074792 
1210	 0.581196695084276 
1211	 0.58150912221632 
1212	 0.581922842105197 
1213	 0.582283881542752 
1214	 0.582610006042477 
1215	 0.582989455923188 
1216	 0.583371446252767 
1217	 0.583838928063809 
1218	 0.584405510699742 
1219	 0.584892834722882 
1220	 0.58544354818578 
1221	 0.585890615937921 
1222	 0.586186584977386 
1223	 0.58660230767771 
1224	 0.587003545258717 
1225	 0.587496365932627 
1226	 0.588183648229539 
1227	 0.588696617591301 
1228	 0.589129111917645 
1229	 0.589601951284245 
1230	 0.590091721715507 
1231	 0.590548340302718 
1232	 0.590951963077604 
1233	 0.591407911891197 
1234	 0.591810724307124 
1235	 0.592045731067563 
1236	 0.592459498645307 
1237	 0.59297622404359 
1238	 0.593504827118745 
1239	 0.594115496087799 
1240	 0.594640448170328 
1241	 0.595178044876178 
1242	 0.595699003623522 
1243	 0.596194644279418 
1244	 0.596647141461918 
1245	 0.59705287714658 
1246	 0.597509805852929 
1247	 0.597958091282309 
1248	 0.598372177429227 
1249	 0.598851018688577 
1250	 0.599280186789953 
1251	 0.599648466994452 
1252	 0.599960232798764 
1253	 0.600318637162508 
1254	 0.600695061882376 
1255	 0.601048065380025 
1256	 0.60142605436557 
1257	 0.601727165057856 
1258	 0.602009623560417 
1259	 0.602235452462855 
1260	 0.602349403432929 
1261	 0.602535359287884 
1262	 0.602755486712547 
1263	 0.602897510867195 
1264	 0.603039377467166 
1265	 0.603134745388579 
1266	 0.603136313320177 
1267	 0.603142104458552 
1268	 0.603193231525337 
1269	 0.603129284823077 
1270	 0.602943703120483 
1271	 0.602794683000381 
1272	 0.602611321440316 
1273	 0.602421893486687 
1274	 0.602142664334371 
1275	 0.601864562040242 
1276	 0.601515229322968 
1277	 0.601051399612556 
1278	 0.600614249434616 
1279	 0.600201449328584 
1280	 0.599695363244476 
1281	 0.599109830856675 
1282	 0.598527508495008 
1283	 0.597921835682358 
1284	 0.597269398594493 
1285	 0.596598844290111 
1286	 0.595879813341328 
1287	 0.595137960880847 
1288	 0.594307826268196 
1289	 0.593328089939987 
1290	 0.59246243165102 
1291	 0.591624628002753 
1292	 0.59071914482206 
1293	 0.589919376682903 
1294	 0.588974858990828 
1295	 0.587889101784431 
1296	 0.586742545554021 
1297	 0.585523105450807 
1298	 0.584200212797245 
1299	 0.582897501785131 
1300	 0.58154349000613 
1301	 0.580132182488602 
1302	 0.578712466841485 
1303	 0.577191396224931 
1304	 0.57552199747262 
1305	 0.573915197253089 
1306	 0.572312307655124 
1307	 0.57062394788505 
1308	 0.568938296148205 
1309	 0.567140334636413 
1310	 0.565238526624465 
1311	 0.56327327762889 
1312	 0.561243456180629 
1313	 0.559129043758514 
1314	 0.556961646180744 
1315	 0.554677838276988 
1316	 0.552225737215605 
1317	 0.549812426361023 
1318	 0.547235503145595 
1319	 0.544778428656777 
1320	 0.542411836100757 
1321	 0.540018620787979 
1322	 0.537577339618321 
1323	 0.535088839547847 
1324	 0.532670277633722 
1325	 0.53022476240199 
1326	 0.52766972579997 
1327	 0.525142528218523 
1328	 0.52241593022554 
1329	 0.519432036085183 
1330	 0.51647217406146 
1331	 0.513434810111344 
1332	 0.510452748161478 
1333	 0.50739541591956 
1334	 0.504532377938371 
1335	 0.501774570605507 
1336	 0.499130262525091 
1337	 0.496445579824895 
1338	 0.494088247962446 
1339	 0.491785423143084 
1340	 0.489771402155556 
1341	 0.488107865695654 
1342	 0.486413910727243 
1343	 0.484670415704917 
1344	 0.483124742789712 
1345	 0.481658096224972 
1346	 0.480161655273303 
1347	 0.479188868813752 
1348	 0.478415614951445 
1349	 0.477285755718342 
1350	 0.476111599741188 
1351	 0.475123791213926 
1352	 0.474272994521534 
1353	 0.47317763388502 
1354	 0.473404620918308 
1355	 0.472726080169904 
1356	 0.471352452008825 
1357	 0.469639853547381 
1358	 0.46871732401576 
1359	 0.467676031305513 
1360	 0.468361563897371 
1361	 0.466099200145451 
1362	 0.465448377132809 
1363	 0.461531226402625 
1364	 0.454365151811196 
1365	 0.443086097347654 
1366	 0.43351332232924 
1367	 0.426989443492104 
1368	 0.419914857246164 
1369	 0.417183576892733 
1370	 0.420733765464924 
1371	 0.420415604035354 
1372	 0.420069698853117 
1373	 0.417954074912651 
1374	 0.412041644165552 
1375	 0.411974832664326 
1376	 0.405831578256331 
1377	 0.399656798351748 
1378	 0.394697620874121 
1379	 0.391306561929009 
1380	 0.378927904271957 
1381	 0.362545404453578 
1382	 0.349041301582461 
1383	 0.33103594854007 
1384	 0.318229692409448 
1385	 0.310378720884098 
1386	 0.30406691680973 
1387	 0.300315656737284 
1388	 0.293942235015016 
1389	 0.290542696203939 
1390	 0.28436196334624 
1391	 0.274693675569729 
1392	 0.26764024856314 
1393	 0.262591650414917 
1394	 0.255221761747362 
1395	 0.247908464729986 
1396	 0.239284174782306 
1397	 0.227303184235045 
1398	 0.219246601092387 
1399	 0.212133292697087 
1400	 0.205578789651662 
1401	 0.202678484997499 
1402	 0.196997927552784 
1403	 0.190147243569129 
1404	 0.183712821591314 
1405	 0.176249417039248 
1406	 0.17070472281689 
1407	 0.165790841617172 
1408	 0.16197370778069 
1409	 0.159102741130321 
1410	 0.155830254496898 
1411	 0.152795835251954 
1412	 0.149986595950581 
1413	 0.14749224938749 
1414	 0.145189298785248 
1415	 0.142900538610664 
1416	 0.141032748391526 
1417	 0.138748867863802 
1418	 0.13594398918811 
1419	 0.134003259712414 
1420	 0.132199202071652 
1421	 0.130772438149817 
1422	 0.129929759444792 
1423	 0.128795093312634 
1424	 0.127616450057249 
1425	 0.126492538218111 
1426	 0.125050684507788 
1427	 0.124130770286393 
1428	 0.123675618618896 
1429	 0.122786292477311 
1430	 0.12184292545357 
1431	 0.121008154504999 
1432	 0.11972373071204 
1433	 0.118885403721883 
1434	 0.118449924050614 
1435	 0.117989992532069 
1436	 0.117805041342683 
1437	 0.117392942510891 
1438	 0.116924655598827 
1439	 0.116487540858365 
1440	 0.115834089674916 
1441	 0.115355228615812 
1442	 0.114995402591109 
1443	 0.114697081863787 
1444	 0.11436349803242 
1445	 0.11443554288464 
1446	 0.114234556607897 
1447	 0.113888525089097 
1448	 0.113650675037785 
1449	 0.113257612228319 
1450	 0.113184584962423 
1451	 0.113298495143869 
1452	 0.113325730814323 
1453	 0.1134836643297 
1454	 0.113462890069523 
1455	 0.113299005677818 
1456	 0.11330172872617 
1457	 0.11324697777274 
1458	 0.113363766004345 
1459	 0.113639970045101 
1460	 0.113925545553983 
1461	 0.114314501169079 
1462	 0.114702010928611 
1463	 0.11512282482584 
1464	 0.115632750276553 
1465	 0.116244370756 
1466	 0.116853457314199 
1467	 0.117539939497942 
1468	 0.118257491653143 
1469	 0.118901667786919 
1470	 0.119689514342764 
1471	 0.120498104985367 
1472	 0.121412589030899 
1473	 0.122421427115196 
1474	 0.123392015105677 
1475	 0.124342240572521 
1476	 0.125361729421488 
1477	 0.126344509497342 
1478	 0.12737033987367 
1479	 0.128460699813383 
1480	 0.129554965342271 
1481	 0.130660091064826 
1482	 0.131744535296076 
1483	 0.132770179231009 
1484	 0.133875674457646 
1485	 0.134918666954392 
1486	 0.13606466623331 
1487	 0.137263639225783 
1488	 0.138567888933914 
1489	 0.139720441626877 
1490	 0.140925191211465 
1491	 0.14216315137597 
1492	 0.143288785325853 
1493	 0.144612645381911 
1494	 0.145893122811925 
1495	 0.147101811996643 
1496	 0.148299254203273 
1497	 0.149527447620491 
1498	 0.150707051610861 
1499	 0.15201321388267 
1500	 0.153410628876725 
1501	 0.154843779812527 
1502	 0.156375756865083 
1503	 0.157824053710581 
1504	 0.159312413453101 
1505	 0.160746468178207 
1506	 0.162083708799958 
1507	 0.163517201009514 
1508	 0.164952486762765 
1509	 0.166442841722714 
1510	 0.16800474226639 
1511	 0.169520684673796 
1512	 0.171093663359065 
1513	 0.172588495596362 
1514	 0.174002502830029 
1515	 0.175501881751535 
1516	 0.177068525402567 
1517	 0.178541852525877 
1518	 0.179987852666479 
1519	 0.181500698485663 
1520	 0.182963813574303 
1521	 0.184495341453388 
1522	 0.186164290074422 
1523	 0.187747299529284 
1524	 0.189330142693182 
1525	 0.19084411450719 
1526	 0.192262011733877 
1527	 0.1937988849393 
1528	 0.195360377890393 
1529	 0.196908731113986 
1530	 0.198587733263156 
1531	 0.200144558502976 
1532	 0.201580837303056 
1533	 0.203072596112592 
1534	 0.204562789736667 
1535	 0.206046955852045 
1536	 0.207546937473829 
1537	 0.209031686921156 
1538	 0.210470841616953 
1539	 0.211960008781297 
1540	 0.213505322777322 
1541	 0.21499917228568 
1542	 0.216476825049017 
1543	 0.217980508434277 
1544	 0.219508426510049 
1545	 0.220966400257389 
1546	 0.222392774088066 
1547	 0.223847030735699 
1548	 0.225253998662176 
1549	 0.226666689990386 
1550	 0.228115651984247 
1551	 0.229580589771228 
1552	 0.231027295416664 
1553	 0.232489671545271 
1554	 0.234041124747889 
1555	 0.235518781470454 
1556	 0.236962699436284 
1557	 0.238369925333519 
1558	 0.239705777312452 
1559	 0.241058603006099 
1560	 0.242432125299939 
1561	 0.243745942750678 
1562	 0.245062669169221 
1563	 0.24631949564413 
1564	 0.247501642445412 
1565	 0.248618648584503 
1566	 0.249815518783529 
1567	 0.25117915260411 
1568	 0.252508164798025 
1569	 0.253966836360016 
1570	 0.255290986996221 
1571	 0.256556254565488 
1572	 0.257851715818194 
1573	 0.259123095774208 
1574	 0.260389634612014 
1575	 0.261660303202416 
1576	 0.262867915398345 
1577	 0.263984219007426 
1578	 0.265221580082158 
1579	 0.266476059220698 
1580	 0.26767897490298 
1581	 0.268955769996812 
1582	 0.270074519314031 
1583	 0.271045559450625 
1584	 0.27213238687298 
1585	 0.273193114958614 
1586	 0.274334191959862 
1587	 0.275552615217633 
1588	 0.276735221931574 
1589	 0.2779824417183 
1590	 0.27908971783344 
1591	 0.280161140957894 
1592	 0.281159007634838 
1593	 0.282007294070017 
1594	 0.283021967807727 
1595	 0.284071506538909 
1596	 0.285116169775715 
1597	 0.286255848722365 
1598	 0.287294904038505 
1599	 0.288322127089946 
1600	 0.289217482430285 
1601	 0.290001393685487 
1602	 0.290891372613421 
1603	 0.291689236589958 
1604	 0.292607105647944 
1605	 0.29367944693698 
1606	 0.294620004492571 
1607	 0.295485768326723 
1608	 0.296437764040794 
1609	 0.297409814486087 
1610	 0.298342141718067 
1611	 0.299320002023132 
1612	 0.300197435807083 
1613	 0.301005361984753 
1614	 0.301792207000588 
1615	 0.302507254944342 
1616	 0.303294741378574 
1617	 0.304083151697158 
1618	 0.304846903103798 
1619	 0.305635070308697 
1620	 0.30641660393314 
1621	 0.307176976861034 
1622	 0.307901083211179 
1623	 0.308626114976781 
1624	 0.309381928508073 
1625	 0.310101605988752 
1626	 0.310838481052867 
1627	 0.311660207114933 
1628	 0.312351925367944 
1629	 0.312956339086923 
1630	 0.313624388170451 
1631	 0.314266163893783 
1632	 0.314948978683033 
1633	 0.315722711090587 
1634	 0.31632472781478 
1635	 0.316874647027414 
1636	 0.317422239362806 
1637	 0.31783292883488 
1638	 0.318379105798772 
1639	 0.31898982723589 
1640	 0.319572002259166 
1641	 0.320175667462746 
1642	 0.320769939620366 
1643	 0.321397477335878 
1644	 0.321902004721892 
1645	 0.322345254462611 
1646	 0.322805576138353 
1647	 0.323200115677537 
1648	 0.323584322165439 
1649	 0.323982483629499 
1650	 0.324381632320725 
1651	 0.324721265516888 
1652	 0.325074670364558 
1653	 0.325491738065774 
1654	 0.325820624855786 
1655	 0.326021100039333 
1656	 0.326430476522474 
1657	 0.326926624125057 
1658	 0.327284568292192 
1659	 0.327855656697876 
1660	 0.328161121036746 
1661	 0.328324287932758 
1662	 0.328685179831754 
1663	 0.328916776020735 
1664	 0.329035619036169 
1665	 0.329355351701918 
1666	 0.329663885158108 
1667	 0.329848305229151 
1668	 0.330184941522381 
1669	 0.330486389390312 
1670	 0.330541191100023 
1671	 0.330614443935598 
1672	 0.330636761948159 
1673	 0.330576098896292 
1674	 0.330843265232637 
1675	 0.330946104094142 
1676	 0.330891510106423 
1677	 0.331160122098831 
1678	 0.331179392491647 
1679	 0.331244555471147 
1680	 0.331393897958212 
1681	 0.331271100414848 
1682	 0.331236141524195 
1683	 0.33108363481489 
1684	 0.330759100749928 
1685	 0.330540213896983 
1686	 0.330293328050441 
1687	 0.330065179649533 
1688	 0.330092162833156 
1689	 0.330062730848085 
1690	 0.32979832263945 
1691	 0.329590631840766 
1692	 0.329362256930833 
1693	 0.32909116269261 
1694	 0.328857798347521 
1695	 0.32853319701424 
1696	 0.32807578240917 
1697	 0.32768110254512 
1698	 0.327208158382182 
1699	 0.326823963655933 
1700	 0.326533738040808 
1701	 0.326227539980481 
1702	 0.326098646122339 
1703	 0.325718392787532 
1704	 0.325150730912659 
1705	 0.324625354675486 
1706	 0.32385986490839 
1707	 0.323352056290366 
1708	 0.323142586360554 
1709	 0.322657949360358 
1710	 0.322119147675373 
1711	 0.321526786320167 
1712	 0.32075722890261 
1713	 0.320098586278857 
1714	 0.319568631313793 
1715	 0.318866543556173 
1716	 0.317988157326078 
1717	 0.317218880691113 
1718	 0.31632237197105 
1719	 0.315671855234697 
1720	 0.315317750007885 
1721	 0.314717092632057 
1722	 0.314127874656871 
1723	 0.313470203035284 
1724	 0.312692055060556 
1725	 0.311960269141307 
1726	 0.311206808525572 
1727	 0.310415519659695 
1728	 0.309559138049373 
1729	 0.308695407963399 
1730	 0.307787939860924 
1731	 0.307101092914194 
1732	 0.306371126204347 
1733	 0.305715464279339 
1734	 0.30523833418405 
1735	 0.304540455883921 
1736	 0.30381046229474 
1737	 0.303089090388194 
1738	 0.302267979842253 
1739	 0.301352041126068 
1740	 0.300230374497988 
1741	 0.299253460935831 
1742	 0.298221872903018 
1743	 0.297292255338608 
1744	 0.296625083797048 
1745	 0.295612974951439 
1746	 0.294479384935456 
1747	 0.293374740969129 
1748	 0.292191449630389 
1749	 0.291149970495564 
1750	 0.290212944281093 
1751	 0.289170787130169 
1752	 0.288033871787682 
1753	 0.28679078637679 
1754	 0.285485120759333 
1755	 0.284375476187606 
1756	 0.28338332600497 
1757	 0.282448366414764 
1758	 0.281606711026117 
1759	 0.280855188396423 
1760	 0.280014378550317 
1761	 0.279369503993061 
1762	 0.278458307148793 
1763	 0.277121098346127 
1764	 0.276122814109996 
1765	 0.275112428925995 
1766	 0.274305425763674 
1767	 0.273975313970809 
1768	 0.273172005034079 
1769	 0.272131886031812 
1770	 0.271352287386945 
1771	 0.270282441881595 
1772	 0.269833069950388 
1773	 0.270015883085536 
1774	 0.269763917122425 
1775	 0.269384160411983 
1776	 0.268329285695343 
1777	 0.267692151831824 
1778	 0.267532742735342 
1779	 0.267137833761984 
1780	 0.266961789764568 
1781	 0.266703429786242 
1782	 0.265989840417401 
1783	 0.265595494960686 
1784	 0.265509336212866 
1785	 0.265402435539412 
1786	 0.265402241753444 
1787	 0.265495020335871 
1788	 0.265380445236271 
1789	 0.265169331708967 
1790	 0.265464649126657 
1791	 0.265764304662662 
1792	 0.266005464402697 
1793	 0.26637953768419 
1794	 0.266657320221617 
1795	 0.26697626765243 
1796	 0.267054519877022 
1797	 0.267508663697261 
1798	 0.268128438438413 
1799	 0.268159134223685 
1800	 0.269124346631142 
1801	 0.269657015551556 
1802	 0.269379948299033 
1803	 0.269640039606192 
1804	 0.268881618553078 
1805	 0.26911828312712 
1806	 0.271180877617408 
1807	 0.272293075098269 
1808	 0.272769586107978 
1809	 0.274104879590516 
1810	 0.274530337620482 
1811	 0.274603665984116 
1812	 0.274467081891088 
1813	 0.273204254462517 
1814	 0.272563832126954 
1815	 0.270588754702208 
1816	 0.271136237133474 
1817	 0.276601615130372 
1818	 0.277716244385982 
1819	 0.277652798456324 
1820	 0.277799995533511 
1821	 0.277124016847739 
1822	 0.269871880932715 
1823	 0.267019810946569 
1824	 0.266241753922934 
1825	 0.267551642047746 
1826	 0.275647769384523 
1827	 0.278161230858301 
1828	 0.27972530778038 
1829	 0.285579267400198 
1830	 0.287136567304196 
1831	 0.269343095319453 
1832	 0.265061463711939 
1833	 0.271956938676146 
1834	 0.282461155186437 
1835	 0.317898915159867 
1836	 0.342685763402624 
1837	 0.362366382793949 
1838	 0.378206326091755 
1839	 0.380148072157202 
1840	 0.343408629098807 
1841	 0.335014373882295 
1842	 0.339146205350872 
1843	 0.327509451391107 
1844	 0.299541340012646 
1845	 0.296753594669338 
1846	 0.307592030738783 
1847	 0.305914612546603 
1848	 0.30488107308441 
1849	 0.314377707645748 
1850	 0.323446508434208 
1851	 0.32468542356188 
1852	 0.319915098550974 
1853	 0.35097177068006 
1854	 0.328306059666879 
1855	 0.204551464138014 
1856	 0.186308251739857 
1857	 0.212233459286826 
1858	 0.233956372767872 
1859	 0.242016321385361 
1860	 0.298781929177855 
1861	 0.294069108061535 
1862	 0.223313251292906 
1863	 0.21130396690977 
1864	 0.208243494782826 
1865	 0.214688585714056 
1866	 0.251845828513808 
1867	 0.307806973283078 
1868	 0.324009692426647 
1869	 0.322302744634769 
1870	 0.312804796546958 
1871	 0.277653241667072 
1872	 0.246619915170819 
1873	 0.215733772865043 
1874	 0.185551019524133 
1875	 0.148564232893136 
1876	 0.132038492133726 
1877	 0.122796962533886 
1878	 0.126321858251143 
1879	 0.124212431758955 
1880	 0.121987985793386 
1881	 0.120510402567828 
1882	 0.125002426628437 
1883	 0.117381994454173 
1884	 9.50715895353121E-02 
1885	 9.16086545662611E-02 
1886	 0.100838827145339 
1887	 8.78888519091609E-02 
1888	 7.72340798789867E-02 
1889	 8.53549904121346E-02 
1890	 8.18491359390122E-02 
1891	 6.13537969594668E-02 
1892	 5.80270839120946E-02 
1893	 6.85914750340907E-02 
1894	 7.08703228894648E-02 
1895	 7.43613009824926E-02 
1896	 7.63436461250274E-02 
1897	 7.70146944644404E-02 
1898	 7.27266535740159E-02 
1899	 6.92993193611084E-02 
1900	 8.45192459498407E-02 
1901	 8.89262602416965E-02 
1902	 9.39818954012066E-02 
1903	 8.71707093018736E-02 
1904	 5.58725156459903E-02 
1905	 4.14787608257368E-02 
1906	 1.31778830750829E-02 
1907	 4.32113633988339E-02 
1908	 0.045811959325301 
1909	 0.029683876179112 
1910	 2.12421408569535E-02 
1911	 6.46045311009201E-03 
1912	 1.30032634232522E-02 
1913	 0.038400961007567 
1914	 0.039835750869446 
1915	 3.84804030657218E-02 
1916	 3.74917313636863E-02 
1917	 0.030758659044242 
1918	 2.53351941756535E-02 
1919	 2.87802257274348E-02 
1920	 3.20196664080005E-02 
1921	 3.40860955385543E-02 
1922	 3.37010605125345E-02 
1923	 3.13460342994666E-02 
1924	 2.67553180334448E-02 
1925	 2.32593361675908E-02 
1926	 1.43294687515864E-02 
1927	 1.41676537299023E-02 
1928	 0.018653496877296 
1929	 2.19042606219042E-02 
1930	 2.49337502756447E-02 
1931	 2.88814120781457E-02 
1932	 2.93534752349262E-02 
1933	 2.68714638381398E-02 
1934	 0.027185252754602 
1935	 3.00899182359927E-02 
1936	 0.030421309318847 
1937	 2.99327725685518E-02 
1938	 2.92669550982917E-02 
1939	 0.028129759511703 
1940	 2.61311086801874E-02 
1941	 2.40519447401762E-02 
1942	 2.51770402933363E-02 
1943	 2.76002884267681E-02 
1944	 2.88401075855963E-02 
1945	 2.95383963954099E-02 
1946	 2.97823912806695E-02 
1947	 2.97059545523653E-02 
1948	 0.027862629982245 
1949	 2.75529961762504E-02 
1950	 2.84123908248365E-02 
1951	 2.82315379786472E-02 
1952	 2.73085997302893E-02 
1953	 2.74337833145267E-02 
1954	 2.63863467674674E-02 
1955	 2.55618799415754E-02 
1956	 2.70126519588404E-02 
1957	 2.76083650262116E-02 
1958	 2.85060702862991E-02 
1959	 3.08828967615404E-02 
1960	 3.15725769339178E-02 
1961	 3.12147480042889E-02 
1962	 3.12198328113106E-02 
1963	 3.17152326776928E-02 
1964	 3.09769437032422E-02 
1965	 3.11131261982432E-02 
1966	 3.20403415074705E-02 
1967	 3.22819500116493E-02 
1968	 3.22961484639965E-02 
1969	 3.25543885772023E-02 
1970	 3.29228371659901E-02 
1971	 3.32111032341611E-02 
1972	 3.32548991092329E-02 
1973	 3.39871260271334E-02 
1974	 3.51351617809575E-02 
1975	 3.54505452837059E-02 
1976	 3.56193301923837E-02 
1977	 3.62752278020658E-02 
1978	 3.65490860261049E-02 
1979	 3.69262314383053E-02 
1980	 3.77666495502311E-02 
1981	 3.83094481780442E-02 
1982	 3.87168379884832E-02 
1983	 3.89918620611652E-02 
1984	 3.90648820599821E-02 
1985	 3.93803008746405E-02 
1986	 3.96925357374773E-02 
1987	 3.99709455245017E-02 
1988	 4.08797645313218E-02 
1989	 4.13830906117496E-02 
1990	 4.19036129294197E-02 
1991	 4.24601768026643E-02 
1992	 4.24003592789292E-02 
1993	 4.24343661462928E-02 
1994	 4.26734632893826E-02 
1995	 4.30096036960779E-02 
1996	 4.34291633587163E-02 
1997	 4.43532094864541E-02 
1998	 4.52445992170702E-02 
1999	 4.56035165774133E-02 
2000	 4.62127710638632E-02 
2001	 4.67660442082095E-02 
2002	 4.70938480940998E-02 
2003	 4.77067322147664E-02 
2004	 4.85559794564455E-02 
2005	 4.92939217821904E-02 
2006	 4.99538221724048E-02 
2007	 5.06403873278191E-02 
2008	 5.15176453857753E-02 
2009	 5.20467463718877E-02 
2010	 5.26030126660287E-02 
2011	 5.34689459118806E-02 
2012	 5.48988497795147E-02 
2013	 5.59017376651881E-02 
2014	 5.64057641464574E-02 
2015	 5.66789713332862E-02 
2016	 5.63577914744852E-02 
2017	 5.66439303719808E-02 
2018	 5.73411495285948E-02 
2019	 5.79156831876144E-02 
2020	 5.87802316933635E-02 
2021	 5.94411689490447E-02 
2022	 5.95143162066331E-02 
2023	 5.97059816510374E-02 
2024	 5.98219865664404E-02 
2025	 6.02845351418333E-02 
2026	 6.13708273708042E-02 
2027	 6.22218170141456E-02 
2028	 6.29923547914972E-02 
2029	 6.39388906437142E-02 
2030	 0.064499392098764 
2031	 6.45325742054286E-02 
2032	 6.48536544514686E-02 
2033	 6.53237740087008E-02 
2034	 6.54728387842733E-02 
2035	 6.54138606709807E-02 
2036	 6.61865213930497E-02 
2037	 6.67538442742852E-02 
2038	 6.73595738042781E-02 
2039	 6.83928644216516E-02 
2040	 6.91994672007382E-02 
2041	 6.98621173545199E-02 
2042	 0.070506159736794 
2043	 7.11597368000457E-02 
2044	 7.17542301462567E-02 
2045	 7.22839451529806E-02 
2046	 0.072810580388973 
2047	 7.30842882858702E-02 
2048	 7.34213354050784E-02 
2049	 0.073820335057387 
2050	 7.41537980460398E-02 
2051	 7.51942300476127E-02 
2052	 7.61286063682157E-02 
2053	 7.67889846554448E-02 
2054	 7.75767463965976E-02 
2055	 7.83748785951066E-02 
2056	 7.92854833185064E-02 
2057	 8.00719146801856E-02 
2058	 8.09106750889013E-02 
2059	 8.16926028046059E-02 
2060	 8.23090640915045E-02 
2061	 8.27841776882767E-02 
2062	 8.31748462205887E-02 
2063	 0.08364556477024 
2064	 8.38458890440038E-02 
2065	 8.38197463368497E-02 
2066	 8.44580511850988E-02 
2067	 8.49134325989989E-02 
2068	 8.54738132058876E-02 
2069	 8.67953662836346E-02 
2070	 8.77772421776431E-02 
2071	 8.87392724212912E-02 
2072	 8.95111053748854E-02 
2073	 9.03150283007838E-02 
2074	 9.03106794553327E-02 
2075	 9.06420245867164E-02 
2076	 9.11899352634983E-02 
2077	 9.14342235410984E-02 
2078	 0.092043421414104 
2079	 9.25131304612057E-02 
2080	 9.28502245122586E-02 
2081	 9.35034881039427E-02 
2082	 0.094175509299664 
2083	 9.51079305674091E-02 
2084	 9.59540018777442E-02 
2085	 9.65398941446586E-02 
2086	 9.71540215042415E-02 
2087	 9.77641139397199E-02 
2088	 9.81595506267987E-02 
2089	 9.88519862435562E-02 
2090	 9.94839136633059E-02 
2091	 0.100078007424806 
2092	 0.101118763888382 
2093	 0.101513329130443 
2094	 0.101891802153247 
2095	 0.102621439405114 
2096	 0.102703693399363 
2097	 0.103012993490431 
2098	 0.103667924956967 
2099	 0.10443658082298 
2100	 0.105555881018525 
2101	 0.106454092115629 
2102	 0.107340810265659 
2103	 0.108340984649987 
2104	 0.108998370566679 
2105	 0.109417685380694 
2106	 0.110180830916843 
2107	 0.110525241319796 
2108	 0.110799784613375 
2109	 0.111426122739239 
2110	 0.11190178566471 
2111	 0.112374364627565 
2112	 0.11343352844527 
2113	 0.114102670358161 
2114	 0.114405553757777 
2115	 0.115082707499727 
2116	 0.115500638482363 
2117	 0.116096908478968 
2118	 0.116980886602672 
2119	 0.117639389565299 
2120	 0.118240026967306 
2121	 0.118862973356997 
2122	 0.11924033232988 
2123	 0.119835596754249 
2124	 0.120467416809887 
2125	 0.120922590033447 
2126	 0.121979407165266 
2127	 0.122852158390078 
2128	 0.123320230039583 
2129	 0.123903102940777 
2130	 0.12407259080547 
2131	 0.124412458589362 
2132	 0.125313198476615 
2133	 0.126163271497667 
2134	 0.126762547957373 
2135	 0.12736657314004 
2136	 0.127547057613704 
2137	 0.127701564981191 
2138	 0.12837357574121 
2139	 0.128869919670466 
2140	 0.129356362434953 
2141	 0.129549591071934 
2142	 0.12929053684626 
2143	 0.129908416043423 
2144	 0.130657943071136 
2145	 0.131315396195329 
2146	 0.132495290596937 
2147	 0.13291557887593 
2148	 0.133005965507234 
2149	 0.133808712070448 
2150	 0.134027021110346 
2151	 0.134233715316272 
2152	 0.134537072082672 
2153	 0.134924818179535 
2154	 0.13501631735373 
2155	 0.135398976949753 
2156	 0.136325705130489 
2157	 0.136723923924424 
2158	 0.13699691664387 
2159	 0.137218853946978 
2160	 0.137146223539162 
2161	 0.137363630170454 
2162	 0.137959365794197 
2163	 0.13870397878817 
2164	 0.139499338500545 
2165	 0.140060766348493 
2166	 0.140004605110472 
2167	 0.13976975291873 
2168	 0.140073484861207 
2169	 0.140590649438196 
2170	 0.140937153462901 
2171	 0.141650166977238 
2172	 0.142331473613653 
2173	 0.141883579910576 
2174	 0.141619840824668 
2175	 0.141432655721428 
2176	 0.141473943805175 
2177	 0.142046272999829 
2178	 0.142792431091864 
2179	 0.143715426986812 
2180	 0.143854605667389 
2181	 0.144012463763697 
2182	 0.144102160061531 
2183	 0.143406048604955 
2184	 0.143209540727814 
2185	 0.143817619549606 
2186	 0.144675223982761 
2187	 0.145009285880342 
2188	 0.145556742718703 
2189	 0.145704752478118 
2190	 0.145309140533664 
2191	 0.144649297633491 
2192	 0.144456458406349 
2193	 0.145276551619082 
2194	 0.14642269036554 
2195	 0.146705940939108 
2196	 0.147024394289824 
2197	 0.147685337032404 
2198	 0.147369152910945 
2199	 0.147260781617231 
2200	 0.147588083490856 
2201	 0.147280210651726 
2202	 0.147340158251868 
2203	 0.147834755711766 
2204	 0.147913918835509 
2205	 0.147961613732311 
2206	 0.147745044717615 
2207	 0.14768497496335 
2208	 0.147851436510266 
2209	 0.14848521674444 
2210	 0.14857369609311 
2211	 0.148701903776568 
2212	 0.148435687638192 
2213	 0.147825406850478 
2214	 0.147342589526946 
2215	 0.14742398984288 
2216	 0.14762425705774 
2217	 0.147746308619274 
2218	 0.14837442171507 
2219	 0.148540401879845 
2220	 0.148339625793985 
2221	 0.148044576150991 
2222	 0.147995287539868 
2223	 0.148370914817361 
2224	 0.148345819873846 
2225	 0.148541892268112 
2226	 0.148240449886006 
2227	 0.146952417908895 
2228	 0.146365554514793 
2229	 0.146145706759813 
2230	 0.145755678353521 
2231	 0.145788546619367 
2232	 0.146870139499757 
2233	 0.146951020594856 
2234	 0.146571904525211 
2235	 0.146501519749234 
2236	 0.146354167650425 
2237	 0.145596418509315 
2238	 0.145308073156605 
2239	 0.145074586657102 
2240	 0.144876636874779 
2241	 0.144503114189784 
2242	 0.143540257591851 
2243	 0.143021328048229 
2244	 0.142189759079415 
2245	 0.141105156392882 
2246	 0.141362482413363 
2247	 0.14164787666173 
2248	 0.141366699296584 
2249	 0.141728010195726 
2250	 0.141570002209105 
2251	 0.140903001611143 
2252	 0.140695861130722 
2253	 0.14011032659606 
2254	 0.139057965374735 
2255	 0.138443005287776 
2256	 0.138078299967233 
2257	 0.1379765997285 
2258	 0.137226798965079 
2259	 0.136409740099393 
2260	 0.135962495098249 
2261	 0.134921890401343 
2262	 0.134197596790756 
2263	 0.134644528051475 
2264	 0.134648153031461 
2265	 0.134283549753719 
2266	 0.134443077096167 
2267	 0.133297076122737 
2268	 0.131731495185479 
2269	 0.130845875863845 
2270	 0.129488953244378 
2271	 0.128972641214245 
2272	 0.129080035610336 
2273	 0.128651463314479 
2274	 0.128663904727022 
2275	 0.129381788379759 
2276	 0.129514129638269 
2277	 0.128273843337806 
2278	 0.127080929367033 
2279	 0.126132448852828 
2280	 0.124951849906593 
2281	 0.125320747273656 
2282	 0.126003008012261 
2283	 0.125663367813203 
2284	 0.125840645456009 
2285	 0.125659830736839 
2286	 0.125347766516238 
2287	 0.12466440561399 
2288	 0.124458358924336 
2289	 0.124186083958204 
2290	 0.123682957229631 
2291	 0.122060710352197 
2292	 0.120471715805891 
2293	 0.119184578789423 
2294	 0.117907367087029 
2295	 0.119612082198373 
2296	 0.121782197943095 
2297	 0.121993510312035 
2298	 0.122243889071619 
2299	 0.120452638982935 
2300	 0.11791344444368 
2301	 0.116513318677173 
2302	 0.11510263268252 
2303	 0.114811120427309 
2304	 0.114014518012447 
2305	 0.113669885727489 
2306	 0.114588484519296 
2307	 0.113389287131256 
2308	 0.112091025902144 
2309	 0.111370310654689 
2310	 0.109326109417294 
2311	 0.108873200152425 
2312	 0.109803815269243 
2313	 0.109563802317329 
2314	 0.110089697120555 
2315	 0.109899761679138 
2316	 0.108378678251105 
2317	 0.107673749691555 
2318	 0.107247330523292 
2319	 0.107152489226577 
2320	 0.106701179991191 
2321	 0.106524095413607 
2322	 0.106639829827381 
2323	 0.105600585320814 
2324	 0.10374740700084 
2325	 0.103470723090055 
2326	 0.102276388486482 
2327	 0.102597812500649 
2328	 0.103664283663939 
2329	 0.103049672610706 
2330	 0.102399368295987 
2331	 0.100366470043815 
2332	 9.86177544576943E-02 
2333	 9.87990480061621E-02 
2334	 9.92199861420914E-02 
2335	 9.88126242259066E-02 
2336	 9.73072397374702E-02 
2337	 9.50619703801497E-02 
2338	 9.28831061386987E-02 
2339	 9.15491007833664E-02 
2340	 9.08536091489066E-02 
2341	 0.090759890056756 
2342	 0.09121265222095 
2343	 9.14005959735292E-02 
2344	 8.99798671033368E-02 
2345	 8.91380894849287E-02 
2346	 8.90330983649417E-02 
2347	 8.78497689075192E-02 
2348	 8.83523658902046E-02 
2349	 8.93858557079004E-02 
2350	 8.82218754053834E-02 
2351	 8.60031573918899E-02 
2352	 8.48211849045454E-02 
2353	 8.41480804455289E-02 
2354	 8.30774280453401E-02 
2355	 8.34606479535046E-02 
2356	 8.37529019986604E-02 
2357	 8.22358223848235E-02 
2358	 0.082120539151748 
2359	 8.37757740263489E-02 
2360	 0.085406020210304 
2361	 8.62243229823377E-02 
2362	 8.57371306162651E-02 
2363	 8.41547481857419E-02 
2364	 8.13287819146019E-02 
2365	 7.92063660776282E-02 
2366	 7.91797114868044E-02 
2367	 8.04557488568855E-02 
2368	 8.08649707323088E-02 
2369	 0.080714326035178 
2370	 0.082700098681469 
2371	 8.27006580391972E-02 
2372	 8.18878757435435E-02 
2373	 8.21748229216934E-02 
2374	 8.09158912294629E-02 
2375	 7.57986581339461E-02 
2376	 7.37419087224382E-02 
2377	 7.21373723897634E-02 
2378	 7.16220501047981E-02 
2379	 7.39479927147275E-02 
2380	 7.51832459775545E-02 
2381	 7.66683686921172E-02 
2382	 7.80624161717727E-02 
2383	 7.85186793716768E-02 
2384	 7.77419731181096E-02 
2385	 7.67182572077214E-02 
2386	 7.60370334927961E-02 
2387	 0.074571749397577 
2388	 7.38234431838773E-02 
2389	 7.41769160201767E-02 
2390	 7.42975390914596E-02 
2391	 7.42792534640807E-02 
2392	 7.36436173431442E-02 
2393	 0.07329565732587 
2394	 7.17883224037372E-02 
2395	 6.89571416811934E-02 
2396	 6.65922286968476E-02 
2397	 6.29915484632908E-02 
2398	 6.18083065201163E-02 
2399	 6.08248244121414E-02 
2400	 6.10848865009223E-02 
2401	 6.58097172996188E-02 
2402	 6.52106721875011E-02 
2403	 6.10570643517506E-02 
2404	 6.16334457795927E-02 
2405	 5.91776279618089E-02 
2406	 5.79742482323746E-02 
2407	 6.23654761014616E-02 
2408	 6.39648476386561E-02 
2409	 6.11270368753133E-02 
2410	 6.02967427407913E-02 
2411	 6.02257134187387E-02 
2412	 5.95151522622795E-02 
2413	 0.064390437508021 
2414	 6.78553681027869E-02 
2415	 6.34584278394743E-02 
2416	 5.83102146266427E-02 
2417	 5.24071249056285E-02 
2418	 4.87676333080826E-02 
2419	 5.19534265564012E-02 
2420	 5.28793488421187E-02 
2421	 5.07274275676586E-02 
2422	 4.99042163175813E-02 
2423	 4.73695420826188E-02 
2424	 4.65956889340083E-02 
2425	 4.87128172925051E-02 
2426	 4.92892768904537E-02 
2427	 0.050473939724209 
2428	 4.94949615657971E-02 
2429	 4.62728516730275E-02 
2430	 4.57598943772107E-02 
2431	 4.36911322657993E-02 
2432	 4.59390544932557E-02 
2433	 5.01110451094837E-02 
2434	 5.12274720737635E-02 
2435	 4.81705126352793E-02 
2436	 4.58409273768915E-02 
2437	 4.51712023429947E-02 
2438	 4.49516098198547E-02 
2439	 4.52698162487733E-02 
2440	 4.72462077356477E-02 
2441	 5.14853282024398E-02 
2442	 5.05411883526178E-02 
2443	 4.58353682398724E-02 
2444	 4.34333870891978E-02 
2445	 3.76838813021927E-02 
2446	 3.39047899136789E-02 
2447	 3.25046565388592E-02 
2448	 3.38367022564885E-02 
2449	 4.04909064787906E-02 
2450	 4.21384937306668E-02 
2451	 0.042967120826479 
2452	 4.34998260172461E-02 
2453	 3.86747270800723E-02 
2454	 3.83799036746987E-02 
2455	 4.12499960023876E-02 
2456	 4.33722647738721E-02 
2457	 4.83832998860104E-02 
2458	 4.85233576496623E-02 
2459	 4.48826611338416E-02 
2460	 4.65038451711173E-02 
2461	 4.86822966383527E-02 
2462	 0.04805428274724 
2463	 4.94786027126214E-02 
2464	 5.00735065193757E-02 
2465	 4.63052834684441E-02 
2466	 4.80666678171685E-02 
2467	 5.63814343432114E-02 
2468	 0.05820766963724 
2469	 5.73284924995754E-02 
2470	 5.50791812536471E-02 
2471	 4.80616512228864E-02 
2472	 0.043450241793168 
2473	 4.12651886495839E-02 
2474	 3.87078949158435E-02 
2475	 3.37387497473923E-02 
2476	 3.49146667987328E-02 
2477	 4.01708290728272E-02 
2478	 3.99752454687395E-02 
2479	 3.69758566466173E-02 
2480	 4.26738674016633E-02 
2481	 5.60672806144544E-02 
2482	 5.88483467604395E-02 
2483	 6.73097270391348E-02 
2484	 7.10031328994818E-02 
2485	 0.052187863205622 
2486	 5.28796800916163E-02 
2487	 5.67114188415211E-02 
2488	 8.39264041107265E-02 
2489	 0.11845222434982 
2490	 0.166925365945928 
2491	 0.190824344761464 
2492	 0.164599365854077 
2493	 0.150291399933224 
2494	 0.105322882135879 
2495	 0.102164070798725 
2496	 8.90860915554219E-02 
2497	 4.48797584369398E-02 
2498	 2.26777039680757E-02 
2499	-3.80643886970755E-02 
2500	-2.55391816617922E-02 
