Wavelength	ref00106.asd
350	 6.39795721889891E-03 
351	 6.43576485251856E-03 
352	 6.52298502560955E-03 
353	 6.79938138346696E-03 
354	 5.99753510870553E-03 
355	 5.56544875225187E-03 
356	 6.17137178766174E-03 
357	 5.88640153783847E-03 
358	 5.9045170322094E-03 
359	 5.96707923182874E-03 
360	 5.72125419512215E-03 
361	 6.42032500158561E-03 
362	 6.24562888786724E-03 
363	 5.55293672166453E-03 
364	 5.95993902200162E-03 
365	 5.94001835446479E-03 
366	 5.72742558374795E-03 
367	 5.56796251960493E-03 
368	 5.40639073070374E-03 
369	 5.58405719906768E-03 
370	 5.68217736061272E-03 
371	 5.44677457873043E-03 
372	 5.73464353782137E-03 
373	 5.69125928543192E-03 
374	 5.36435910764146E-03 
375	 5.23677197486043E-03 
376	 5.1422670792361E-03 
377	 5.19238719400112E-03 
378	 5.36023846110602E-03 
379	 5.43581834754896E-03 
380	 5.24387458068842E-03 
381	 5.15665519128469E-03 
382	 5.38093145018573E-03 
383	 5.33811711427377E-03 
384	 5.50495796749894E-03 
385	 5.58618476731946E-03 
386	 5.15948236011847E-03 
387	 5.28256165115276E-03 
388	 5.49973477955284E-03 
389	 5.50416747036024E-03 
390	 5.29843285666041E-03 
391	 5.3715754475569E-03 
392	 5.51075957919593E-03 
393	 5.49350710798297E-03 
394	 5.35894041275914E-03 
395	 5.41710065712811E-03 
396	 5.42111307016091E-03 
397	 5.11146906601492E-03 
398	 5.24229641272252E-03 
399	 5.27028059631211E-03 
400	 5.1583327554325E-03 
401	 5.31010518919783E-03 
402	 5.47483900196765E-03 
403	 5.50666411065026E-03 
404	 5.42515471809792E-03 
405	 5.54846956927926E-03 
406	 5.62641927623075E-03 
407	 5.58793727096259E-03 
408	 5.47391006619647E-03 
409	 5.55619426936067E-03 
410	 5.59436363097601E-03 
411	 5.62116563817707E-03 
412	 5.88864184923505E-03 
413	 5.89909081301991E-03 
414	 5.90879062475128E-03 
415	 6.08628686447553E-03 
416	 6.16971053072421E-03 
417	 6.19620930097696E-03 
418	 6.22903587320266E-03 
419	 6.31086424686458E-03 
420	 6.27159259987972E-03 
421	 6.45787535142717E-03 
422	 6.73840870065326E-03 
423	 6.59825745365689E-03 
424	 6.63410530576319E-03 
425	 6.7498943404978E-03 
426	 6.80977191733317E-03 
427	 6.8511785025426E-03 
428	 6.9086850133209E-03 
429	 6.9692324785503E-03 
430	 6.98803589171809E-03 
431	 6.83451412186084E-03 
432	 6.91189557249372E-03 
433	 7.14286911691953E-03 
434	 7.06081896578489E-03 
435	 7.1873257706885E-03 
436	 7.31237252316408E-03 
437	 7.28041162441532E-03 
438	 7.28010982510072E-03 
439	 7.31828337818432E-03 
440	 7.37147820696068E-03 
441	 7.39808059937405E-03 
442	 7.33348775839698E-03 
443	 7.44677438461999E-03 
444	 7.67400410648528E-03 
445	 7.64684740552119E-03 
446	 7.68044025164796E-03 
447	 7.73875431594974E-03 
448	 7.77194935763319E-03 
449	 7.86023984969437E-03 
450	 7.9213037190606E-03 
451	 7.97392817691982E-03 
452	 8.06577524114933E-03 
453	 8.12760108996275E-03 
454	 8.19675419267997E-03 
455	 8.28098955498652E-03 
456	 8.34478155347429E-03 
457	 8.40635368246251E-03 
458	 8.44013969054569E-03 
459	 8.43362921511114E-03 
460	 8.43081055696048E-03 
461	 8.4766462108683E-03 
462	 8.53337110587046E-03 
463	 8.52939269042251E-03 
464	 8.53849786391201E-03 
465	 8.57197946426418E-03 
466	 8.62288141830216E-03 
467	 8.66796351987563E-03 
468	 8.72445878903791E-03 
469	 8.75710711521756E-03 
470	 8.7483726811425E-03 
471	 8.80210814368628E-03 
472	 8.8239272864657E-03 
473	 8.85769223054516E-03 
474	 9.01882430746162E-03 
475	 9.03610370092584E-03 
476	 9.06503147288229E-03 
477	 9.1593859729653E-03 
478	 9.05465080455911E-03 
479	 9.08674747155902E-03 
480	 9.2450845122862E-03 
481	 9.38731487696225E-03 
482	 9.37289490724317E-03 
483	 9.36127330091114E-03 
484	 9.42167433904428E-03 
485	 9.51341163124656E-03 
486	 9.53724751405491E-03 
487	 9.61769806336792E-03 
488	 9.80660492187295E-03 
489	 9.83571466504182E-03 
490	 0.010015129020108 
491	 1.02721812605886E-02 
492	 1.04078952681315E-02 
493	 1.05455120630769E-02 
494	 1.07684548606456E-02 
495	 1.10869294516383E-02 
496	 1.14244498648193E-02 
497	 1.16864642656029E-02 
498	 1.19743363524793E-02 
499	 1.23875063870692E-02 
500	 1.28372368193834E-02 
501	 1.33640874773356E-02 
502	 1.39748638439162E-02 
503	 1.46474416615397E-02 
504	 1.53000756883497E-02 
505	 0.016003762997749 
506	 1.68206587096713E-02 
507	 1.77679934522591E-02 
508	 1.88023488693667E-02 
509	 1.99077766086552E-02 
510	 2.10935505190944E-02 
511	 2.24301521772804E-02 
512	 2.39224827005542E-02 
513	 2.55067268927621E-02 
514	 2.70834933438181E-02 
515	 2.89011245122662E-02 
516	 0.030883436981572 
517	 3.29628084136893E-02 
518	 3.52853855248626E-02 
519	 0.037570539245452 
520	 3.98208828817795E-02 
521	 4.21489573922293E-02 
522	 4.44917514861577E-02 
523	 4.68736856177919E-02 
524	 4.93077643788184E-02 
525	 5.17591342650054E-02 
526	 5.42642662042757E-02 
527	 5.67802358810933E-02 
528	 0.059210217287087 
529	 6.13331939488952E-02 
530	 6.33686894444853E-02 
531	 6.53601570908596E-02 
532	 6.72688128700318E-02 
533	 6.92187227979248E-02 
534	 7.10451041986779E-02 
535	 0.072649487785679 
536	 7.41037604775287E-02 
537	 0.075564766918983 
538	 7.69354647040518E-02 
539	 7.81072255913658E-02 
540	 7.93266588690585E-02 
541	 8.05399677721193E-02 
542	 8.16681907270261E-02 
543	 8.26348662459605E-02 
544	 8.36313794205391E-02 
545	 8.45775812341698E-02 
546	 8.54158356699695E-02 
547	 0.086239959395732 
548	 8.70251904117581E-02 
549	 0.087746004593633 
550	 0.088373420071498 
551	 8.88801299387496E-02 
552	 8.92972127465008E-02 
553	 8.95822469532191E-02 
554	 8.96016269485877E-02 
555	 8.95348056322932E-02 
556	 0.089349256777475 
557	 0.089004234632603 
558	 8.86232835086627E-02 
559	 8.81240102247949E-02 
560	 8.74296369427747E-02 
561	 8.65025606533658E-02 
562	 8.56307813168554E-02 
563	 8.46995214415447E-02 
564	 8.36007600974001E-02 
565	 8.23415523753218E-02 
566	 8.10164039902217E-02 
567	 7.96073682996681E-02 
568	 7.80887189253765E-02 
569	 7.65960862891996E-02 
570	 7.50144493508435E-02 
571	 7.34018437096089E-02 
572	 7.19663296256847E-02 
573	 7.05326930090012E-02 
574	 6.91716325111841E-02 
575	 6.79211805240098E-02 
576	 6.66550554116194E-02 
577	 6.54818409853954E-02 
578	 6.43763614093124E-02 
579	 6.32651817253059E-02 
580	 6.22531517326349E-02 
581	 6.12751384659927E-02 
582	 6.03080273651059E-02 
583	 5.94011727121372E-02 
584	 5.85261756837341E-02 
585	 5.77201934829152E-02 
586	 0.057006660872076 
587	 5.62774795965828E-02 
588	 5.56143261647434E-02 
589	 5.50267334383441E-02 
590	 5.44763670898569E-02 
591	 5.39193078075365E-02 
592	 5.34780132167858E-02 
593	 5.31630960345983E-02 
594	 5.27825613492067E-02 
595	 5.23837667243186E-02 
596	 5.19613792927448E-02 
597	 0.051520812589492 
598	 5.11883718427694E-02 
599	 5.08740225495632E-02 
600	 5.05515142793339E-02 
601	 5.02620189015443E-02 
602	 4.98070161881516E-02 
603	 4.93174500710326E-02 
604	 4.88938933255085E-02 
605	 0.048365071728785 
606	 4.78371461684958E-02 
607	 0.047247592526066 
608	 4.64944831233081E-02 
609	 4.58180327194484E-02 
610	 4.51246209112427E-02 
611	 4.43781871498636E-02 
612	 4.36637226647014E-02 
613	 4.28795342614018E-02 
614	 4.20833679095469E-02 
615	 0.04135225604481 
616	 0.040650241518689 
617	 3.99696551418735E-02 
618	 3.92949289915688E-02 
619	 3.86193107992319E-02 
620	 3.82225844219745E-02 
621	 3.78718619816445E-02 
622	 3.74286157655626E-02 
623	 3.70672779759929E-02 
624	 3.67652949004047E-02 
625	 3.65440261328311E-02 
626	 3.64129638645037E-02 
627	 3.62779843724933E-02 
628	 3.61996371494977E-02 
629	 3.61430435497579E-02 
630	 3.59837834441058E-02 
631	 3.58360632674303E-02 
632	 3.56912001883026E-02 
633	 3.54821326310107E-02 
634	 0.035051136061208 
635	 3.45354902154189E-02 
636	 3.39492067370692E-02 
637	 3.32551190303944E-02 
638	 3.24444387081932E-02 
639	 3.15446634576726E-02 
640	 3.05838348878286E-02 
641	 0.029612891424949 
642	 2.86960040783113E-02 
643	 2.77389121994239E-02 
644	 2.66906603959681E-02 
645	 2.58236526003672E-02 
646	 2.48645983054456E-02 
647	 2.38603369912499E-02 
648	 2.30506980488393E-02 
649	 2.24540220346978E-02 
650	 2.19287386017514E-02 
651	 2.14188333089705E-02 
652	 2.10128341612996E-02 
653	 2.07384253011986E-02 
654	 2.04988459685836E-02 
655	 2.01746419102503E-02 
656	 1.97720162125193E-02 
657	 1.93322898608267E-02 
658	 1.88581273103289E-02 
659	 1.82547166894188E-02 
660	 1.76277911357896E-02 
661	 1.69327636394815E-02 
662	 1.62105632875879E-02 
663	 1.56648726055301E-02 
664	 1.51049084943291E-02 
665	 1.44725430867378E-02 
666	 1.38109427945293E-02 
667	 1.34268771268177E-02 
668	 1.30594659844089E-02 
669	 1.26770724897961E-02 
670	 1.24660888902024E-02 
671	 1.23287161929708E-02 
672	 1.22287524268296E-02 
673	 1.21358214562806E-02 
674	 1.19811875533161E-02 
675	 1.20481662508191E-02 
676	 1.22161159570657E-02 
677	 1.22661275660655E-02 
678	 1.24479105430594E-02 
679	 1.27177339446978E-02 
680	 0.013060367559032 
681	 1.35057774117475E-02 
682	 1.40082541416143E-02 
683	 1.47176968815164E-02 
684	 1.57375902288303E-02 
685	 1.69271719235531E-02 
686	 1.85775341370758E-02 
687	 2.08440951828693E-02 
688	 2.35563948195512E-02 
689	 2.64042807510354E-02 
690	 2.97328682756969E-02 
691	 0.033821586816524 
692	 3.85617942707123E-02 
693	 4.39938088049618E-02 
694	 5.02128213766316E-02 
695	 5.71129625573073E-02 
696	 6.41672206094643E-02 
697	 7.16176707639361E-02 
698	 7.96104639692865E-02 
699	 8.81303609882484E-02 
700	 9.67547849550698E-02 
701	 0.10562090208754 
702	 0.114723960207252 
703	 0.123785719382063 
704	 0.132592689862148 
705	 0.141289322960845 
706	 0.150114425994827 
707	 0.159071109825334 
708	 0.167909692767975 
709	 0.176721695602496 
710	 0.185666567499987 
711	 0.194521249847843 
712	 0.203524721327105 
713	 0.212711328028294 
714	 0.221839624765854 
715	 0.231028883278893 
716	 0.240381992402777 
717	 0.250230239271286 
718	 0.260709846829805 
719	 0.270948465678089 
720	 0.280368088758484 
721	 0.289002778800897 
722	 0.297171525744567 
723	 0.305837559144539 
724	 0.315380804882672 
725	 0.324450490877885 
726	 0.332861946256174 
727	 0.340862365339323 
728	 0.34883584307475 
729	 0.35650586458627 
730	 0.363840154722902 
731	 0.37066307523426 
732	 0.37686823355147 
733	 0.382550129177471 
734	 0.388059961275962 
735	 0.393568589247592 
736	 0.398926973244951 
737	 0.404059237006819 
738	 0.408732708028956 
739	 0.412978552861392 
740	 0.417206790996536 
741	 0.421104443365073 
742	 0.424602631297829 
743	 0.427760276679325 
744	 0.430909502122222 
745	 0.433851678290698 
746	 0.436471566570616 
747	 0.438753607533523 
748	 0.440966394811955 
749	 0.44304582529949 
750	 0.44492609397152 
751	 0.446626755552913 
752	 0.448127786843206 
753	 0.449556193351486 
754	 0.450965153780589 
755	 0.451997880757634 
756	 0.452988854504856 
757	 0.453890028000112 
758	 0.45449548894585 
759	 0.455135845601125 
760	 0.45686835839433 
761	 0.459838740649739 
762	 0.460687940746058 
763	 0.460421733374861 
764	 0.460267709769007 
765	 0.460575757503531 
766	 0.460429709003475 
767	 0.460402773815418 
768	 0.460457314681952 
769	 0.460462678035176 
770	 0.460656515915326 
771	 0.460999287182453 
772	 0.461347763500934 
773	 0.461506120715769 
774	 0.461619565899234 
775	 0.461772428083279 
776	 0.462006332054186 
777	 0.462314471521652 
778	 0.462448210031124 
779	 0.462560868000492 
780	 0.462829640814402 
781	 0.463104253735137 
782	 0.463236085825755 
783	 0.46333147617837 
784	 0.463598680435384 
785	 0.463884243743147 
786	 0.464138219738534 
787	 0.464375071408534 
788	 0.464664636513873 
789	 0.464994203386986 
790	 0.465212261184365 
791	 0.465293928136471 
792	 0.465534224863616 
793	 0.465632361358331 
794	 0.465643728495143 
795	 0.465748513477244 
796	 0.466138121076629 
797	 0.466359214214711 
798	 0.466433631705377 
799	 0.466645647280058 
800	 0.466852077324104 
801	 0.466999914478716 
802	 0.467105708155836 
803	 0.467251494144006 
804	 0.467317414941084 
805	 0.467327962864529 
806	 0.467361641710598 
807	 0.467544811687346 
808	 0.467772502506872 
809	 0.467994669940448 
810	 0.468256429684902 
811	 0.468914880568858 
812	 0.469444013959147 
813	 0.469960740897139 
814	 0.470868473873842 
815	 0.471594312943489 
816	 0.472092749750275 
817	 0.472324894347074 
818	 0.472244212405764 
819	 0.471996301528629 
820	 0.471756613984953 
821	 0.471677396809102 
822	 0.471881561510631 
823	 0.472070210253573 
824	 0.472095479452111 
825	 0.471907867731155 
826	 0.47152086768099 
827	 0.47149912123824 
828	 0.471627558948183 
829	 0.471474952358739 
830	 0.471468202877263 
831	 0.471449922625458 
832	 0.47131801634582 
833	 0.471065494669968 
834	 0.470899755319892 
835	 0.470808653222204 
836	 0.470774886230272 
837	 0.470802971225648 
838	 0.470712375152743 
839	 0.470625402232339 
840	 0.470642046841313 
841	 0.470697133635887 
842	 0.470726978630386 
843	 0.470722268745682 
844	 0.470716967419753 
845	 0.470817427745213 
846	 0.470861554859119 
847	 0.470946389378466 
848	 0.471184598111927 
849	 0.471105571399593 
850	 0.47117383836579 
851	 0.471438116037675 
852	 0.471603495041018 
853	 0.471633790659519 
854	 0.471782624769033 
855	 0.472000771408635 
856	 0.471913193741271 
857	 0.472048943880484 
858	 0.472179699332437 
859	 0.472140024929926 
860	 0.472051872972357 
861	 0.472080128398531 
862	 0.472204977209566 
863	 0.472347829423054 
864	 0.472431410348317 
865	 0.472479777290227 
866	 0.472587427744482 
867	 0.472768543235882 
868	 0.472620439961136 
869	 0.47274903187883 
870	 0.472949840953761 
871	 0.472804110171553 
872	 0.472947723010168 
873	 0.473090674443671 
874	 0.473107496076508 
875	 0.473059889524933 
876	 0.47321885353287 
877	 0.473180151740659 
878	 0.47300715301171 
879	 0.473209986930672 
880	 0.473131604923291 
881	 0.473127379123252 
882	 0.473250242282606 
883	 0.472989396126648 
884	 0.472977629813077 
885	 0.473124263221341 
886	 0.473197038246477 
887	 0.472996942465206 
888	 0.473119957672369 
889	 0.473273694586004 
890	 0.473261457295144 
891	 0.473745359805844 
892	 0.474111656704647 
893	 0.474367189965855 
894	 0.474693286264465 
895	 0.47510608326978 
896	 0.475644610163961 
897	 0.476070817034627 
898	 0.47619892667699 
899	 0.476663347648006 
900	 0.476860044919876 
901	 0.476681915134668 
902	 0.476364174582897 
903	 0.476144985462908 
904	 0.476099313989466 
905	 0.476104601415493 
906	 0.475980683065615 
907	 0.475938351401756 
908	 0.476286856276993 
909	 0.476717893087013 
910	 0.47657140401654 
911	 0.476849027524259 
912	 0.477131159175798 
913	 0.477117643165074 
914	 0.47682138284637 
915	 0.476482912485746 
916	 0.475922647358314 
917	 0.475236130805969 
918	 0.4748569411474 
919	 0.474901701224808 
920	 0.474550103577304 
921	 0.473805465017554 
922	 0.473777893501466 
923	 0.473397234332011 
924	 0.473373695235648 
925	 0.473769265951256 
926	 0.473257698590846 
927	 0.473335529448958 
928	 0.474013418412269 
929	 0.474914787351149 
930	 0.47559048477829 
931	 0.476487043740044 
932	 0.477505235453632 
933	 0.478179454952478 
934	 0.47772711021565 
935	 0.478195470022138 
936	 0.478424119819923 
937	 0.477199768922761 
938	 0.475038008170678 
939	 0.474886365335605 
940	 0.473747177496407 
941	 0.470569752705566 
942	 0.470312950173242 
943	 0.46984245508166 
944	 0.468243522586097 
945	 0.466059272373243 
946	 0.465712939417645 
947	 0.464138471496978 
948	 0.461912061954084 
949	 0.46029044796161 
950	 0.459718324539541 
951	 0.458010189880263 
952	 0.455871043902899 
953	 0.454084076343623 
954	 0.451944234131395 
955	 0.449309381605037 
956	 0.447482242714279 
957	 0.446537800864277 
958	 0.443629209913218 
959	 0.4422229495769 
960	 0.441409747826479 
961	 0.440221951790501 
962	 0.439553520256235 
963	 0.438062711394286 
964	 0.436380740563035 
965	 0.435040105400694 
966	 0.433634069629204 
967	 0.433131704604619 
968	 0.432656566792816 
969	 0.431725660758201 
970	 0.43108137094623 
971	 0.431165337587577 
972	 0.430406635494301 
973	 0.429012857389578 
974	 0.429943119344802 
975	 0.429468339020458 
976	 0.429106310052796 
977	 0.429697054004066 
978	 0.429932684185818 
979	 0.429319085247742 
980	 0.428535046053258 
981	 0.42826250216068 
982	 0.428724176574678 
983	 0.428480086232161 
984	 0.428775754063405 
985	 0.429199313327612 
986	 0.42809547809426 
987	 0.428774233887556 
988	 0.429432601465254 
989	 0.429282082076626 
990	 0.42905170884482 
991	 0.430825959986027 
992	 0.430516852453298 
993	 0.429393334376978 
994	 0.43104504244247 
995	 0.430917125200168 
996	 0.431641583346102 
997	 0.432961838512681 
998	 0.433387683200579 
999	 0.433447802898438 
1000	 0.432980855361819 
1001	 0.431112996597383 
1002	 0.431821834880616 
1003	 0.432435553009885 
1004	 0.432925807982863 
1005	 0.43362170526051 
1006	 0.434407084332935 
1007	 0.435061450307267 
1008	 0.435783804149368 
1009	 0.436484118133644 
1010	 0.437096974625481 
1011	 0.437611523317545 
1012	 0.438311768286768 
1013	 0.438958928233528 
1014	 0.439489357581968 
1015	 0.440156668491804 
1016	 0.440863552266008 
1017	 0.441568223851362 
1018	 0.442284650889457 
1019	 0.443074073026843 
1020	 0.443730966547626 
1021	 0.444335101412503 
1022	 0.444950703311089 
1023	 0.44546789311066 
1024	 0.446066669114083 
1025	 0.446799978697955 
1026	 0.447500173531952 
1027	 0.448192772795021 
1028	 0.448742458302051 
1029	 0.449245883595977 
1030	 0.449762339258006 
1031	 0.45025471120167 
1032	 0.450840070459272 
1033	 0.451402330036651 
1034	 0.451960077463576 
1035	 0.452530865051158 
1036	 0.453121096537011 
1037	 0.453681124290763 
1038	 0.454265167784005 
1039	 0.454762144008102 
1040	 0.455243287938159 
1041	 0.455744189362468 
1042	 0.456129151885921 
1043	 0.456495522053368 
1044	 0.456958878907188 
1045	 0.457353470549506 
1046	 0.457767696641556 
1047	 0.45826650216413 
1048	 0.458602019478026 
1049	 0.458917708150368 
1050	 0.459281904880316 
1051	 0.459676468527625 
1052	 0.460041938580083 
1053	 0.460363801222038 
1054	 0.460567975078476 
1055	 0.460821199559826 
1056	 0.46105585555605 
1057	 0.461354535460534 
1058	 0.461822258245946 
1059	 0.462020591055992 
1060	 0.462172921646553 
1061	 0.462480144496758 
1062	 0.462709434931624 
1063	 0.462991267430296 
1064	 0.463197879637826 
1065	 0.463397858610815 
1066	 0.463490730111824 
1067	 0.463625426749974 
1068	 0.463747219051449 
1069	 0.463982201355079 
1070	 0.464134173224952 
1071	 0.46418935356533 
1072	 0.464338020611661 
1073	 0.464355884507217 
1074	 0.464331623398485 
1075	 0.464307926179378 
1076	 0.464225266881161 
1077	 0.464242752893238 
1078	 0.464299548159404 
1079	 0.464362974573703 
1080	 0.464356474031737 
1081	 0.464327130556769 
1082	 0.464249139996173 
1083	 0.464209671869176 
1084	 0.464113516296372 
1085	 0.464150014350966 
1086	 0.464223569317542 
1087	 0.464056846488015 
1088	 0.463953093861214 
1089	 0.463897433624647 
1090	 0.463793679744955 
1091	 0.463796705227871 
1092	 0.463780515977493 
1093	 0.463652562618995 
1094	 0.463466111217651 
1095	 0.463355853277233 
1096	 0.463303200264143 
1097	 0.463362322038539 
1098	 0.463309031280657 
1099	 0.463248468660287 
1100	 0.46320879781963 
1101	 0.46308600276178 
1102	 0.462880542750125 
1103	 0.462906732561552 
1104	 0.462952485359907 
1105	 0.46292439280105 
1106	 0.462989080204659 
1107	 0.463102787014778 
1108	 0.463105371016868 
1109	 0.463136650901897 
1110	 0.463483719067756 
1111	 0.463859087655095 
1112	 0.464338870176231 
1113	 0.464846188559085 
1114	 0.465622610256555 
1115	 0.466215167768861 
1116	 0.466683485347217 
1117	 0.467353626189086 
1118	 0.467958009851821 
1119	 0.468400344649957 
1120	 0.46878599331866 
1121	 0.468735345220225 
1122	 0.468468038364496 
1123	 0.468169998452398 
1124	 0.467506124361375 
1125	 0.466637750500269 
1126	 0.465131292601013 
1127	 0.463166341834456 
1128	 0.460843890996787 
1129	 0.458061358330888 
1130	 0.455288589186609 
1131	 0.452450277186004 
1132	 0.449416412397204 
1133	 0.446265546896579 
1134	 0.442982384497956 
1135	 0.439627404580694 
1136	 0.436391538186391 
1137	 0.43308532533667 
1138	 0.429814673117152 
1139	 0.426631909376195 
1140	 0.423370047894618 
1141	 0.420232828913805 
1142	 0.417199379018696 
1143	 0.413960491363607 
1144	 0.410662960568584 
1145	 0.407149864981977 
1146	 0.403479867296692 
1147	 0.399759534939987 
1148	 0.395898302920571 
1149	 0.392283421471958 
1150	 0.388732126362913 
1151	 0.385479212830069 
1152	 0.382501420695292 
1153	 0.379865282002317 
1154	 0.377361327668827 
1155	 0.375106746254087 
1156	 0.373035291994553 
1157	 0.37097549302272 
1158	 0.369065409311236 
1159	 0.367391490321747 
1160	 0.365852108521247 
1161	 0.364393439688625 
1162	 0.363121354713496 
1163	 0.3619683081761 
1164	 0.360965241104658 
1165	 0.36009788837207 
1166	 0.359295277615591 
1167	 0.358595959493112 
1168	 0.357945588513413 
1169	 0.357341348758258 
1170	 0.356805013865912 
1171	 0.356256614272314 
1172	 0.355748536281313 
1173	 0.355322743086707 
1174	 0.354823154875589 
1175	 0.354383335785746 
1176	 0.354032595594636 
1177	 0.353646113429443 
1178	 0.353281596147821 
1179	 0.352869805456972 
1180	 0.35243173635196 
1181	 0.351988524056129 
1182	 0.351493841866547 
1183	 0.351007716689057 
1184	 0.350482705659656 
1185	 0.350100811845181 
1186	 0.349825542686657 
1187	 0.349484180351876 
1188	 0.349201628299823 
1189	 0.348899082129532 
1190	 0.348566220294987 
1191	 0.348189262539294 
1192	 0.347853001641422 
1193	 0.347586669897433 
1194	 0.347375149523344 
1195	 0.347175664760091 
1196	 0.347031109553769 
1197	 0.346982373017714 
1198	 0.34691782197907 
1199	 0.346811407688915 
1200	 0.346828241742305 
1201	 0.346962050528114 
1202	 0.347068225163453 
1203	 0.347207332021964 
1204	 0.347389824967052 
1205	 0.34759810656715 
1206	 0.347792218041938 
1207	 0.348007550196071 
1208	 0.348260932469055 
1209	 0.34848945948172 
1210	 0.348786717864564 
1211	 0.349161656551385 
1212	 0.349481600777793 
1213	 0.349781859550942 
1214	 0.350025260809997 
1215	 0.350377113213051 
1216	 0.350750700522599 
1217	 0.351146634698103 
1218	 0.351607158254951 
1219	 0.352063992603189 
1220	 0.3525370390872 
1221	 0.352996201736638 
1222	 0.353527849960529 
1223	 0.35396176270174 
1224	 0.354276493089596 
1225	 0.354678381543748 
1226	 0.355060214746573 
1227	 0.355496662742396 
1228	 0.356040846513761 
1229	 0.356553590654708 
1230	 0.356954268683144 
1231	 0.357311340461779 
1232	 0.357677294854893 
1233	 0.35792982989299 
1234	 0.358340685196385 
1235	 0.358852642567399 
1236	 0.359300340329503 
1237	 0.359796653072675 
1238	 0.360219101870416 
1239	 0.360583591121669 
1240	 0.360978786150295 
1241	 0.36134363834473 
1242	 0.361751807928496 
1243	 0.362228259372627 
1244	 0.362622302697449 
1245	 0.363009187178276 
1246	 0.363364142001134 
1247	 0.363617465655559 
1248	 0.363933111745915 
1249	 0.364314718166702 
1250	 0.36462582347915 
1251	 0.364913026179063 
1252	 0.365209820875644 
1253	 0.365469480848877 
1254	 0.365645102134342 
1255	 0.365920461116874 
1256	 0.366265263145766 
1257	 0.366521523024256 
1258	 0.366806776073314 
1259	 0.366997096188655 
1260	 0.367109231388291 
1261	 0.367192607035853 
1262	 0.367170780965966 
1263	 0.367231011225574 
1264	 0.367269222061077 
1265	 0.367337641742517 
1266	 0.367528519831129 
1267	 0.367593861538089 
1268	 0.367561639277681 
1269	 0.367574793730423 
1270	 0.367598793286011 
1271	 0.367547161281428 
1272	 0.367531703274317 
1273	 0.3674233501739 
1274	 0.367227917421656 
1275	 0.366875955968081 
1276	 0.366653518400599 
1277	 0.366426419684454 
1278	 0.366188070135565 
1279	 0.366014317694659 
1280	 0.365736131726916 
1281	 0.365350317697769 
1282	 0.365050590089307 
1283	 0.364814074161312 
1284	 0.364449214213883 
1285	 0.364102608211378 
1286	 0.363643047431882 
1287	 0.363011688126847 
1288	 0.362432343918071 
1289	 0.361838928256233 
1290	 0.361219647149836 
1291	 0.360619665998476 
1292	 0.359935921198981 
1293	 0.359193309589908 
1294	 0.358411195882325 
1295	 0.357540237900474 
1296	 0.356643288674152 
1297	 0.355781887502689 
1298	 0.354918274380708 
1299	 0.354010090912471 
1300	 0.353178715483245 
1301	 0.352088430006868 
1302	 0.350826047921682 
1303	 0.349594690423712 
1304	 0.348166123666921 
1305	 0.346889156753325 
1306	 0.345779978812004 
1307	 0.344421547960917 
1308	 0.343004985822754 
1309	 0.341490856744599 
1310	 0.339726510545049 
1311	 0.338076919661473 
1312	 0.336483376400893 
1313	 0.334782756999656 
1314	 0.333071348361938 
1315	 0.331290074951662 
1316	 0.329405755562098 
1317	 0.327503614258654 
1318	 0.325521496404456 
1319	 0.323576557832944 
1320	 0.321579455385493 
1321	 0.319619389161725 
1322	 0.317620710234784 
1323	 0.315577065344188 
1324	 0.313596784354331 
1325	 0.311607420504478 
1326	 0.309536533481844 
1327	 0.307444220979245 
1328	 0.305328888230025 
1329	 0.303139496449415 
1330	 0.300854861272459 
1331	 0.298587171154776 
1332	 0.296237255274811 
1333	 0.293682003433222 
1334	 0.291311082950534 
1335	 0.288884503182685 
1336	 0.286748259532443 
1337	 0.284723257050923 
1338	 0.282868764890668 
1339	 0.28116220981869 
1340	 0.279635340218454 
1341	 0.278120907553831 
1342	 0.276848239470325 
1343	 0.275906842990024 
1344	 0.274952907709941 
1345	 0.274082303884248 
1346	 0.273319579673562 
1347	 0.273165947080501 
1348	 0.273294144256313 
1349	 0.27343010676298 
1350	 0.274646581719646 
1351	 0.275432536062722 
1352	 0.275926733082208 
1353	 0.276907774024973 
1354	 0.278712646327807 
1355	 0.280879203104822 
1356	 0.282978113198813 
1357	 0.286262271609748 
1358	 0.290754590861041 
1359	 0.295961771255497 
1360	 0.296050434639089 
1361	 0.301582937301018 
1362	 0.306308422624544 
1363	 0.310873679610318 
1364	 0.317548189235938 
1365	 0.314170939268601 
1366	 0.296059725748418 
1367	 0.285786275764785 
1368	 0.277712036624447 
1369	 0.271052612406865 
1370	 0.270658562541597 
1371	 0.265269595604365 
1372	 0.255125065194448 
1373	 0.250083208851587 
1374	 0.245037654502987 
1375	 0.24101687565919 
1376	 0.241728218145584 
1377	 0.241398630640016 
1378	 0.238765384286178 
1379	 0.236593951702745 
1380	 0.229420547580093 
1381	 0.218692057579543 
1382	 0.207855307892604 
1383	 0.193977091403727 
1384	 0.184054864483823 
1385	 0.176844318526612 
1386	 0.167641986028323 
1387	 0.160202428928893 
1388	 0.152805147662737 
1389	 0.144331640260286 
1390	 0.138330462155819 
1391	 0.133714142652504 
1392	 0.12913092803128 
1393	 0.12645576443889 
1394	 0.120716735051389 
1395	 0.113166803080155 
1396	 0.10730432641275 
1397	 9.99230246309535E-02 
1398	 9.44253727241132E-02 
1399	 9.13032225280391E-02 
1400	 8.71904991596618E-02 
1401	 8.33533702982887E-02 
1402	 7.91761718465089E-02 
1403	 7.42489577535842E-02 
1404	 0.070607109499225 
1405	 6.84321386230808E-02 
1406	 6.49703360745862E-02 
1407	 6.10884049565585E-02 
1408	 5.92536747449931E-02 
1409	 5.70892446630702E-02 
1410	 5.46437150005962E-02 
1411	 5.29166953372291E-02 
1412	 5.21082013668089E-02 
1413	 5.05443085614664E-02 
1414	 4.86548307972052E-02 
1415	 4.73792364325015E-02 
1416	 4.63403125575463E-02 
1417	 4.51546704557517E-02 
1418	 4.40627939253972E-02 
1419	 4.30615809309271E-02 
1420	 4.18958460648637E-02 
1421	 4.10663403298331E-02 
1422	 4.05012059452311E-02 
1423	 3.98745950994036E-02 
1424	 3.92407616227312E-02 
1425	 0.038741038277913 
1426	 3.83803092536036E-02 
1427	 0.037828132313824 
1428	 3.71895711322144E-02 
1429	 3.66313543345034E-02 
1430	 3.57838314343913E-02 
1431	 3.53837032066341E-02 
1432	 3.54425015670809E-02 
1433	 3.52075410488723E-02 
1434	 3.49580057774526E-02 
1435	 3.47556519379102E-02 
1436	 0.034377143143122 
1437	 3.41254122047619E-02 
1438	 3.42003985085497E-02 
1439	 3.40510012127988E-02 
1440	 3.37284564905781E-02 
1441	 3.34803855694294E-02 
1442	 3.31809141622089E-02 
1443	 3.28127643423552E-02 
1444	 3.28218270737537E-02 
1445	 3.30240316703642E-02 
1446	 3.30556467535869E-02 
1447	 3.29964032078114E-02 
1448	 3.28248881056787E-02 
1449	 3.23584393956792E-02 
1450	 3.22614765588283E-02 
1451	 0.032322003601549 
1452	 0.032235565318653 
1453	 3.21946466940581E-02 
1454	 3.21397029439925E-02 
1455	 0.031926778410323 
1456	 0.031972574803577 
1457	 3.22066704166372E-02 
1458	 3.23015304592737E-02 
1459	 3.24479743073028E-02 
1460	 3.25478007796841E-02 
1461	 3.25681482478412E-02 
1462	 3.26459202251664E-02 
1463	 0.032706503802001 
1464	 3.28844371670337E-02 
1465	 3.31256068896456E-02 
1466	 3.33870341650904E-02 
1467	 3.37908279091946E-02 
1468	 0.034156959158892 
1469	 3.44826140333736E-02 
1470	 3.48528185315244E-02 
1471	 3.52359094466253E-02 
1472	 0.035618711337031 
1473	 3.59469296010983E-02 
1474	 3.63431723568706E-02 
1475	 3.67918576716996E-02 
1476	 3.72176280339211E-02 
1477	 3.77188472213982E-02 
1478	 0.038103337161197 
1479	 3.82898068751932E-02 
1480	 3.86708344033431E-02 
1481	 3.90579453914706E-02 
1482	 3.95228517781766E-02 
1483	 4.02102272416792E-02 
1484	 4.07530055128874E-02 
1485	 4.11922091923759E-02 
1486	 4.16783869104151E-02 
1487	 4.20344247247484E-02 
1488	 4.25845417876955E-02 
1489	 4.32395983312513E-02 
1490	 4.38595249126458E-02 
1491	 4.43694111524108E-02 
1492	 4.47657828217729E-02 
1493	 4.51897202681203E-02 
1494	 4.57372711870186E-02 
1495	 4.62985900085751E-02 
1496	 4.70249929250348E-02 
1497	 4.76437435787707E-02 
1498	 4.81950332131259E-02 
1499	 0.048825373629213 
1500	 4.95410631607039E-02 
1501	 5.01733628494189E-02 
1502	 5.07802849009548E-02 
1503	 5.14534196209602E-02 
1504	 5.21035324566096E-02 
1505	 5.28103362008818E-02 
1506	 5.36010860309099E-02 
1507	 5.43244716517747E-02 
1508	 5.50606747234861E-02 
1509	 5.57346454634502E-02 
1510	 5.63199978053406E-02 
1511	 5.70228354135977E-02 
1512	 5.77257993810651E-02 
1513	 0.05846968154139 
1514	 5.93491645488541E-02 
1515	 6.01183188983088E-02 
1516	 6.08198627068979E-02 
1517	 6.15915308447607E-02 
1518	 6.23787536653565E-02 
1519	 6.31503321134807E-02 
1520	 6.39654823273574E-02 
1521	 6.47519215364514E-02 
1522	 6.55151974585988E-02 
1523	 6.62686262789586E-02 
1524	 6.70030440226116E-02 
1525	 6.77613949909836E-02 
1526	 6.85263955400387E-02 
1527	 6.92744025374897E-02 
1528	 7.00338264444907E-02 
1529	 0.07080137482144 
1530	 7.15331115829723E-02 
1531	 0.072306100505543 
1532	 7.31238555964571E-02 
1533	 7.39411120065808E-02 
1534	 7.48000981140436E-02 
1535	 7.56065287120587E-02 
1536	 7.63481961277278E-02 
1537	 7.71782603957981E-02 
1538	 0.078045309999099 
1539	 0.078884306234966 
1540	 7.97993781794171E-02 
1541	 0.080656273525801 
1542	 8.14465003619923E-02 
1543	 0.082238516194434 
1544	 8.29935324114046E-02 
1545	 8.37967291221476E-02 
1546	 8.46209148087242E-02 
1547	 8.54307469372448E-02 
1548	 8.62864597076251E-02 
1549	 8.71136807330585E-02 
1550	 8.78887126325244E-02 
1551	 8.86907283469051E-02 
1552	 8.95114738690043E-02 
1553	 9.03267540772909E-02 
1554	 9.11541283534842E-02 
1555	 9.19730111327897E-02 
1556	 9.27994051422022E-02 
1557	 9.35980338187007E-02 
1558	 9.43694809076495E-02 
1559	 9.51475094602755E-02 
1560	 9.58966997017915E-02 
1561	 9.66708397880577E-02 
1562	 9.74877838342817E-02 
1563	 9.82793137749461E-02 
1564	 9.91023401119111E-02 
1565	 9.98834509652118E-02 
1566	 0.100576674067186 
1567	 0.101236144942304 
1568	 0.101933064628432 
1569	 0.102565596411397 
1570	 0.103325160073508 
1571	 0.104188735095336 
1572	 0.104944982250214 
1573	 0.105696304215379 
1574	 0.106448328301548 
1575	 0.107134756207505 
1576	 0.107893975181233 
1577	 0.1086999269994 
1578	 0.109464880207262 
1579	 0.110214709453987 
1580	 0.11097122725611 
1581	 0.111738500983151 
1582	 0.112440706236228 
1583	 0.113098748858913 
1584	 0.113821664712085 
1585	 0.114548029442735 
1586	 0.115217998427143 
1587	 0.115906530268093 
1588	 0.116599885083403 
1589	 0.11722787271216 
1590	 0.117902370801113 
1591	 0.118666609706875 
1592	 0.119325865197291 
1593	 0.119920592359804 
1594	 0.120528644280489 
1595	 0.121104710178572 
1596	 0.121738096709813 
1597	 0.122393670922536 
1598	 0.123019670242042 
1599	 0.123682272161893 
1600	 0.124296845524307 
1601	 0.124839256676007 
1602	 0.125465330293783 
1603	 0.126116526239071 
1604	 0.126776565600707 
1605	 0.127495532326073 
1606	 0.128128188873772 
1607	 0.128713911656027 
1608	 0.129335312027201 
1609	 0.129939990915838 
1610	 0.130513553767523 
1611	 0.131082721899231 
1612	 0.131689858480118 
1613	 0.132285318743254 
1614	 0.132833251071785 
1615	 0.133395242797974 
1616	 0.133964690079971 
1617	 0.134456589709395 
1618	 0.135034831819035 
1619	 0.135743722092637 
1620	 0.136286162929337 
1621	 0.136748272566725 
1622	 0.13723858691349 
1623	 0.137692398119743 
1624	 0.138125706601107 
1625	 0.138526773990141 
1626	 0.139024684133761 
1627	 0.139534153986708 
1628	 0.140029532565441 
1629	 0.140616887861712 
1630	 0.141134912041532 
1631	 0.141604347563315 
1632	 0.142030128718347 
1633	 0.142475455851769 
1634	 0.14283116954115 
1635	 0.143032314089609 
1636	 0.143400614931326 
1637	 0.143830318400309 
1638	 0.144187796720639 
1639	 0.144570198475228 
1640	 0.144972726867889 
1641	 0.145351986128064 
1642	 0.145689506394239 
1643	 0.146068972588524 
1644	 0.146374573235132 
1645	 0.146545778083126 
1646	 0.146831523700149 
1647	 0.147182978100211 
1648	 0.147475100576505 
1649	 0.147784836564566 
1650	 0.148004606258591 
1651	 0.14812949174484 
1652	 0.148395197284793 
1653	 0.148715619510468 
1654	 0.148884793920601 
1655	 0.14906083065762 
1656	 0.149242725485977 
1657	 0.149291550024395 
1658	 0.149460536239782 
1659	 0.149619743361224 
1660	 0.149700652256176 
1661	 0.149803004781602 
1662	 0.149874122717406 
1663	 0.15009676857897 
1664	 0.150331067305784 
1665	 0.150401381620894 
1666	 0.15045921906649 
1667	 0.150532771117558 
1668	 0.150597491478968 
1669	 0.150611079744259 
1670	 0.150644210871296 
1671	 0.150678691812825 
1672	 0.150685730901992 
1673	 0.150766152626014 
1674	 0.150874536170067 
1675	 0.150949809257415 
1676	 0.151003322502471 
1677	 0.150970127400226 
1678	 0.150840166846602 
1679	 0.150717461405966 
1680	 0.15054538889416 
1681	 0.150374177206055 
1682	 0.150321830227108 
1683	 0.150201006496632 
1684	 0.14993807609695 
1685	 0.149686724519703 
1686	 0.14937656506595 
1687	 0.149125450240884 
1688	 0.149017776561769 
1689	 0.148811517113908 
1690	 0.148601139517477 
1691	 0.148386452518492 
1692	 0.148119873252903 
1693	 0.147883542424815 
1694	 0.147784705394218 
1695	 0.147493859207758 
1696	 0.147021867514292 
1697	 0.146643976067236 
1698	 0.146176182638093 
1699	 0.145717765397873 
1700	 0.145342603206507 
1701	 0.144937749623378 
1702	 0.144447879581505 
1703	 0.144060102252837 
1704	 0.143791754988964 
1705	 0.143446279645093 
1706	 0.143163085136836 
1707	 0.142720899705198 
1708	 0.142033381433775 
1709	 0.141564082916758 
1710	 0.141175688957312 
1711	 0.140717618632044 
1712	 0.140293127351761 
1713	 0.139983607084489 
1714	 0.139684108822423 
1715	 0.139315006199141 
1716	 0.139123217307347 
1717	 0.13875746892767 
1718	 0.138100249187081 
1719	 0.137675375185474 
1720	 0.137372971604333 
1721	 0.136976238101008 
1722	 0.136625424946808 
1723	 0.136262627190443 
1724	 0.135866386328524 
1725	 0.135385472453628 
1726	 0.134829017394873 
1727	 0.134423103486323 
1728	 0.134011537230559 
1729	 0.133579522900427 
1730	 0.133323107600074 
1731	 0.132739881671913 
1732	 0.132164744756994 
1733	 0.131722673977656 
1734	 0.131225261961896 
1735	 0.130825936194478 
1736	 0.130482674420017 
1737	 0.130148935099379 
1738	 0.12989524834713 
1739	 0.129387121555237 
1740	 0.128746556674668 
1741	 0.128138167462635 
1742	 0.127389040432133 
1743	 0.126671126097996 
1744	 0.126030022223815 
1745	 0.125394462171074 
1746	 0.124794098321202 
1747	 0.124340655427914 
1748	 0.12392738813578 
1749	 0.123233407640615 
1750	 0.122364520801769 
1751	 0.121527577889166 
1752	 0.120737036472468 
1753	 0.119989460972818 
1754	 0.119489362501425 
1755	 0.119071270374894 
1756	 0.118371389237042 
1757	 0.117713448101329 
1758	 0.117050359794763 
1759	 0.11613213675252 
1760	 0.115546369297572 
1761	 0.115252383094555 
1762	 0.114773891867365 
1763	 0.114387485230864 
1764	 0.113959573709241 
1765	 0.113419282220264 
1766	 0.112907220558274 
1767	 0.112319272090158 
1768	 0.111924727308574 
1769	 0.111626670166416 
1770	 0.111255873334254 
1771	 0.111043074810119 
1772	 0.110766683009282 
1773	 0.110347421685729 
1774	 0.110213659551658 
1775	 0.109986733546219 
1776	 0.109815860348698 
1777	 0.109661805125402 
1778	 0.109453691490493 
1779	 0.109462424776015 
1780	 0.109238291565226 
1781	 0.108650800053207 
1782	 0.108307561071702 
1783	 0.107976269988966 
1784	 0.108150841741783 
1785	 0.108572546553609 
1786	 0.108545134875788 
1787	 0.108695270695465 
1788	 0.108743043856312 
1789	 0.108631771205964 
1790	 0.108640618888523 
1791	 0.108805663627667 
1792	 0.10885849579904 
1793	 0.108926923618814 
1794	 0.109631362154784 
1795	 0.110185102918295 
1796	 0.110481326870182 
1797	 0.111087266382651 
1798	 0.111644938916608 
1799	 0.112202643960531 
1800	 0.1136068209016 
1801	 0.109508977993853 
1802	 0.10986703132984 
1803	 0.110084780088946 
1804	 0.108867534714697 
1805	 0.108452280580437 
1806	 0.108324150675333 
1807	 0.10848951200116 
1808	 0.108577600732922 
1809	 0.108963999624061 
1810	 0.110342320708193 
1811	 0.113738175225228 
1812	 0.11537892692458 
1813	 0.117260867040666 
1814	 0.118561732174068 
1815	 0.117600458256228 
1816	 0.118224363694141 
1817	 0.120486728288952 
1818	 0.121452466932248 
1819	 0.122033926116322 
1820	 0.12270400168263 
1821	 0.12255387089705 
1822	 0.119630873578916 
1823	 0.11867862450794 
1824	 0.119092770416893 
1825	 0.118428113887698 
1826	 0.117819058838683 
1827	 0.11675824700799 
1828	 0.114989911206923 
1829	 0.11042726402185 
1830	 0.108060992322807 
1831	 0.105984120778442 
1832	 0.105374019195528 
1833	 0.109944942543395 
1834	 0.113775167866012 
1835	 0.128520753097119 
1836	 0.133638363166003 
1837	 0.118177954727826 
1838	 0.115102491330067 
1839	 0.113070323847723 
1840	 0.101951792147169 
1841	 0.103760903477362 
1842	 0.134064688891745 
1843	 0.130052884587892 
1844	 9.57960034379934E-02 
1845	 0.09570893118453 
1846	 0.105132233948885 
1847	 0.107880594357735 
1848	 0.115217277188018 
1849	 0.149284124696815 
1850	 0.164308951149937 
1851	 0.163220276224276 
1852	 0.165574666719842 
1853	 0.174845381193831 
1854	 0.17168039262579 
1855	 0.155000748277415 
1856	 0.142821288202858 
1857	 0.118005464807413 
1858	 0.115948722486195 
1859	 0.119426362323715 
1860	 0.130729191549371 
1861	 0.133260436260166 
1862	 0.149080757035863 
1863	 0.145849886208813 
1864	 0.119650868685306 
1865	 0.111684701168227 
1866	 0.108725530175323 
1867	 9.99517704967277E-02 
1868	 0.102159381978922 
1869	 9.32479468634611E-02 
1870	 7.87554190121308E-02 
1871	 3.95984624182828E-02 
1872	 3.51206318364239E-02 
1873	 4.96301045286835E-02 
1874	 5.11913430166663E-02 
1875	 0.061881365942459 
1876	 6.53611480573648E-02 
1877	 6.57995722462056E-02 
1878	 0.06199983467444 
1879	 5.60173017747043E-02 
1880	 4.27167893376277E-02 
1881	 3.81691142913542E-02 
1882	 3.17448149514138E-02 
1883	 2.70000772608128E-02 
1884	 2.66331072728372E-02 
1885	 2.61041071481677E-02 
1886	 0.025189684433379 
1887	 2.03501872259142E-02 
1888	 2.10746082561064E-02 
1889	 2.04723723691213E-02 
1890	 1.83339935738407E-02 
1891	 0.010260125313277 
1892	 1.18175017681659E-02 
1893	 1.88020051793467E-02 
1894	 2.37073515605222E-02 
1895	 4.01800786621952E-02 
1896	 4.72251196985854E-02 
1897	 5.28568307450935E-02 
1898	 4.13969704186096E-02 
1899	 3.36421165856011E-02 
1900	 3.08983814850916E-02 
1901	 2.86205015184455E-02 
1902	 3.06640661430771E-02 
1903	 4.00268532336112E-02 
1904	 6.27602979615843E-02 
1905	 6.95503640229832E-02 
1906	 8.23361436946157E-02 
1907	 7.72652212378652E-02 
1908	 3.72344242187411E-02 
1909	 1.15246060732105E-02 
1910	 1.5921900085444E-03 
1911	-5.13077995254493E-03 
1912	-4.84936334263668E-03 
1913	 8.24782430545302E-03 
1914	 9.13921506970192E-03 
1915	 4.71412120688581E-03 
1916	 6.72521381767992E-03 
1917	 1.13089797230393E-02 
1918	 1.35838420464413E-02 
1919	 1.24730100582771E-02 
1920	 9.57717263721567E-03 
1921	 4.16677903234756E-03 
1922	-3.09394742736558E-03 
1923	-3.78174992359443E-03 
1924	 3.06496133958914E-04 
1925	 2.35151760210663E-03 
1926	 7.66170345470893E-03 
1927	 8.99196435621279E-03 
1928	 9.79344654276966E-03 
1929	 6.41597075763126E-03 
1930	 1.53851564751199E-03 
1931	 1.7978492077815E-04 
1932	 3.82097562451951E-03 
1933	 5.07949494245125E-03 
1934	 5.34042123014669E-03 
1935	 7.51229391213821E-03 
1936	 7.13587567234136E-03 
1937	 2.91036603760214E-03 
1938	 2.5541424699299E-03 
1939	 3.7479989736753E-03 
1940	 4.01818011728967E-03 
1941	 4.99494371760192E-03 
1942	 4.77163976916717E-03 
1943	 4.7011318242349E-03 
1944	 5.35499598350963E-03 
1945	 5.23271930331139E-03 
1946	 7.28541833862805E-03 
1947	 8.03049764566735E-03 
1948	 7.97584239497667E-03 
1949	 7.71265268234386E-03 
1950	 7.66119192128639E-03 
1951	 6.55437541438836E-03 
1952	 5.09071287625847E-03 
1953	 5.28879040387381E-03 
1954	 5.12371838126786E-03 
1955	 5.04280079117251E-03 
1956	 4.77901540911614E-03 
1957	 4.05660244959105E-03 
1958	 3.88548244045013E-03 
1959	 3.68777444140655E-03 
1960	 0.003775847718619 
1961	 4.05869450672034E-03 
1962	 4.75616717416719E-03 
1963	 5.47810691734362E-03 
1964	 5.58232263153336E-03 
1965	 5.41151367047378E-03 
1966	 5.95974153386922E-03 
1967	 6.12461615793787E-03 
1968	 6.04507345519367E-03 
1969	 5.93923369068922E-03 
1970	 5.65507674247625E-03 
1971	 5.47036107827172E-03 
1972	 5.14849434100997E-03 
1973	 5.12991299703809E-03 
1974	 5.23854881374463E-03 
1975	 5.11965889539879E-03 
1976	 4.89901643605369E-03 
1977	 5.13074003431452E-03 
1978	 5.48494226550042E-03 
1979	 5.96339587486072E-03 
1980	 6.42115407939589E-03 
1981	 6.41505117637283E-03 
1982	 6.30841285704391E-03 
1983	 5.88025873884745E-03 
1984	 5.46700024332492E-03 
1985	 5.49082609621643E-03 
1986	 5.97753798784804E-03 
1987	 6.32835731002663E-03 
1988	 6.85243399859027E-03 
1989	 7.09312346636552E-03 
1990	 6.85304342051494E-03 
1991	 7.26337636481661E-03 
1992	 7.64955042736077E-03 
1993	 7.70100750465848E-03 
1994	 7.65569136164679E-03 
1995	 7.64431437230994E-03 
1996	 7.20669738491877E-03 
1997	 7.17780197192837E-03 
1998	 7.3312904761955E-03 
1999	 7.89378031364728E-03 
2000	 8.47050177165999E-03 
2001	 8.1874373281904E-03 
2002	 8.39127401805239E-03 
2003	 8.31024822332668E-03 
2004	 8.10368750089786E-03 
2005	 8.89254462140987E-03 
2006	 9.15798657415689E-03 
2007	 9.24673851631946E-03 
2008	 9.30131911651574E-03 
2009	 9.23192921775178E-03 
2010	 8.91822414012804E-03 
2011	 8.88235176236017E-03 
2012	 8.9189237523143E-03 
2013	 9.30888123553731E-03 
2014	 9.69552802380742E-03 
2015	 9.94855189675886E-03 
2016	 1.04107681727513E-02 
2017	 1.08234979146782E-02 
2018	 1.08349630529373E-02 
2019	 1.08171336762756E-02 
2020	 1.06574925958139E-02 
2021	 0.010512226989037 
2022	 1.06127769985019E-02 
2023	 1.09343887243481E-02 
2024	 1.12381595210571E-02 
2025	 1.15909257841736E-02 
2026	 1.18488059932181E-02 
2027	 1.18622987305162E-02 
2028	 0.011872004328242 
2029	 1.23507071493237E-02 
2030	 1.24105971122452E-02 
2031	 1.22889793497554E-02 
2032	 1.25186844097344E-02 
2033	 1.30310238340889E-02 
2034	 1.29420347142899E-02 
2035	 1.31508888911495E-02 
2036	 1.36635088890679E-02 
2037	 0.013557733634747 
2038	 1.38290317580444E-02 
2039	 1.42133726189575E-02 
2040	 0.014382013256912 
2041	 1.46955588717939E-02 
2042	 1.46919815309282E-02 
2043	 1.45751388061991E-02 
2044	 1.45069709794996E-02 
2045	 1.45137274231118E-02 
2046	 0.014490887970752 
2047	 1.48338041914477E-02 
2048	 1.52470179095568E-02 
2049	 1.56166250104116E-02 
2050	 1.61672141511918E-02 
2051	 1.64880224811708E-02 
2052	 1.63485064953638E-02 
2053	 1.59750261551061E-02 
2054	 1.59311363814474E-02 
2055	 1.60502188562419E-02 
2056	 1.63851760943017E-02 
2057	 1.72692839587638E-02 
2058	 1.75282323603798E-02 
2059	 1.77036773095454E-02 
2060	 1.75834109974896E-02 
2061	 1.76327112024009E-02 
2062	 1.75523797610153E-02 
2063	 1.79244843348889E-02 
2064	 1.83686209140866E-02 
2065	 0.018613185960333 
2066	 1.88967335552578E-02 
2067	 1.93697805952152E-02 
2068	 1.95559656279432E-02 
2069	 1.95241134425166E-02 
2070	 1.95289941297264E-02 
2071	 1.91231888676787E-02 
2072	 1.90232369689862E-02 
2073	 0.018938491957496 
2074	 0.019269615650338 
2075	 1.97499717649115E-02 
2076	 2.02007898183107E-02 
2077	 2.03221686482015E-02 
2078	 2.04486764478331E-02 
2079	 2.04785792868905E-02 
2080	 2.06719325031215E-02 
2081	 2.13847160871864E-02 
2082	 2.16243062468299E-02 
2083	 0.021539814137614 
2084	 2.15876833295095E-02 
2085	 2.13024146077546E-02 
2086	 2.13181652836027E-02 
2087	 2.15980883503663E-02 
2088	 2.22418017655985E-02 
2089	 2.27220901562952E-02 
2090	 2.31124153408907E-02 
2091	 2.35588272416173E-02 
2092	 2.37599012699458E-02 
2093	 2.37661003181787E-02 
2094	 2.41411914281767E-02 
2095	 2.43481652612106E-02 
2096	 2.46117100175586E-02 
2097	 2.50390675706369E-02 
2098	 2.52209255044666E-02 
2099	 2.56129408326595E-02 
2100	 0.026049640234649 
2101	 2.64711021274038E-02 
2102	 2.67444619073819E-02 
2103	 2.70274361516699E-02 
2104	 0.026939903025688 
2105	 2.70864367365111E-02 
2106	 2.72040502157894E-02 
2107	 2.73014665715352E-02 
2108	 0.027945438312838 
2109	 2.82692746509297E-02 
2110	 2.81573924191707E-02 
2111	 2.81250473936758E-02 
2112	 2.81062454431022E-02 
2113	 2.79367119808942E-02 
2114	 2.82065078153445E-02 
2115	 2.86535575738213E-02 
2116	 2.88560372562914E-02 
2117	 2.91502736410324E-02 
2118	 2.94908317936825E-02 
2119	 2.97271279975333E-02 
2120	 2.99185174544868E-02 
2121	 3.02901362040456E-02 
2122	 0.03017035388092 
2123	 0.030407151373208 
2124	 3.07605216567645E-02 
2125	 3.09171621166566E-02 
2126	 0.031382760995667 
2127	 3.16290883898454E-02 
2128	 3.18266492587077E-02 
2129	 3.22320248661604E-02 
2130	 3.25260894105762E-02 
2131	 3.28227000211192E-02 
2132	 0.033294460963562 
2133	 3.30903480482114E-02 
2134	 3.29184552068377E-02 
2135	 3.24918566082185E-02 
2136	 3.26955941830175E-02 
2137	 3.26440322461646E-02 
2138	 3.30492669922178E-02 
2139	 3.39450384937168E-02 
2140	 3.43389661811919E-02 
2141	 3.47058652598735E-02 
2142	 3.49445323852508E-02 
2143	 3.49500903013119E-02 
2144	 3.52176031942373E-02 
2145	 3.54544857661199E-02 
2146	 3.57779561792642E-02 
2147	 3.63993698342705E-02 
2148	 3.67763578354546E-02 
2149	 3.68285523274145E-02 
2150	 3.67668411958303E-02 
2151	 3.67873990772743E-02 
2152	 3.64986424169348E-02 
2153	 3.66678524521025E-02 
2154	 3.71628648301749E-02 
2155	 3.77146078435823E-02 
2156	 3.80267253467873E-02 
2157	 3.79828046807564E-02 
2158	 3.77843802030064E-02 
2159	 3.76010700463765E-02 
2160	 3.80176942096014E-02 
2161	 3.86950777768507E-02 
2162	 3.90599283402758E-02 
2163	 3.93380096240883E-02 
2164	 3.92977194076256E-02 
2165	 3.91359334583395E-02 
2166	 3.90695734476947E-02 
2167	 3.91366765981111E-02 
2168	 3.93454720549986E-02 
2169	 0.039752790635812 
2170	 3.99437474326674E-02 
2171	 4.02111783296387E-02 
2172	 4.03511829872324E-02 
2173	 4.03479227291089E-02 
2174	 4.02587527448828E-02 
2175	 4.02663458405211E-02 
2176	 0.040490580622289 
2177	 0.040145641960875 
2178	 3.98287829734527E-02 
2179	 4.00757571744065E-02 
2180	 3.98513188535779E-02 
2181	 3.98852888935656E-02 
2182	 4.01713642689802E-02 
2183	 4.01088303623884E-02 
2184	 4.04938585398041E-02 
2185	 4.10205156645358E-02 
2186	 4.14003949121748E-02 
2187	 4.17182726936031E-02 
2188	 0.041849475817592 
2189	 4.19452763677896E-02 
2190	 4.18910733635646E-02 
2191	 4.22680258341482E-02 
2192	 4.25937386852712E-02 
2193	 4.24429864343895E-02 
2194	 4.24533486648891E-02 
2195	 4.21006364509902E-02 
2196	 4.14805880404048E-02 
2197	 4.18756037931696E-02 
2198	 4.22313881930663E-02 
2199	 0.042397241871975 
2200	 4.32909847714973E-02 
2201	 4.34164227779191E-02 
2202	 4.32111499889539E-02 
2203	 4.37284051532974E-02 
2204	 0.043589920892526 
2205	 4.33575581119945E-02 
2206	 4.34238934861612E-02 
2207	 4.26331390127532E-02 
2208	 4.21758338529972E-02 
2209	 4.16029130677492E-02 
2210	 4.15216797982912E-02 
2211	 4.15142710666664E-02 
2212	 4.21915389273542E-02 
2213	 4.32967206782175E-02 
2214	 4.35660079840718E-02 
2215	 4.38872561929356E-02 
2216	 4.44639314840796E-02 
2217	 4.42868957589548E-02 
2218	 4.44889043450846E-02 
2219	 0.044715151684084 
2220	 4.38227420027677E-02 
2221	 4.31966121993334E-02 
2222	 4.27295198335841E-02 
2223	 4.22237053927708E-02 
2224	 4.24932135827796E-02 
2225	 4.30957266423394E-02 
2226	 4.32057660385839E-02 
2227	 4.31461738159432E-02 
2228	 4.32958536241223E-02 
2229	 4.29219410214384E-02 
2230	 4.27449187763919E-02 
2231	 4.27136568830616E-02 
2232	 0.042776200730223 
2233	 4.25666055567081E-02 
2234	 4.23600150887308E-02 
2235	 0.042332650200588 
2236	 4.20055903044356E-02 
2237	 4.20336306876141E-02 
2238	 4.25378419489359E-02 
2239	 4.20488743064726E-02 
2240	 4.17445696973743E-02 
2241	 4.18560654350313E-02 
2242	 4.12134156322117E-02 
2243	 4.16197681800571E-02 
2244	 4.18432174483743E-02 
2245	 0.041105104327817 
2246	 4.07962244061837E-02 
2247	 3.98810040614721E-02 
2248	 3.89472376769375E-02 
2249	 3.89843793480784E-02 
2250	 3.91834175247085E-02 
2251	 3.96220013413741E-02 
2252	 3.99451313093654E-02 
2253	 3.90644906703711E-02 
2254	 3.81877817180749E-02 
2255	 3.79339592461882E-02 
2256	 3.77137986460599E-02 
2257	 3.77700676859619E-02 
2258	 3.81231368616157E-02 
2259	 3.81215965881708E-02 
2260	 3.75141710255881E-02 
2261	 3.63303199698266E-02 
2262	 3.58553597997432E-02 
2263	 3.57595419380854E-02 
2264	 3.55944229967774E-02 
2265	 3.56843076495596E-02 
2266	 3.50462533211045E-02 
2267	 3.43085838006619E-02 
2268	 3.40453469949088E-02 
2269	 3.41952079510289E-02 
2270	 3.49946332766013E-02 
2271	 3.57120415565606E-02 
2272	 3.50000261396508E-02 
2273	 3.37968225662139E-02 
2274	 3.29449715658631E-02 
2275	 3.19511373136612E-02 
2276	 3.20026294018939E-02 
2277	 3.23451975476179E-02 
2278	 3.22178894997648E-02 
2279	 3.24899774923889E-02 
2280	 3.20612577764147E-02 
2281	 3.11848392857859E-02 
2282	 3.05549372301325E-02 
2283	 2.95924981718112E-02 
2284	 2.92167845784121E-02 
2285	 2.94123928813226E-02 
2286	 2.94915941216872E-02 
2287	 2.97924923939889E-02 
2288	 3.01642538280512E-02 
2289	 3.02585475569178E-02 
2290	 2.99767349005629E-02 
2291	 2.92916509952146E-02 
2292	 2.89873581915744E-02 
2293	 2.92027898688092E-02 
2294	 2.92919605074316E-02 
2295	 2.92788318608923E-02 
2296	 2.82085121826151E-02 
2297	 0.026607914767429 
2298	 2.55931689704298E-02 
2299	 2.47825457109853E-02 
2300	 2.47983432258372E-02 
2301	 0.024759804599886 
2302	 2.43783926486147E-02 
2303	 2.47726098425075E-02 
2304	 2.56649738929068E-02 
2305	 2.65826843908278E-02 
2306	 2.74016525552062E-02 
2307	 2.78221166725578E-02 
2308	 0.027760899703648 
2309	 2.72911086844237E-02 
2310	 2.60811425895161E-02 
2311	 2.52010117522041E-02 
2312	 2.47353413148226E-02 
2313	 2.48040940499917E-02 
2314	 2.54893506273579E-02 
2315	 2.57816604718155E-02 
2316	 2.58802422495202E-02 
2317	 2.53599146302285E-02 
2318	 2.52630731905598E-02 
2319	 2.47116952490856E-02 
2320	 2.36181937898581E-02 
2321	 2.31442389489835E-02 
2322	 2.26199877020262E-02 
2323	 2.22115143399232E-02 
2324	 0.022111696889534 
2325	 2.27101971680804E-02 
2326	 2.36762306215101E-02 
2327	 2.46985358063281E-02 
2328	 2.44343562387765E-02 
2329	 2.43264211025167E-02 
2330	 2.31015691893735E-02 
2331	 2.13455007154237E-02 
2332	 2.17477761651708E-02 
2333	 2.16389136026787E-02 
2334	 2.04838818789681E-02 
2335	 2.03837323154599E-02 
2336	 2.00267865108663E-02 
2337	 1.86186020979096E-02 
2338	 1.76868219819797E-02 
2339	 1.77344929186668E-02 
2340	 1.77668561304484E-02 
2341	 1.86923026718214E-02 
2342	 2.04677286533031E-02 
2343	 2.09959420953867E-02 
2344	 2.12703576726542E-02 
2345	 2.21452972604094E-02 
2346	 2.17970512908043E-02 
2347	 2.10946550681737E-02 
2348	 2.12643039162619E-02 
2349	 1.96663360280011E-02 
2350	 1.79766723892069E-02 
2351	 1.89838306415794E-02 
2352	 1.91656905669004E-02 
2353	 1.79725500871588E-02 
2354	 1.88481495369961E-02 
2355	 2.01640696150917E-02 
2356	 1.93610837366013E-02 
2357	 1.92102917621159E-02 
2358	 0.018716120825856 
2359	 1.58544792865986E-02 
2360	 0.014070167176575 
2361	 1.41123357156577E-02 
2362	 1.48760833610199E-02 
2363	 1.60817015430516E-02 
2364	 0.016935761662085 
2365	 1.66632401463482E-02 
2366	 1.62089973985899E-02 
2367	 0.016689402810488 
2368	 1.68276788257835E-02 
2369	 1.60350179287048E-02 
2370	 1.47080041288958E-02 
2371	 1.24259571477592E-02 
2372	 1.15544479370277E-02 
2373	 1.20229946634915E-02 
2374	 1.19882799283806E-02 
2375	 1.30619799674641E-02 
2376	 1.34871936876197E-02 
2377	 1.20083991736857E-02 
2378	 1.17128597537701E-02 
2379	 1.18434338883879E-02 
2380	 0.012927855692675 
2381	 1.61281108549933E-02 
2382	 1.75130125618314E-02 
2383	 1.91125483231407E-02 
2384	 1.91474883986918E-02 
2385	 1.67896214818725E-02 
2386	 1.50322259324636E-02 
2387	 1.23343592418127E-02 
2388	 1.20187685669657E-02 
2389	 1.27264946297831E-02 
2390	 1.27635587122854E-02 
2391	 1.54824941120995E-02 
2392	 1.55304228457615E-02 
2393	 1.26341257847864E-02 
2394	 1.11946669010581E-02 
2395	 8.71595290441089E-03 
2396	 6.99424792624157E-03 
2397	 6.89668310628739E-03 
2398	 6.2760583243194E-03 
2399	 5.88176841538805E-03 
2400	 6.01031599690414E-03 
2401	 6.05139039147587E-03 
2402	 5.19877812190009E-03 
2403	 6.89582653349473E-03 
2404	 7.77771517050213E-03 
2405	 8.67977146979058E-03 
2406	 9.64582851989931E-03 
2407	 7.3776667773177E-03 
2408	 5.49259860002333E-03 
2409	 6.89287526188365E-03 
2410	 9.79859478064043E-03 
2411	 1.33091459844435E-02 
2412	 1.59955850818123E-02 
2413	 1.52561842144344E-02 
2414	 1.10483374417342E-02 
2415	 8.78855040328436E-03 
2416	 9.27944398373999E-03 
2417	 7.97224443611297E-03 
2418	 6.60516370347284E-03 
2419	 7.48075354125456E-03 
2420	 7.39992553408134E-03 
2421	 7.05546010387628E-03 
2422	 8.24941288856016E-03 
2423	 8.62549445226787E-03 
2424	 8.48480486543379E-03 
2425	 8.52913556109659E-03 
2426	 7.02355774017324E-03 
2427	 4.03228908679122E-03 
2428	 2.15941299262275E-03 
2429	 2.4961705141095E-03 
2430	 2.58336089081353E-03 
2431	 3.96085862707008E-03 
2432	 5.36661685679705E-03 
2433	 3.84842089790897E-03 
2434	 4.15177987308653E-03 
2435	 4.83516614150218E-03 
2436	 4.19768157346636E-03 
2437	 2.94812676588034E-03 
2438	 3.42264699265788E-03 
2439	 3.98398473382758E-03 
2440	 2.87837186355751E-03 
2441	 4.54435857759856E-03 
2442	 2.65716447975022E-03 
2443	-6.74692339675307E-03 
2444	-8.10024871926996E-03 
2445	-5.53011615693121E-03 
2446	-5.97985433721776E-03 
2447	 5.86141483636692E-04 
2448	 1.30558751948106E-03 
2449	-9.22191165754726E-03 
2450	-9.69591983690389E-03 
2451	-5.81275583557009E-03 
2452	-5.12997688465597E-03 
2453	 1.22300083048658E-03 
2454	 4.76603096173168E-03 
2455	 3.73811741195873E-03 
2456	 4.87951166777848E-03 
2457	 7.59410637465147E-03 
2458	 6.4534300561579E-03 
2459	 2.7869671679647E-03 
2460	 1.72719957788998E-03 
2461	 1.26793841747825E-03 
2462	-1.37042575410795E-03 
2463	-6.38588734032325E-03 
2464	-5.8147757282291E-03 
2465	-2.98632057481861E-03 
2466	-2.44390628373875E-03 
2467	 3.74283403049972E-03 
2468	 4.26454825089055E-03 
2469	-5.66209061609586E-03 
2470	-6.03388497412596E-03 
2471	-6.38421145984212E-04 
2472	 2.77916506900052E-03 
2473	 1.15848186809219E-02 
2474	 1.54720458764553E-02 
2475	 1.59700907068426E-02 
2476	 1.41879930726228E-02 
2477	 8.19883023080391E-03 
2478	 5.4584691118876E-03 
2479	-1.27612825783384E-04 
2480	 7.97651829361051E-04 
2481	 5.31341907484749E-03 
2482	 8.26822857266737E-03 
2483	 2.91719689889862E-02 
2484	 1.14371736432885E-02 
2485	-4.10346230059261E-02 
2486	-4.55124109349906E-02 
2487	-7.23880719992506E-02 
2488	-2.89815783569193E-02 
2489	 0.03293348349141 
2490	 5.51498704073147E-02 
2491	 0.070860383744936 
2492	 5.03033983168846E-02 
2493	 2.44956808698065E-02 
2494	-1.44627478686752E-03 
2495	-1.84051086403374E-02 
2496	-7.92045313103927E-03 
2497	-1.38083794776531E-03 
2498	-2.01799838161043E-02 
2499	-0.055994968590952 
2500	-9.82959851080147E-02 
