Wavelength	ref00120.asd
350	 0.352411614206931 
351	 0.372048076644931 
352	 0.355073557980871 
353	 0.33384766321504 
354	 0.332765469224854 
355	 0.338729740399503 
356	 0.340969113849103 
357	 0.348803941978375 
358	 0.365278597862619 
359	 0.369830474351248 
360	 0.348276714141495 
361	 0.343462878590864 
362	 0.344653833541004 
363	 0.341582297583783 
364	 0.328863290735228 
365	 0.33937456680974 
366	 0.337888814847902 
367	 0.319018343944711 
368	 0.327677026175016 
369	 0.332900640987573 
370	 0.329645760963935 
371	 0.323348289261004 
372	 0.333087092714729 
373	 0.329853098604064 
374	 0.31904413086529 
375	 0.319623871751461 
376	 0.316958452239133 
377	 0.311171664207971 
378	 0.307184957375547 
379	 0.313276800042041 
380	 0.306705276514885 
381	 0.302701873730454 
382	 0.312352734096615 
383	 0.316202268942691 
384	 0.316069618723657 
385	 0.31220372565702 
386	 0.306031676844888 
387	 0.306257344929597 
388	 0.304347553683682 
389	 0.300135977078418 
390	 0.301633274952692 
391	 0.291311219817902 
392	 0.287181819613316 
393	 0.296499025397359 
394	 0.290361316561184 
395	 0.291719393342707 
396	 0.294046315173359 
397	 0.286825053096333 
398	 0.289976832063578 
399	 0.287910426731311 
400	 0.28000219171999 
401	 0.278264742969366 
402	 0.278462716186306 
403	 0.278056484592319 
404	 0.27745565857868 
405	 0.283113518207226 
406	 0.283465177045072 
407	 0.279706228302773 
408	 0.276825360517647 
409	 0.275257683442076 
410	 0.272862618380519 
411	 0.270690482835943 
412	 0.27210144532975 
413	 0.272831290546974 
414	 0.27058542620917 
415	 0.265987057202934 
416	 0.264398740184342 
417	 0.266074182173774 
418	 0.266277530684052 
419	 0.261463122190782 
420	 0.262743178489027 
421	 0.263297529718303 
422	 0.261397809083686 
423	 0.260260630629937 
424	 0.259787830578941 
425	 0.259148993905066 
426	 0.258019489125188 
427	 0.257283393531447 
428	 0.258467543431481 
429	 0.25996814210034 
430	 0.25919484487247 
431	 0.254202768377325 
432	 0.253685579353055 
433	 0.256217062179021 
434	 0.252524858935853 
435	 0.25238483374388 
436	 0.252355289426845 
437	 0.249892979924318 
438	 0.24824865899688 
439	 0.248130071376629 
440	 0.247983253681519 
441	 0.246227261352046 
442	 0.245868697461628 
443	 0.246051317972564 
444	 0.245553311596547 
445	 0.243237279762698 
446	 0.242727091970691 
447	 0.243173187956545 
448	 0.243318300564805 
449	 0.243046643820696 
450	 0.242416165384774 
451	 0.241345944296144 
452	 0.239982969425733 
453	 0.240330872264476 
454	 0.239936035507454 
455	 0.238577547888547 
456	 0.238896046351621 
457	 0.238967895066884 
458	 0.237495639950005 
459	 0.23456938438602 
460	 0.233645812588344 
461	 0.233356458813912 
462	 0.232874244609522 
463	 0.231816253499238 
464	 0.231037733257826 
465	 0.231282134138732 
466	 0.231671162424242 
467	 0.228974793597077 
468	 0.228944573378504 
469	 0.229225299967627 
470	 0.227041360252187 
471	 0.227056805078019 
472	 0.226659067227351 
473	 0.225661819355294 
474	 0.225489922739313 
475	 0.224846859895331 
476	 0.223740331276485 
477	 0.222623096652349 
478	 0.22244394341509 
479	 0.22270595836097 
480	 0.222409813543528 
481	 0.22098819142116 
482	 0.220800948017525 
483	 0.220982894926134 
484	 0.221337696796515 
485	 0.222343567112381 
486	 0.222028047089735 
487	 0.221510266600175 
488	 0.221566360842556 
489	 0.220469720978223 
490	 0.21905010444784 
491	 0.218572288676397 
492	 0.219855999709575 
493	 0.219734980883608 
494	 0.220250445918349 
495	 0.221776162895421 
496	 0.222242216369634 
497	 0.222757271871667 
498	 0.223846164518524 
499	 0.225484655772087 
500	 0.226252227867791 
501	 0.227603168058082 
502	 0.229611249068245 
503	 0.231499329313401 
504	 0.233060317032291 
505	 0.234930287345854 
506	 0.237637327776237 
507	 0.241452907102547 
508	 0.244972413915669 
509	 0.248255860907939 
510	 0.25209264495699 
511	 0.258051629092397 
512	 0.264591079124268 
513	 0.270746362082258 
514	 0.276386374935927 
515	 0.283679455726338 
516	 0.292518908378466 
517	 0.302063396850912 
518	 0.3109747637796 
519	 0.319176023522863 
520	 0.327573270528473 
521	 0.337032097033731 
522	 0.34516993791344 
523	 0.354324627188154 
524	 0.364876785732781 
525	 0.374607353182205 
526	 0.38326138976581 
527	 0.391897859138112 
528	 0.400934927141943 
529	 0.407587885179317 
530	 0.414781672064628 
531	 0.421828785215255 
532	 0.426508842999415 
533	 0.431588606766748 
534	 0.436792584993319 
535	 0.441310581927136 
536	 0.444037037104681 
537	 0.446625543794217 
538	 0.449325720500894 
539	 0.451855861330506 
540	 0.453587594932296 
541	 0.455196329949951 
542	 0.456891743143838 
543	 0.458424247681488 
544	 0.459523479157904 
545	 0.460716575503471 
546	 0.462191105854505 
547	 0.463016003962852 
548	 0.464182624979263 
549	 0.465445995199364 
550	 0.466093658178821 
551	 0.465999920348991 
552	 0.465325905282642 
553	 0.464207793303847 
554	 0.462710666766382 
555	 0.459678558414348 
556	 0.456343008043083 
557	 0.453422131774394 
558	 0.447949203936764 
559	 0.442778202435544 
560	 0.437968385195382 
561	 0.431898262808182 
562	 0.426175836566145 
563	 0.420165554747153 
564	 0.413477931765654 
565	 0.406540239387683 
566	 0.400918354985382 
567	 0.394928456249164 
568	 0.386984617688266 
569	 0.381643605615274 
570	 0.375648237486198 
571	 0.368423463714659 
572	 0.362069997909206 
573	 0.355084524554026 
574	 0.348582332924278 
575	 0.343055502821978 
576	 0.336410163307688 
577	 0.329514512824916 
578	 0.323389164012288 
579	 0.318855652671338 
580	 0.314628520320419 
581	 0.311031442754933 
582	 0.308121717247829 
583	 0.30544048624578 
584	 0.302261136411448 
585	 0.299460998587664 
586	 0.297654423093885 
587	 0.294741504111799 
588	 0.291940325863125 
589	 0.289588746217151 
590	 0.28731417671232 
591	 0.284147915005434 
592	 0.282022312946777 
593	 0.281324238240899 
594	 0.279152972468975 
595	 0.277674074633923 
596	 0.276358871925137 
597	 0.274155178097392 
598	 0.272015356362055 
599	 0.269923553279455 
600	 0.268054761003249 
601	 0.266756846703505 
602	 0.264670677478687 
603	 0.262637144332512 
604	 0.261143643401852 
605	 0.258461367698572 
606	 0.256320706308821 
607	 0.254526505468871 
608	 0.252047142919351 
609	 0.249210004122676 
610	 0.246863497466519 
611	 0.245067024578305 
612	 0.24272152997485 
613	 0.241427499540021 
614	 0.239995426132857 
615	 0.237303618148249 
616	 0.235317597799945 
617	 0.233197504029374 
618	 0.230907600254285 
619	 0.22893083404786 
620	 0.227073119738037 
621	 0.22558071955282 
622	 0.224509547702587 
623	 0.223498006741657 
624	 0.222076309717796 
625	 0.220957908826275 
626	 0.220772983712802 
627	 0.219340161752845 
628	 0.218284369561462 
629	 0.217945107055548 
630	 0.217304154189537 
631	 0.216920817752891 
632	 0.21620571798806 
633	 0.214769813111408 
634	 0.213150637444175 
635	 0.211709506539854 
636	 0.21035181219207 
637	 0.208751599207058 
638	 0.206732900938696 
639	 0.204688051966715 
640	 0.202636555240133 
641	 0.200129915665915 
642	 0.197622846363591 
643	 0.19544610671996 
644	 0.193663637521832 
645	 0.19175396112925 
646	 0.189678693916498 
647	 0.187637749298506 
648	 0.185981213434607 
649	 0.184807851781107 
650	 0.183612142840826 
651	 0.182308508631458 
652	 0.181518628029341 
653	 0.18102484911291 
654	 0.180442735997203 
655	 0.179653791153196 
656	 0.180231235067659 
657	 0.17961487533618 
658	 0.177807144946074 
659	 0.176661019268682 
660	 0.175273852983928 
661	 0.17402147512185 
662	 0.173243457572381 
663	 0.172926891096084 
664	 0.171606125914761 
665	 0.170170993367228 
666	 0.169864567300226 
667	 0.169143406665266 
668	 0.168502882930208 
669	 0.168225070408701 
670	 0.168310320010776 
671	 0.168927854408394 
672	 0.169573198006837 
673	 0.169828333569381 
674	 0.169668300326252 
675	 0.170110387884738 
676	 0.171059564180198 
677	 0.171953468761462 
678	 0.172494215567708 
679	 0.173634733137276 
680	 0.175264828250394 
681	 0.176178869416492 
682	 0.177802727970964 
683	 0.179448683778498 
684	 0.180713726027562 
685	 0.182891973703542 
686	 0.186557321723829 
687	 0.19154236669576 
688	 0.196596764166779 
689	 0.200383107482767 
690	 0.205103149463025 
691	 0.211900873250175 
692	 0.220252032467716 
693	 0.229881566262025 
694	 0.241746933237718 
695	 0.256277301493529 
696	 0.272021203409145 
697	 0.289404964026856 
698	 0.308427307370092 
699	 0.32871923595867 
700	 0.349752726437345 
701	 0.37164451497856 
702	 0.394471928564534 
703	 0.418219278358854 
704	 0.441111033712565 
705	 0.463468349880225 
706	 0.486274223853732 
707	 0.510390111321409 
708	 0.534500402920228 
709	 0.558212517907588 
710	 0.581556997339714 
711	 0.605698551172109 
712	 0.630425273339552 
713	 0.655191464797709 
714	 0.679373933728961 
715	 0.703827428120622 
716	 0.728207391085221 
717	 0.752681323482004 
718	 0.776841195475451 
719	 0.802631514107939 
720	 0.829238936843274 
721	 0.854731919365709 
722	 0.878650267235393 
723	 0.901818307331207 
724	 0.9252824225155 
725	 0.947726977258907 
726	 0.970463681645242 
727	 0.992553221549234 
728	 1.01363325920154 
729	 1.0339009906382 
730	 1.05362633639841 
731	 1.07276277732524 
732	 1.0911903162043 
733	 1.10828748122717 
734	 1.12414921504428 
735	 1.13882617339539 
736	 1.15205336048101 
737	 1.16568919737787 
738	 1.17809508493347 
739	 1.1884887254021 
740	 1.19851690647922 
741	 1.20848269260475 
742	 1.21737724540548 
743	 1.22425963413775 
744	 1.2311955426752 
745	 1.2366865174018 
746	 1.24120640173349 
747	 1.24650970302846 
748	 1.25041852025388 
749	 1.25326855037949 
750	 1.25577843587641 
751	 1.25872302678873 
752	 1.26046867904037 
753	 1.26160950427348 
754	 1.26289935814267 
755	 1.26328586233002 
756	 1.26314821499699 
757	 1.26328333234997 
758	 1.26468443776093 
759	 1.26801071838525 
760	 1.27157370076288 
761	 1.27257452841555 
762	 1.26947114649632 
763	 1.26624036989155 
764	 1.26278368248745 
765	 1.25919166295531 
766	 1.25755249825681 
767	 1.25438981672583 
768	 1.25132326159972 
769	 1.25030095636786 
770	 1.24777948038343 
771	 1.24550508082661 
772	 1.24411323793433 
773	 1.24295642608278 
774	 1.23999882730253 
775	 1.23762193779198 
776	 1.23670456384787 
777	 1.23448962250423 
778	 1.23195868067138 
779	 1.22980563298272 
780	 1.22830808443866 
781	 1.22643716185231 
782	 1.22478277346236 
783	 1.22316774526851 
784	 1.22104990771158 
785	 1.21839541434366 
786	 1.21597612169779 
787	 1.21393397019465 
788	 1.21170520094992 
789	 1.20938830564684 
790	 1.20734819266568 
791	 1.20562177059824 
792	 1.20345085437997 
793	 1.20183840802269 
794	 1.20029209275803 
795	 1.19811943282171 
796	 1.19577568878229 
797	 1.19377715023168 
798	 1.19205345915557 
799	 1.19023314340108 
800	 1.18863667724122 
801	 1.18628609955539 
802	 1.18361643223405 
803	 1.18257650565483 
804	 1.18150512506152 
805	 1.17957590985982 
806	 1.17697425048143 
807	 1.17554119621786 
808	 1.17380150534468 
809	 1.17173364233098 
810	 1.16958928984122 
811	 1.16685639770346 
812	 1.16379097781208 
813	 1.16050379790411 
814	 1.15710849055999 
815	 1.15414523867818 
816	 1.15174038755302 
817	 1.14964689926969 
818	 1.14739067227982 
819	 1.1468520803959 
820	 1.14686988683873 
821	 1.14601467917562 
822	 1.14328452753331 
823	 1.14119274930823 
824	 1.14027126870211 
825	 1.14001428156076 
826	 1.13884588965627 
827	 1.13744175219153 
828	 1.13628705905086 
829	 1.13543233313583 
830	 1.13270753941984 
831	 1.13123750149644 
832	 1.13070898477478 
833	 1.12859107615946 
834	 1.12824044646893 
835	 1.12772517077971 
836	 1.12640044124871 
837	 1.12576978269568 
838	 1.12487348634043 
839	 1.1238080739752 
840	 1.12262700694562 
841	 1.12088002306042 
842	 1.11958146720019 
843	 1.11875836581383 
844	 1.1180772173947 
845	 1.11717202302746 
846	 1.11579880728329 
847	 1.11414455104088 
848	 1.11256029238653 
849	 1.11103192289493 
850	 1.10978868435808 
851	 1.10876553889052 
852	 1.10768989433357 
853	 1.10681676456185 
854	 1.10493388132934 
855	 1.10264725836145 
856	 1.1024197172758 
857	 1.1016639270596 
858	 1.09987761919095 
859	 1.09765400221194 
860	 1.09666237224617 
861	 1.0958119850588 
862	 1.09509657980989 
863	 1.09450612962217 
864	 1.0934352107973 
865	 1.09198741963173 
866	 1.09039879645699 
867	 1.08889138304407 
868	 1.08739919633947 
869	 1.08532666210602 
870	 1.08413900185106 
871	 1.08504463633779 
872	 1.08316764489482 
873	 1.08186017277776 
874	 1.08078989457591 
875	 1.07753311234009 
876	 1.07666877858967 
877	 1.07568994887171 
878	 1.07392829284788 
879	 1.07307799315022 
880	 1.07202393644715 
881	 1.0708750793477 
882	 1.06951229294145 
883	 1.06738128556131 
884	 1.0662444753817 
885	 1.06558906987013 
886	 1.0646299601938 
887	 1.06303916046612 
888	 1.06160161120675 
889	 1.06039458969598 
890	 1.0589791054248 
891	 1.05616196630232 
892	 1.05331206031537 
893	 1.05142216249162 
894	 1.05028716486061 
895	 1.04600388783676 
896	 1.04398821783898 
897	 1.04283241765129 
898	 1.03934863448742 
899	 1.0370673408337 
900	 1.03633741024374 
901	 1.03643214163752 
902	 1.03621918529565 
903	 1.03601529104845 
904	 1.03456145181767 
905	 1.0324110734928 
906	 1.03105525516589 
907	 1.03032692480043 
908	 1.02715400824988 
909	 1.02352023992997 
910	 1.0245312183475 
911	 1.02365119093568 
912	 1.02179997052453 
913	 1.01960383475227 
914	 1.01682705593541 
915	 1.01533036410286 
916	 1.01336419736106 
917	 1.01161138268871 
918	 1.0133708706347 
919	 1.01489689406538 
920	 1.01463179543302 
921	 1.01269000400746 
922	 1.01079973870472 
923	 1.01052086577338 
924	 1.00938579848636 
925	 1.00641354677948 
926	 1.00401227704951 
927	 1.00086927545321 
928	 0.998265566045535 
929	 0.99552471928921 
930	 0.987605499559104 
931	 0.983271154066482 
932	 0.978239026783966 
933	 0.969320062810064 
934	 0.963838040943177 
935	 0.964041364519445 
936	 0.964421521134554 
937	 0.962810053548154 
938	 0.96732681416685 
939	 0.967362082333808 
940	 0.965619596935629 
941	 0.964787996907714 
942	 0.961594005573747 
943	 0.962213798324209 
944	 0.962297673028714 
945	 0.958721756426526 
946	 0.956955277608552 
947	 0.956473754123401 
948	 0.954835150384082 
949	 0.952155493233983 
950	 0.954614351175512 
951	 0.951820711383428 
952	 0.946860206680331 
953	 0.944603636070704 
954	 0.9456132171999 
955	 0.947606060473606 
956	 0.945755712199573 
957	 0.940459045179144 
958	 0.94256611804649 
959	 0.938983687481935 
960	 0.938268872170559 
961	 0.944189357745517 
962	 0.943130634977075 
963	 0.948566586193325 
964	 0.947084343687776 
965	 0.937311466871896 
966	 0.945233246413057 
967	 0.946480839615601 
968	 0.943875081984481 
969	 0.94275101088244 
970	 0.942928716564449 
971	 0.945621109616079 
972	 0.943676962986321 
973	 0.93753240531268 
974	 0.939319171142185 
975	 0.936492955989249 
976	 0.93473193340112 
977	 0.937708573519793 
978	 0.941745584059303 
979	 0.940248135892291 
980	 0.938329381619833 
981	 0.938217763941472 
982	 0.936808270407345 
983	 0.932958977309323 
984	 0.931773945141815 
985	 0.933993703042148 
986	 0.935895346008041 
987	 0.939207283488211 
988	 0.935954359972549 
989	 0.929816805913607 
990	 0.931462812481238 
991	 0.932474604923231 
992	 0.935179726663393 
993	 0.937716651649179 
994	 0.936742871619603 
995	 0.937612336642303 
996	 0.936747957374997 
997	 0.934704690341273 
998	 0.933716781636857 
999	 0.933261980895404 
1000	 0.930864624198864 
1001	 0.960656233721425 
1002	 0.960543226514127 
1003	 0.960380701734109 
1004	 0.960620750236475 
1005	 0.960497201012976 
1006	 0.960237427024478 
1007	 0.960120728647048 
1008	 0.960061784448595 
1009	 0.959620292129201 
1010	 0.959145809928398 
1011	 0.958692160746119 
1012	 0.957273381547998 
1013	 0.956664909115289 
1014	 0.956543581896793 
1015	 0.956029714196386 
1016	 0.955944173246916 
1017	 0.955962063582624 
1018	 0.955834724105186 
1019	 0.955652451456701 
1020	 0.955483294479603 
1021	 0.955316913943162 
1022	 0.955001025616887 
1023	 0.954614111088608 
1024	 0.954161675738522 
1025	 0.953797691120173 
1026	 0.953522604037159 
1027	 0.95335361701856 
1028	 0.95321098789834 
1029	 0.95231264842132 
1030	 0.951757433098631 
1031	 0.951672934582785 
1032	 0.951079646999694 
1033	 0.95071771432743 
1034	 0.950803114713526 
1035	 0.950516902810754 
1036	 0.949805001114782 
1037	 0.949596588842947 
1038	 0.9497695105243 
1039	 0.949503421913333 
1040	 0.949030311907423 
1041	 0.948601647368709 
1042	 0.947758203398201 
1043	 0.947371324026501 
1044	 0.94720588775438 
1045	 0.946885682803428 
1046	 0.946517302330957 
1047	 0.945797086362401 
1048	 0.945371040856162 
1049	 0.945559141138068 
1050	 0.945323481295073 
1051	 0.945190077797644 
1052	 0.944529728705435 
1053	 0.943957798594898 
1054	 0.943222748374708 
1055	 0.942432008627493 
1056	 0.942344258155843 
1057	 0.942089640935177 
1058	 0.941931239798644 
1059	 0.942128251067258 
1060	 0.941960673132877 
1061	 0.941882621220007 
1062	 0.941206561517368 
1063	 0.94025945497387 
1064	 0.939923189466378 
1065	 0.939153877803863 
1066	 0.938162556868001 
1067	 0.93721605163468 
1068	 0.936674514567346 
1069	 0.93563458133356 
1070	 0.934931265007993 
1071	 0.935034199275629 
1072	 0.934520200800695 
1073	 0.933711152031908 
1074	 0.933120553435719 
1075	 0.931918943870825 
1076	 0.930241659213095 
1077	 0.929018236404344 
1078	 0.92820418883299 
1079	 0.927460639271247 
1080	 0.927250689786532 
1081	 0.926651356486255 
1082	 0.926049507555185 
1083	 0.924885765619473 
1084	 0.924107755906678 
1085	 0.923461167903442 
1086	 0.922735495313465 
1087	 0.922071342412196 
1088	 0.921229063927453 
1089	 0.919828331211377 
1090	 0.918338600585571 
1091	 0.917523127537736 
1092	 0.916711890461698 
1093	 0.915731294203407 
1094	 0.914998025445705 
1095	 0.914041486876 
1096	 0.912974698408111 
1097	 0.911576605474232 
1098	 0.910462980770334 
1099	 0.909451491806129 
1100	 0.908452053930078 
1101	 0.907074997940383 
1102	 0.90565757502414 
1103	 0.904094539684892 
1104	 0.902190967739144 
1105	 0.900900730112737 
1106	 0.899874696408673 
1107	 0.898568577061329 
1108	 0.897223291609973 
1109	 0.895491481393167 
1110	 0.893265277940455 
1111	 0.891062455033043 
1112	 0.888690579994484 
1113	 0.88621341288285 
1114	 0.883374428969602 
1115	 0.880356131491792 
1116	 0.877153981071021 
1117	 0.873441071777979 
1118	 0.869670354511195 
1119	 0.866449894379265 
1120	 0.862918883623968 
1121	 0.8594299626575 
1122	 0.856679746073735 
1123	 0.854244198672197 
1124	 0.852465561878071 
1125	 0.851462083244377 
1126	 0.850501834891164 
1127	 0.849937811547746 
1128	 0.849134158334634 
1129	 0.848699427199577 
1130	 0.848051393937585 
1131	 0.847246393042247 
1132	 0.84648598322833 
1133	 0.845788527429101 
1134	 0.845108329990075 
1135	 0.844416570765857 
1136	 0.843219779166132 
1137	 0.842293740374998 
1138	 0.841196193426903 
1139	 0.839699699726761 
1140	 0.837952167442768 
1141	 0.835304166862346 
1142	 0.832698760677826 
1143	 0.830307663906794 
1144	 0.827485394334925 
1145	 0.825283638572154 
1146	 0.823762929047592 
1147	 0.821732488699061 
1148	 0.819416328484395 
1149	 0.817736997272765 
1150	 0.816344570320351 
1151	 0.815112392027055 
1152	 0.81409934066339 
1153	 0.813529512624475 
1154	 0.81337551857974 
1155	 0.813050773400898 
1156	 0.813031203884795 
1157	 0.813245845555218 
1158	 0.813366080552256 
1159	 0.813178624019616 
1160	 0.813177739276026 
1161	 0.813436812640388 
1162	 0.813467058934754 
1163	 0.813473459807221 
1164	 0.813269301129007 
1165	 0.812766650287789 
1166	 0.812432926161896 
1167	 0.812091628444164 
1168	 0.811753823323722 
1169	 0.811528199612884 
1170	 0.811287221813586 
1171	 0.810814516951031 
1172	 0.810059461052588 
1173	 0.809587000146571 
1174	 0.809299398148875 
1175	 0.808631012833616 
1176	 0.808069812440398 
1177	 0.807402294184593 
1178	 0.80639413092115 
1179	 0.805608989609933 
1180	 0.804958191978851 
1181	 0.804272795568265 
1182	 0.803624850561498 
1183	 0.802909486372156 
1184	 0.802132324672792 
1185	 0.801519401283606 
1186	 0.800850639314559 
1187	 0.800303286210299 
1188	 0.799964645699735 
1189	 0.799632176879898 
1190	 0.799208076242607 
1191	 0.79889980453268 
1192	 0.798467571843388 
1193	 0.798158929738248 
1194	 0.797923085948936 
1195	 0.797803006438292 
1196	 0.797476203171118 
1197	 0.797181293889187 
1198	 0.796797620113628 
1199	 0.796207824530595 
1200	 0.795715784831374 
1201	 0.795210431311035 
1202	 0.79484079886575 
1203	 0.794494888341946 
1204	 0.794165097265808 
1205	 0.794005417191033 
1206	 0.793773058670674 
1207	 0.793431369514537 
1208	 0.793230112479055 
1209	 0.793185551016375 
1210	 0.792959234380222 
1211	 0.79287339580218 
1212	 0.792907892244457 
1213	 0.792991322168702 
1214	 0.793128913622835 
1215	 0.793335389043104 
1216	 0.793656228275118 
1217	 0.793961317269926 
1218	 0.794313592552732 
1219	 0.794666729723295 
1220	 0.795095326201811 
1221	 0.795419610811457 
1222	 0.795774240345929 
1223	 0.795982040750279 
1224	 0.796035148705213 
1225	 0.796128229327938 
1226	 0.796131917818233 
1227	 0.796188262415435 
1228	 0.796379357504192 
1229	 0.796337593109693 
1230	 0.796335440294622 
1231	 0.796452769812509 
1232	 0.796706135550852 
1233	 0.797177056237813 
1234	 0.797330748601004 
1235	 0.797521424235175 
1236	 0.797573934942596 
1237	 0.797208546091942 
1238	 0.79728824352908 
1239	 0.797749876724476 
1240	 0.797789365496447 
1241	 0.797795555066484 
1242	 0.797745272427422 
1243	 0.797328616171934 
1244	 0.797125349908973 
1245	 0.797056917476311 
1246	 0.797002656023117 
1247	 0.797065213827734 
1248	 0.796983601137312 
1249	 0.796895485115353 
1250	 0.796734380305654 
1251	 0.796386397631671 
1252	 0.796077804894414 
1253	 0.795818702156008 
1254	 0.795589006321607 
1255	 0.79538991626291 
1256	 0.795293782301632 
1257	 0.794992166193574 
1258	 0.794585283759581 
1259	 0.79425124716679 
1260	 0.793781647273471 
1261	 0.793455354538705 
1262	 0.793318943739692 
1263	 0.793024311769862 
1264	 0.792673221847713 
1265	 0.792341327836272 
1266	 0.791985330779517 
1267	 0.791607411280417 
1268	 0.791124147733265 
1269	 0.790813197484662 
1270	 0.790701102199411 
1271	 0.790404211907914 
1272	 0.790015932277147 
1273	 0.789838624903315 
1274	 0.789532257113458 
1275	 0.789047317466394 
1276	 0.788697901279385 
1277	 0.788517866518484 
1278	 0.788127843313171 
1279	 0.7875985688897 
1280	 0.787148740407283 
1281	 0.786711276839109 
1282	 0.786184668889481 
1283	 0.785684988780762 
1284	 0.785059007631801 
1285	 0.784291879936215 
1286	 0.783545113665599 
1287	 0.782799367190879 
1288	 0.781946137415141 
1289	 0.781027698754554 
1290	 0.78006714262811 
1291	 0.77883853677735 
1292	 0.777876846731662 
1293	 0.777298305485427 
1294	 0.776295628125329 
1295	 0.775277349263115 
1296	 0.774026862320308 
1297	 0.77272448469196 
1298	 0.770942221089891 
1299	 0.769654329811809 
1300	 0.768704723899066 
1301	 0.767308979512667 
1302	 0.765806010632053 
1303	 0.764312451973279 
1304	 0.762491525840497 
1305	 0.760985313838344 
1306	 0.759764393148238 
1307	 0.758303674596025 
1308	 0.756988367575572 
1309	 0.755265319462681 
1310	 0.75302923331148 
1311	 0.751180990550048 
1312	 0.749344619058756 
1313	 0.747425459895972 
1314	 0.745810638591047 
1315	 0.74393770935372 
1316	 0.741644026457879 
1317	 0.739561369946181 
1318	 0.73766241537383 
1319	 0.73557310078939 
1320	 0.733418098729649 
1321	 0.731252861324544 
1322	 0.728910605157261 
1323	 0.726346941559086 
1324	 0.723735010632066 
1325	 0.720991116224955 
1326	 0.718130596530143 
1327	 0.714920827021384 
1328	 0.712024808054261 
1329	 0.709253221284561 
1330	 0.706253542678793 
1331	 0.703242144626099 
1332	 0.700289475029778 
1333	 0.696960681782145 
1334	 0.694275236015197 
1335	 0.692329044008852 
1336	 0.689920529072917 
1337	 0.68760125834724 
1338	 0.685156242069612 
1339	 0.682107586278518 
1340	 0.679375534164542 
1341	 0.676730120829963 
1342	 0.673857395737311 
1343	 0.6704262231632 
1344	 0.667181751036885 
1345	 0.663580447168974 
1346	 0.659521830973506 
1347	 0.655844344581153 
1348	 0.652139169403064 
1349	 0.647897074601317 
1350	 0.643467118304093 
1351	 0.637921194965017 
1352	 0.630848363569824 
1353	 0.623679783129166 
1354	 0.616437605917389 
1355	 0.607942202893506 
1356	 0.605869383438035 
1357	 0.59740930929512 
1358	 0.591981372604315 
1359	 0.576971142829468 
1360	 0.549864717917037 
1361	 0.524140147551272 
1362	 0.513179953350345 
1363	 0.497636184998631 
1364	 0.545122162171659 
1365	 0.539477827595036 
1366	 0.488400351740433 
1367	 0.478714522375941 
1368	 0.47520774009732 
1369	 0.467186288072741 
1370	 0.479882698626577 
1371	 0.480239259863117 
1372	 0.457098691596822 
1373	 0.455461492684268 
1374	 0.468879917109281 
1375	 0.475875785754606 
1376	 0.468486847344925 
1377	 0.476842663142484 
1378	 0.477137318263302 
1379	 0.467243080451379 
1380	 0.462879195924836 
1381	 0.469756511150192 
1382	 0.458292000377907 
1383	 0.436281640986386 
1384	 0.420521868720812 
1385	 0.398057691741517 
1386	 0.387497396023419 
1387	 0.382910264524814 
1388	 0.380252704281089 
1389	 0.384605280782727 
1390	 0.383520441844152 
1391	 0.383950517760617 
1392	 0.378708032569132 
1393	 0.367291581712424 
1394	 0.360882427123956 
1395	 0.354567392791232 
1396	 0.348819115206093 
1397	 0.346626283773833 
1398	 0.341415087956837 
1399	 0.330818038854974 
1400	 0.326453825124368 
1401	 0.328038246958962 
1402	 0.323510891816149 
1403	 0.319038079938456 
1404	 0.314535897577697 
1405	 0.306576695441195 
1406	 0.299364187959916 
1407	 0.296221112290984 
1408	 0.292169681330726 
1409	 0.284755670272821 
1410	 0.281274704177664 
1411	 0.280287243157851 
1412	 0.281101033821424 
1413	 0.279845572455453 
1414	 0.280593036106535 
1415	 0.279016694571043 
1416	 0.275097185508877 
1417	 0.273152982690577 
1418	 0.271673707163981 
1419	 0.270538251965029 
1420	 0.269536576697645 
1421	 0.268967025590431 
1422	 0.269570427357516 
1423	 0.268701856615544 
1424	 0.267090709325139 
1425	 0.265823794241852 
1426	 0.263560153592273 
1427	 0.262673111007985 
1428	 0.262883003121287 
1429	 0.262457916947952 
1430	 0.26216923582758 
1431	 0.26183923140468 
1432	 0.261547060148524 
1433	 0.260825278863849 
1434	 0.259719865952142 
1435	 0.259078102636979 
1436	 0.258165871388521 
1437	 0.257509044340818 
1438	 0.257713130179913 
1439	 0.25732837135712 
1440	 0.25575682089091 
1441	 0.255567503300377 
1442	 0.255798266379516 
1443	 0.256729987580527 
1444	 0.257570224959777 
1445	 0.258035843952253 
1446	 0.257603835503246 
1447	 0.257324274365887 
1448	 0.257895416082672 
1449	 0.259155926099327 
1450	 0.259622442532332 
1451	 0.260161340436464 
1452	 0.260558832463216 
1453	 0.260520849731459 
1454	 0.260839907443665 
1455	 0.261636674765742 
1456	 0.261816923153342 
1457	 0.261508450301432 
1458	 0.261705112458242 
1459	 0.261840243981409 
1460	 0.262266713099909 
1461	 0.263307487838449 
1462	 0.263854399951932 
1463	 0.264178655172435 
1464	 0.264740770057248 
1465	 0.265371367381522 
1466	 0.265830123188764 
1467	 0.266008904501286 
1468	 0.266871504764512 
1469	 0.267773197501366 
1470	 0.268960728916379 
1471	 0.271178100884579 
1472	 0.272638503375581 
1473	 0.273221312921987 
1474	 0.274636779382912 
1475	 0.276377451053195 
1476	 0.277807731044422 
1477	 0.279231956498661 
1478	 0.281055974136373 
1479	 0.282721586144718 
1480	 0.284608328541377 
1481	 0.287206305998896 
1482	 0.289360069925362 
1483	 0.290946614418863 
1484	 0.292962868317593 
1485	 0.295268672231542 
1486	 0.297305479399249 
1487	 0.299113284774844 
1488	 0.301337576693715 
1489	 0.303597060835419 
1490	 0.305396109318175 
1491	 0.308025265350177 
1492	 0.31058623020777 
1493	 0.312135577606714 
1494	 0.313843160029924 
1495	 0.31561684305536 
1496	 0.316901414007859 
1497	 0.318964548221942 
1498	 0.321741316664083 
1499	 0.323913473693132 
1500	 0.326028943077335 
1501	 0.328274879455099 
1502	 0.330554207844259 
1503	 0.332553239913438 
1504	 0.334526780760744 
1505	 0.336542411467526 
1506	 0.338224864821476 
1507	 0.340211820940869 
1508	 0.342537531765323 
1509	 0.34458015473604 
1510	 0.34643272276207 
1511	 0.348503031535576 
1512	 0.350638211169594 
1513	 0.352763891247917 
1514	 0.355135002409885 
1515	 0.357150034525331 
1516	 0.358960983459964 
1517	 0.360858008358709 
1518	 0.36255022119808 
1519	 0.364478266927764 
1520	 0.36660377030043 
1521	 0.368634345102885 
1522	 0.370822962608598 
1523	 0.372740668454285 
1524	 0.374446248692401 
1525	 0.376298243082591 
1526	 0.378111462593986 
1527	 0.3798849931571 
1528	 0.381743601119102 
1529	 0.383507584187918 
1530	 0.385041103242163 
1531	 0.386816375667861 
1532	 0.388834550231346 
1533	 0.390647089115086 
1534	 0.39237990909651 
1535	 0.394229335238494 
1536	 0.396056712563413 
1537	 0.397847192366741 
1538	 0.399842052834171 
1539	 0.401610766617349 
1540	 0.4030087253365 
1541	 0.404694291572308 
1542	 0.40658542391564 
1543	 0.408272997081976 
1544	 0.410082396054891 
1545	 0.4116999788041 
1546	 0.412911264303084 
1547	 0.414365672307816 
1548	 0.415967374327649 
1549	 0.417452220757316 
1550	 0.41889542272663 
1551	 0.420462035450721 
1552	 0.42213294984087 
1553	 0.423629017593738 
1554	 0.425135598903845 
1555	 0.426626034352133 
1556	 0.427836344817413 
1557	 0.429216992216745 
1558	 0.430886338052944 
1559	 0.432355803421714 
1560	 0.433708469563574 
1561	 0.43511476627237 
1562	 0.436413771184686 
1563	 0.437773946341134 
1564	 0.439240015877418 
1565	 0.440752204218414 
1566	 0.442065404695942 
1567	 0.443379581342296 
1568	 0.444713602384106 
1569	 0.445966260848396 
1570	 0.447337904774726 
1571	 0.448862998365372 
1572	 0.450111237274722 
1573	 0.451214495872862 
1574	 0.452512418259562 
1575	 0.453755425501986 
1576	 0.454959617452343 
1577	 0.456310896027408 
1578	 0.457440226338827 
1579	 0.458335379996338 
1580	 0.459326509130315 
1581	 0.460308391405467 
1582	 0.461336138099872 
1583	 0.462273068566349 
1584	 0.463450400404136 
1585	 0.464879977123265 
1586	 0.4659543640738 
1587	 0.466992826688642 
1588	 0.468019407557113 
1589	 0.468830688470507 
1590	 0.469785359032743 
1591	 0.470865766753531 
1592	 0.471884940353424 
1593	 0.472915312793578 
1594	 0.473755017135352 
1595	 0.474566531225586 
1596	 0.47532122317197 
1597	 0.475778421655928 
1598	 0.476617931671521 
1599	 0.477761336427145 
1600	 0.478505759367299 
1601	 0.479244928268033 
1602	 0.479855405510446 
1603	 0.479899472970927 
1604	 0.480909992534357 
1605	 0.482493606528278 
1606	 0.483582034904252 
1607	 0.485206836446429 
1608	 0.485838455060851 
1609	 0.485467712973159 
1610	 0.486014916461203 
1611	 0.48660177296573 
1612	 0.487224473653356 
1613	 0.488277094611844 
1614	 0.488985237076862 
1615	 0.489281020521539 
1616	 0.490131702391518 
1617	 0.491414684323758 
1618	 0.492167577659347 
1619	 0.492919091654819 
1620	 0.493520064258254 
1621	 0.493649686960343 
1622	 0.494247994597722 
1623	 0.495275316102103 
1624	 0.495638092998863 
1625	 0.495542603645097 
1626	 0.496226293492661 
1627	 0.496961919830428 
1628	 0.497720291027678 
1629	 0.499244897471726 
1630	 0.49989901800801 
1631	 0.49991174901296 
1632	 0.500145330182019 
1633	 0.500280143342377 
1634	 0.500548717305579 
1635	 0.50078301914316 
1636	 0.500995120756293 
1637	 0.501279437874293 
1638	 0.501547487144742 
1639	 0.501711362048551 
1640	 0.50204634114156 
1641	 0.50253959607741 
1642	 0.502809834986393 
1643	 0.503134054930961 
1644	 0.503136961057759 
1645	 0.502792253602466 
1646	 0.502912298729668 
1647	 0.503080042821417 
1648	 0.503096222167711 
1649	 0.503334827801613 
1650	 0.50336793930464 
1651	 0.503206934501746 
1652	 0.50289739926152 
1653	 0.5024952828102 
1654	 0.502308833444519 
1655	 0.501916232162992 
1656	 0.501727934656962 
1657	 0.501935902085911 
1658	 0.501786602325685 
1659	 0.501242360214597 
1660	 0.500635508105653 
1661	 0.500671057475913 
1662	 0.500560895343338 
1663	 0.500558516174509 
1664	 0.501011743192862 
1665	 0.501016546064554 
1666	 0.500740483907447 
1667	 0.50067603694299 
1668	 0.500548368940243 
1669	 0.500492788119506 
1670	 0.500801297182964 
1671	 0.500941942794654 
1672	 0.500950858015047 
1673	 0.500969544841838 
1674	 0.500808484503591 
1675	 0.50094380141878 
1676	 0.50136252712562 
1677	 0.501504654811372 
1678	 0.501346936850815 
1679	 0.501150235376568 
1680	 0.500731126482671 
1681	 0.500600752889399 
1682	 0.50109125578257 
1683	 0.501660802597222 
1684	 0.502125451178539 
1685	 0.501920935610117 
1686	 0.50119823508215 
1687	 0.500614921932972 
1688	 0.500223662882101 
1689	 0.500366713885666 
1690	 0.500339510258056 
1691	 0.500172381859103 
1692	 0.499582138276639 
1693	 0.499177746740383 
1694	 0.499093726902106 
1695	 0.498842623514931 
1696	 0.498395533757467 
1697	 0.498014084594378 
1698	 0.497761313826069 
1699	 0.497244972727886 
1700	 0.496868004776852 
1701	 0.496165327777966 
1702	 0.494605986676092 
1703	 0.493746523776555 
1704	 0.493122559312304 
1705	 0.492436146718412 
1706	 0.492365950347614 
1707	 0.491881639039112 
1708	 0.49083427440653 
1709	 0.490190275266438 
1710	 0.489744574368275 
1711	 0.489147940827399 
1712	 0.488671939745199 
1713	 0.488122181822157 
1714	 0.487372127270062 
1715	 0.486765243234449 
1716	 0.486394511600736 
1717	 0.485695261642111 
1718	 0.484949335604635 
1719	 0.483931914095969 
1720	 0.482576358673144 
1721	 0.481255920594268 
1722	 0.479489973266575 
1723	 0.478441523089621 
1724	 0.477724225163094 
1725	 0.476980338389687 
1726	 0.476900144644244 
1727	 0.476135028920401 
1728	 0.474721243678022 
1729	 0.473919654530719 
1730	 0.473330110076274 
1731	 0.472147242296256 
1732	 0.471529534650487 
1733	 0.470892110641501 
1734	 0.469821491563834 
1735	 0.469211093779733 
1736	 0.468735005440414 
1737	 0.4676389827915 
1738	 0.466541119137969 
1739	 0.46516994404332 
1740	 0.463443742335919 
1741	 0.462213684710642 
1742	 0.461531636561073 
1743	 0.46140705361423 
1744	 0.461267769697299 
1745	 0.460474643725731 
1746	 0.45910093797802 
1747	 0.457889005204456 
1748	 0.456888710764785 
1749	 0.455987744630719 
1750	 0.455446891590657 
1751	 0.454668038226189 
1752	 0.453905012150951 
1753	 0.453121439044063 
1754	 0.451953166813848 
1755	 0.450643861577873 
1756	 0.449148978544474 
1757	 0.447800673880246 
1758	 0.446743112214607 
1759	 0.44577716865572 
1760	 0.444833318001335 
1761	 0.444357189853561 
1762	 0.443411097829208 
1763	 0.442303255244267 
1764	 0.441305125354967 
1765	 0.43995727549014 
1766	 0.438850516204995 
1767	 0.437764815698945 
1768	 0.436688154944248 
1769	 0.435677841604887 
1770	 0.434672218295614 
1771	 0.434105172008083 
1772	 0.432987738371372 
1773	 0.43134150430413 
1774	 0.430350834609599 
1775	 0.428963807855282 
1776	 0.428273454794852 
1777	 0.427538658827921 
1778	 0.426352377140504 
1779	 0.425928188761982 
1780	 0.425481553088395 
1781	 0.424910869514008 
1782	 0.424368619452441 
1783	 0.422577014773744 
1784	 0.420442857701547 
1785	 0.419842850762878 
1786	 0.419771173718012 
1787	 0.420063005200376 
1788	 0.420498963170804 
1789	 0.419844281304437 
1790	 0.41954145377008 
1791	 0.418985061860917 
1792	 0.41744943134727 
1793	 0.416087587709827 
1794	 0.414081768623718 
1795	 0.41114882742259 
1796	 0.408678758870335 
1797	 0.407537321019486 
1798	 0.405105045727957 
1799	 0.40338842671921 
1800	 0.404510343669365 
1801	 0.407128384488155 
1802	 0.406160983738083 
1803	 0.405048078856383 
1804	 0.403163774222381 
1805	 0.400576944410265 
1806	 0.396005987413798 
1807	 0.393120906658801 
1808	 0.388240823030084 
1809	 0.386922366521916 
1810	 0.386141456675439 
1811	 0.388723983258493 
1812	 0.389529702688756 
1813	 0.393149086093058 
1814	 0.392398553166217 
1815	 0.387781546710369 
1816	 0.385132212273357 
1817	 0.37786445791835 
1818	 0.374212230734122 
1819	 0.372658089396218 
1820	 0.375736993491635 
1821	 0.377237635817163 
1822	 0.382529465989733 
1823	 0.384455485846356 
1824	 0.386161792224731 
1825	 0.3866399230704 
1826	 0.382140239143519 
1827	 0.37984642814951 
1828	 0.377552814012939 
1829	 0.375375854318299 
1830	 0.370415504597806 
1831	 0.354417104049169 
1832	 0.360437634524319 
1833	 0.410088821537753 
1834	 0.423275586332509 
1835	 0.427177516837875 
1836	 0.440937819591288 
1837	 0.375043211003305 
1838	 0.349809896855215 
1839	 0.34809987463554 
1840	 0.444847743096359 
1841	 0.432307025355694 
1842	 0.387714591300181 
1843	 0.339584197732939 
1844	 0.225710238398045 
1845	 0.188922353982867 
1846	 0.168525969367867 
1847	 0.160650360081212 
1848	 0.170628453473698 
1849	 0.225834658142074 
1850	 0.240514737458761 
1851	 0.240758113988685 
1852	 0.255895250047834 
1853	 0.287616776419824 
1854	 0.278985484857313 
1855	 0.246151130216331 
1856	 0.246320624460339 
1857	 0.249748178854045 
1858	 0.225101486519216 
1859	 0.227819203450722 
1860	 0.266635698159281 
1861	 0.261631561921742 
1862	 0.21949601476421 
1863	 0.229406243582107 
1864	 0.258116380179471 
1865	 0.279542756807086 
1866	 0.362509038283153 
1867	 0.400842512816468 
1868	 0.396734505875919 
1869	 0.389811422606883 
1870	 0.392775320968081 
1871	 0.40338791372071 
1872	 0.377014553601034 
1873	 0.352568919077731 
1874	 0.314256312540272 
1875	 0.211565782514284 
1876	 0.192197438771846 
1877	 0.210826053671004 
1878	 0.236822303578486 
1879	 0.221994837678924 
1880	 0.233331741383062 
1881	 0.219922888801788 
1882	 0.170446985082348 
1883	 0.154194750965286 
1884	 0.156289674856229 
1885	 0.150572577028004 
1886	 0.157603649498639 
1887	 0.132737617522352 
1888	 0.124881994542716 
1889	 0.121147191314559 
1890	 0.123013677517063 
1891	 0.148234560406315 
1892	 0.150206905313082 
1893	 0.13894650387723 
1894	 0.136631000212583 
1895	 0.106733872420605 
1896	 0.102634042186619 
1897	 0.129301269948529 
1898	 0.161179471316523 
1899	 0.185376758491373 
1900	 0.268054887856645 
1901	 0.300044267819235 
1902	 0.259324822948348 
1903	 0.278756303542815 
1904	 0.328657542450377 
1905	 0.303878509072473 
1906	 0.248736552568736 
1907	 0.239733126617232 
1908	 0.12903074364847 
1909	 6.32363146798811E-02 
1910	 0.13646741533986 
1911	 0.201493754088945 
1912	 0.190288232880954 
1913	 0.169673920618355 
1914	 0.154113992597117 
1915	 8.32967521126341E-02 
1916	 8.20725887813419E-02 
1917	 0.116042995490703 
1918	 0.143094837765568 
1919	 0.146114620020666 
1920	 0.163986482897161 
1921	 0.165058544011546 
1922	 0.152085784648247 
1923	 0.142037584568354 
1924	 0.127851747960611 
1925	 0.123565354168633 
1926	 0.116260537603429 
1927	 0.116653916363736 
1928	 0.127578872491712 
1929	 0.141385753701849 
1930	 0.143458506955107 
1931	 0.131937753247758 
1932	 0.122689692192402 
1933	 0.115137257127786 
1934	 0.112542658598501 
1935	 0.112463650792198 
1936	 0.114577914061973 
1937	 0.123092206570234 
1938	 0.123434664679258 
1939	 0.121879312780905 
1940	 0.119037589719574 
1941	 0.110501825555011 
1942	 0.112959101229081 
1943	 0.119530429805227 
1944	 0.121362117653661 
1945	 0.124003194670361 
1946	 0.121026963357362 
1947	 0.120113297732861 
1948	 0.114237875391002 
1949	 0.115123600703528 
1950	 0.120504155040887 
1951	 0.125754578314152 
1952	 0.130333524225572 
1953	 0.134299962270016 
1954	 0.13188612634576 
1955	 0.133218663973512 
1956	 0.129736090177093 
1957	 0.119693763471659 
1958	 0.118316770224963 
1959	 0.120087037967943 
1960	 0.120283232504394 
1961	 0.121028999291971 
1962	 0.128705721244992 
1963	 0.130801774993445 
1964	 0.12999043118081 
1965	 0.131392377209731 
1966	 0.129479124287932 
1967	 0.125230834386417 
1968	 0.125337718970436 
1969	 0.125523298477124 
1970	 0.125517107523167 
1971	 0.12637662912714 
1972	 0.129472891128012 
1973	 0.12997553937143 
1974	 0.129644912706927 
1975	 0.130538377515776 
1976	 0.131558559379236 
1977	 0.132317360754559 
1978	 0.133927896323384 
1979	 0.135629049229438 
1980	 0.136090305710913 
1981	 0.136586153027933 
1982	 0.136955028289619 
1983	 0.136728288605585 
1984	 0.136869672990949 
1985	 0.137633697997581 
1986	 0.138584946273337 
1987	 0.139725877474111 
1988	 0.140251148717981 
1989	 0.141200060421605 
1990	 0.141306293138102 
1991	 0.142041525494448 
1992	 0.143667945432026 
1993	 0.143728596945631 
1994	 0.144048593371098 
1995	 0.144514061997945 
1996	 0.144738970673081 
1997	 0.144325420812244 
1998	 0.145467570002689 
1999	 0.147825705844134 
2000	 0.147351951393752 
2001	 0.146537094337508 
2002	 0.149390835578275 
2003	 0.149401387634697 
2004	 0.149722599502675 
2005	 0.153317762398927 
2006	 0.15433505641063 
2007	 0.15162571278266 
2008	 0.150422552885516 
2009	 0.154010584085462 
2010	 0.154255037125214 
2011	 0.153714140838218 
2012	 0.154998686969656 
2013	 0.154776458998415 
2014	 0.156305795783262 
2015	 0.159026273979027 
2016	 0.159218168106103 
2017	 0.159059597598004 
2018	 0.158675323067703 
2019	 0.159356425509258 
2020	 0.159841153100183 
2021	 0.162745552322973 
2022	 0.1656129288036 
2023	 0.166913041510344 
2024	 0.168072004749718 
2025	 0.169608442641648 
2026	 0.16885977745933 
2027	 0.168776386198995 
2028	 0.170957637944705 
2029	 0.171440061654852 
2030	 0.172622237309707 
2031	 0.174662301407324 
2032	 0.175948989051862 
2033	 0.176346962743482 
2034	 0.176807869692005 
2035	 0.177425201964443 
2036	 0.178430940236112 
2037	 0.178743375683064 
2038	 0.179493346576213 
2039	 0.181157450749079 
2040	 0.181949122142441 
2041	 0.183538653487176 
2042	 0.185756948933648 
2043	 0.187328659573914 
2044	 0.188412936253877 
2045	 0.188850112096075 
2046	 0.18848522715602 
2047	 0.187409262860522 
2048	 0.186902655846113 
2049	 0.188225230644023 
2050	 0.189807328724013 
2051	 0.191152431325247 
2052	 0.193709263262363 
2053	 0.194818434544204 
2054	 0.196316398312172 
2055	 0.198801001246792 
2056	 0.19874766851043 
2057	 0.198466120836001 
2058	 0.198759408441659 
2059	 0.199205368818483 
2060	 0.199211900122823 
2061	 0.200820627549984 
2062	 0.202850281067326 
2063	 0.204226995264768 
2064	 0.206174833921447 
2065	 0.207690456653853 
2066	 0.207939086090863 
2067	 0.207347992097001 
2068	 0.207385244488328 
2069	 0.209278707150989 
2070	 0.210874929857639 
2071	 0.212819229901137 
2072	 0.214875643745474 
2073	 0.217599627493457 
2074	 0.217248444358132 
2075	 0.217209373052422 
2076	 0.218254844576047 
2077	 0.217535970214468 
2078	 0.218274933938493 
2079	 0.21932324895112 
2080	 0.220257086260462 
2081	 0.221992547384542 
2082	 0.222275443158526 
2083	 0.221958330558068 
2084	 0.221289584431382 
2085	 0.221292661614102 
2086	 0.222373248963433 
2087	 0.223338998967298 
2088	 0.225270240796119 
2089	 0.227097867149628 
2090	 0.227581451944517 
2091	 0.227804645267138 
2092	 0.228725363063812 
2093	 0.22938351072196 
2094	 0.22964325374966 
2095	 0.230710913059567 
2096	 0.230608110878375 
2097	 0.231292240499668 
2098	 0.2339643231487 
2099	 0.234956829483587 
2100	 0.23675053923079 
2101	 0.238227585238253 
2102	 0.238763098014321 
2103	 0.238287111648377 
2104	 0.238263046591881 
2105	 0.23747527888393 
2106	 0.238115455006788 
2107	 0.238381941356154 
2108	 0.239573501610337 
2109	 0.243034668191575 
2110	 0.243895574603499 
2111	 0.244740862426777 
2112	 0.245587145585591 
2113	 0.243998148337779 
2114	 0.243874217584638 
2115	 0.245811483325408 
2116	 0.247518919596747 
2117	 0.248057919135175 
2118	 0.247722713858707 
2119	 0.248101487306256 
2120	 0.247599526448113 
2121	 0.247939189394281 
2122	 0.250092117682834 
2123	 0.251967761973183 
2124	 0.253152001454132 
2125	 0.253699035624357 
2126	 0.253524265609716 
2127	 0.254677433950714 
2128	 0.254932873502217 
2129	 0.255218246787387 
2130	 0.256433773129474 
2131	 0.255254484147835 
2132	 0.254818465085602 
2133	 0.255633384716092 
2134	 0.255716512506338 
2135	 0.254935140609467 
2136	 0.255754634468997 
2137	 0.257534159366769 
2138	 0.258254557078365 
2139	 0.259269442068788 
2140	 0.260147447207682 
2141	 0.259918373888522 
2142	 0.258843537005391 
2143	 0.258315927805262 
2144	 0.258266364182645 
2145	 0.257565218730155 
2146	 0.258781686071052 
2147	 0.260158012377135 
2148	 0.260319326615404 
2149	 0.261558748128999 
2150	 0.26218905511126 
2151	 0.26281216533335 
2152	 0.263133509170901 
2153	 0.264249052055329 
2154	 0.266061056498989 
2155	 0.266884809166448 
2156	 0.267237443640896 
2157	 0.268021996570793 
2158	 0.268179543546398 
2159	 0.268018828288491 
2160	 0.268083098070421 
2161	 0.267169168006297 
2162	 0.266871662402182 
2163	 0.267331106777152 
2164	 0.268173227006086 
2165	 0.270972081866562 
2166	 0.271930168407741 
2167	 0.271464587160812 
2168	 0.27196325640987 
2169	 0.272107910984842 
2170	 0.272015693114212 
2171	 0.272089041432301 
2172	 0.273291127329577 
2173	 0.272766260064671 
2174	 0.272374110886305 
2175	 0.273447445235392 
2176	 0.274632339260245 
2177	 0.276011676559628 
2178	 0.277062487006138 
2179	 0.277358538002499 
2180	 0.276455520087677 
2181	 0.275951801715058 
2182	 0.277715708800912 
2183	 0.278511813022265 
2184	 0.278311655649028 
2185	 0.279613106454234 
2186	 0.279490570635099 
2187	 0.279583740545967 
2188	 0.280823918146343 
2189	 0.281728048123967 
2190	 0.282104768333138 
2191	 0.281549029749996 
2192	 0.283499925245911 
2193	 0.28410838857247 
2194	 0.284334808417669 
2195	 0.287161658175702 
2196	 0.288379870415008 
2197	 0.287426218260895 
2198	 0.287008015613378 
2199	 0.286502561756849 
2200	 0.285095669690547 
2201	 0.284153905983598 
2202	 0.283582272456949 
2203	 0.282606799718398 
2204	 0.282145126596698 
2205	 0.282301689968681 
2206	 0.284138099974697 
2207	 0.285796149067596 
2208	 0.286786555632221 
2209	 0.287781883509952 
2210	 0.288509340729036 
2211	 0.288263605232943 
2212	 0.289325511299097 
2213	 0.290032726855851 
2214	 0.289618353826659 
2215	 0.288880715630987 
2216	 0.286844152622624 
2217	 0.286741032759353 
2218	 0.287350998824708 
2219	 0.289761814639009 
2220	 0.291375017470266 
2221	 0.289372000587523 
2222	 0.289990788930748 
2223	 0.288740712613359 
2224	 0.28627102117637 
2225	 0.287226129621262 
2226	 0.28569322323614 
2227	 0.283807067867488 
2228	 0.284209807795583 
2229	 0.285461865704905 
2230	 0.287038338199793 
2231	 0.287443579237858 
2232	 0.288557291807936 
2233	 0.288486053819659 
2234	 0.286541676106894 
2235	 0.284105881864126 
2236	 0.284840685737692 
2237	 0.285326005521359 
2238	 0.284151938424765 
2239	 0.283843704351993 
2240	 0.283638905366578 
2241	 0.282496616014859 
2242	 0.283512058681289 
2243	 0.28588499241087 
2244	 0.285714099256378 
2245	 0.284744278070285 
2246	 0.284958461237567 
2247	 0.283555985271104 
2248	 0.281468827743938 
2249	 0.281031490064556 
2250	 0.280238296481361 
2251	 0.280457780958281 
2252	 0.281666944447115 
2253	 0.282057203086594 
2254	 0.281362642637502 
2255	 0.280397714392522 
2256	 0.280116973193119 
2257	 0.280010782836174 
2258	 0.280295041497339 
2259	 0.281974160132263 
2260	 0.28126582031337 
2261	 0.27948680103511 
2262	 0.278303184731226 
2263	 0.276650020146448 
2264	 0.276428396910622 
2265	 0.275637931986797 
2266	 0.275065956547186 
2267	 0.273019457943649 
2268	 0.270681146671811 
2269	 0.269321551588931 
2270	 0.26656071833063 
2271	 0.266484457521069 
2272	 0.267559766840609 
2273	 0.270139558636758 
2274	 0.274800628836796 
2275	 0.275285563195878 
2276	 0.272367715353794 
2277	 0.270673458261575 
2278	 0.269288112907833 
2279	 0.265988545913242 
2280	 0.265173605068145 
2281	 0.263168558413346 
2282	 0.260151925441414 
2283	 0.261149210924111 
2284	 0.260660114574444 
2285	 0.259722088486043 
2286	 0.25881473772571 
2287	 0.257101201932941 
2288	 0.254192106188627 
2289	 0.254748304800951 
2290	 0.25620423632505 
2291	 0.254533882254528 
2292	 0.253518238036483 
2293	 0.250770245273903 
2294	 0.245840895869173 
2295	 0.247673563992484 
2296	 0.249409887092698 
2297	 0.248919110610948 
2298	 0.251258732984112 
2299	 0.250724272053162 
2300	 0.249149465346068 
2301	 0.25060661880306 
2302	 0.251137908707935 
2303	 0.247671170592222 
2304	 0.243691528937015 
2305	 0.241076165217085 
2306	 0.237886301733374 
2307	 0.240079989541418 
2308	 0.244428948334822 
2309	 0.243664874193453 
2310	 0.243213356715079 
2311	 0.238842134552237 
2312	 0.233970931322176 
2313	 0.234485614191808 
2314	 0.231739940051079 
2315	 0.2315943502593 
2316	 0.233027396563678 
2317	 0.231280554597952 
2318	 0.235895391303182 
2319	 0.23916112701488 
2320	 0.235343631243182 
2321	 0.23400312054561 
2322	 0.231505723800147 
2323	 0.228538264810137 
2324	 0.224133352319395 
2325	 0.227081835520586 
2326	 0.227543766092265 
2327	 0.228631447766923 
2328	 0.232409962805773 
2329	 0.234257476606301 
2330	 0.233297282319805 
2331	 0.230859348584891 
2332	 0.227512516733723 
2333	 0.218859940680208 
2334	 0.213923291258333 
2335	 0.21470446404674 
2336	 0.213262273869389 
2337	 0.213741717218635 
2338	 0.215543354439586 
2339	 0.21524506904674 
2340	 0.214356608895245 
2341	 0.217708453137805 
2342	 0.220430433577872 
2343	 0.215050984643477 
2344	 0.212508200051398 
2345	 0.215073866173539 
2346	 0.215577418872424 
2347	 0.21475170650897 
2348	 0.211605255482061 
2349	 0.202741817494899 
2350	 0.194872636750401 
2351	 0.197985954518444 
2352	 0.200873169116198 
2353	 0.203173717312465 
2354	 0.206046826545639 
2355	 0.199457825449551 
2356	 0.199590871026505 
2357	 0.205590439261149 
2358	 0.209120014392462 
2359	 0.212424075238535 
2360	 0.208529523192875 
2361	 0.200667190262634 
2362	 0.196684715602308 
2363	 0.196749250427913 
2364	 0.194484403972059 
2365	 0.191934531292998 
2366	 0.187995020338204 
2367	 0.183555400651699 
2368	 0.188569986042777 
2369	 0.198520608184225 
2370	 0.20495202914637 
2371	 0.20283663174395 
2372	 0.199092055336258 
2373	 0.186471730639502 
2374	 0.181514920300121 
2375	 0.178328489245825 
2376	 0.176348577795993 
2377	 0.172004108006309 
2378	 0.173982045202861 
2379	 0.182688866576022 
2380	 0.189364137483249 
2381	 0.212021855097328 
2382	 0.214809835955242 
2383	 0.192636497956357 
2384	 0.184422905234803 
2385	 0.172334787893581 
2386	 0.165693359152198 
2387	 0.17699534753829 
2388	 0.181175540621782 
2389	 0.176972876260926 
2390	 0.177144654870006 
2391	 0.179552074608428 
2392	 0.181714132925294 
2393	 0.187063505294552 
2394	 0.186846790637717 
2395	 0.182955401629957 
2396	 0.178929366431305 
2397	 0.166288420627962 
2398	 0.16633799794296 
2399	 0.183212893808233 
2400	 0.182664097955566 
2401	 0.174709495963257 
2402	 0.176492078407764 
2403	 0.172911285582325 
2404	 0.156781989491855 
2405	 0.158792027451928 
2406	 0.159680873175808 
2407	 0.15010703979274 
2408	 0.141841417344515 
2409	 0.132746363708898 
2410	 0.136269688395172 
2411	 0.142332409104019 
2412	 0.144937495443255 
2413	 0.151820322065959 
2414	 0.152012046173351 
2415	 0.150043759468865 
2416	 0.148090406386111 
2417	 0.151829361541887 
2418	 0.161937180551183 
2419	 0.156070327393096 
2420	 0.16543977519413 
2421	 0.185798273068897 
2422	 0.172072540579173 
2423	 0.167478137183391 
2424	 0.166348212432993 
2425	 0.138344787829435 
2426	 0.130044843489878 
2427	 0.138434991961782 
2428	 0.13670733471643 
2429	 0.143229731840982 
2430	 0.164377344082842 
2431	 0.171764682595803 
2432	 0.170925359289473 
2433	 0.160043295385361 
2434	 0.147583128691451 
2435	 0.113881906666536 
2436	 0.105432437406327 
2437	 0.122299054549694 
2438	 0.129421386307889 
2439	 0.147085927424074 
2440	 0.157561442242825 
2441	 0.152030557228918 
2442	 0.153260037351177 
2443	 0.165064621005624 
2444	 0.165781609525456 
2445	 0.157552660618304 
2446	 0.15484427976581 
2447	 0.150496460025984 
2448	 0.151377528455497 
2449	 0.161003375193605 
2450	 0.153621693667684 
2451	 0.13094575099178 
2452	 0.117083506427757 
2453	 0.101438793565274 
2454	 0.103171035374328 
2455	 0.117560794202876 
2456	 0.132793973987593 
2457	 0.158517194227533 
2458	 0.163922467141401 
2459	 0.169537517496804 
2460	 0.158450181498681 
2461	 0.109940703638943 
2462	 9.36428931397253E-02 
2463	 8.91705861567125E-02 
2464	 8.77028892066723E-02 
2465	 0.115555687993714 
2466	 0.117197841307769 
2467	 0.085461990705776 
2468	 8.59981329168744E-02 
2469	 0.111192922454442 
2470	 0.112151831839797 
2471	 0.112635880564243 
2472	 0.131447720909653 
2473	 0.134347525209206 
2474	 0.150313351612454 
2475	 0.229125620049552 
2476	 0.23839008550029 
2477	 0.167310907638401 
2478	 0.14826811954072 
2479	 0.131248750929754 
2480	 9.78448463867267E-02 
2481	 9.05494803867075E-02 
2482	 8.10472758164328E-02 
2483	 2.81052775925852E-02 
2484	-5.01573149807035E-03 
2485	 5.93323879737552E-04 
2486	 0.151861324139981 
2487	 0.126523206425277 
2488	 0.24821482499585 
2489	 0.428245367517616 
2490	 0.322415080076667 
2491	 0.348586625958655 
2492	 0.278869349684167 
2493	 0.131176548058852 
2494	 0.303579610328436 
2495	 0.298750958892284 
2496	 0.305925552705848 
2497	 0.402643580715115 
2498	 4.66174879300082E-02 
2499	 7.73011705650724E-02 
2500	 0.370321286676135 
