Wavelength	ref00105.asd
350	 1.57410587241818E-02 
351	 1.57617248484109E-02 
352	 1.55304808010054E-02 
353	 1.54680494814035E-02 
354	 1.52799703286763E-02 
355	 1.54928871472366E-02 
356	 1.60799003809445E-02 
357	 1.55776514332184E-02 
358	 1.54521357124496E-02 
359	 1.54553253789839E-02 
360	 1.51472997935852E-02 
361	 1.57157463845598E-02 
362	 1.58443532387916E-02 
363	 1.55056436722608E-02 
364	 1.55099114552321E-02 
365	 1.53632821361757E-02 
366	 1.54372553930033E-02 
367	 1.57550989077613E-02 
368	 1.57512442842807E-02 
369	 1.53694386799313E-02 
370	 1.52224392936501E-02 
371	 1.56943124551225E-02 
372	 1.60477787643832E-02 
373	 1.61170692488641E-02 
374	 1.59648710290403E-02 
375	 1.58089080474172E-02 
376	 1.59651557131896E-02 
377	 1.58597094119368E-02 
378	 1.56158466024009E-02 
379	 1.62357768975441E-02 
380	 1.62265711942899E-02 
381	 1.60652896513415E-02 
382	 1.62644921567497E-02 
383	 1.62127006021502E-02 
384	 1.62538021784277E-02 
385	 1.63981549479262E-02 
386	 1.65217541952727E-02 
387	 1.66511442811111E-02 
388	 1.68070662173881E-02 
389	 1.69176407095484E-02 
390	 0.016834093659542 
391	 1.67869892878861E-02 
392	 1.68430590483673E-02 
393	 1.69709947303883E-02 
394	 1.69911891076547E-02 
395	 1.71410374749584E-02 
396	 1.73859152824412E-02 
397	 1.76057630108246E-02 
398	 1.78213137076007E-02 
399	 1.78321393732155E-02 
400	 1.77913699662382E-02 
401	 1.80883449574215E-02 
402	 1.81329393161004E-02 
403	 1.79785530139406E-02 
404	 1.78948325322355E-02 
405	 1.84485728102253E-02 
406	 1.86071731126231E-02 
407	 1.85244208899757E-02 
408	 1.86619112459894E-02 
409	 1.87331433439307E-02 
410	 1.88338658889807E-02 
411	 1.90124088274237E-02 
412	 1.92488713107927E-02 
413	 1.93594025650988E-02 
414	 1.94298617229975E-02 
415	 1.95477895058901E-02 
416	 1.97029656524709E-02 
417	 0.019939460994956 
418	 2.01146280096024E-02 
419	 2.00929861772588E-02 
420	 2.00621847734673E-02 
421	 2.03353532036093E-02 
422	 2.07511942424586E-02 
423	 2.07772309164749E-02 
424	 2.08943043467415E-02 
425	 2.10513029462798E-02 
426	 2.11338037139733E-02 
427	 2.10412810095201E-02 
428	 2.13574959285953E-02 
429	 2.16724624628061E-02 
430	 2.14765318556532E-02 
431	 2.17144647258756E-02 
432	 2.19897858712746E-02 
433	 2.21292633673033E-02 
434	 2.22246675943989E-02 
435	 2.23782059622372E-02 
436	 2.25004535926577E-02 
437	 2.25525209669321E-02 
438	 2.26691600381673E-02 
439	 2.27578866738681E-02 
440	 2.28170422959084E-02 
441	 2.28883967004707E-02 
442	 2.30655345546218E-02 
443	 2.32417560757335E-02 
444	 2.33523833832286E-02 
445	 2.33936074746011E-02 
446	 2.35595154663264E-02 
447	 2.37012703781939E-02 
448	 2.37294298310583E-02 
449	 2.38499325920421E-02 
450	 2.40162047457295E-02 
451	 2.41579493859699E-02 
452	 2.42089023313964E-02 
453	 2.42061526791479E-02 
454	 2.43097254917571E-02 
455	 2.45024893830678E-02 
456	 2.45581136226063E-02 
457	 2.47176798677137E-02 
458	 2.48394637784243E-02 
459	 2.48237810785195E-02 
460	 2.49523706130946E-02 
461	 2.50801402196051E-02 
462	 2.51460127645801E-02 
463	 2.51515388343452E-02 
464	 2.52049758473991E-02 
465	 2.53159133336588E-02 
466	 2.54415057821389E-02 
467	 2.54818618528518E-02 
468	 2.54771044898173E-02 
469	 2.55166926351274E-02 
470	 0.025657194785939 
471	 2.57810642181121E-02 
472	 2.58989984946883E-02 
473	 2.60150863171997E-02 
474	 2.61220332038994E-02 
475	 2.61457516403869E-02 
476	 2.61372220543729E-02 
477	 2.61595125394168E-02 
478	 2.62638439431197E-02 
479	 2.64214811808667E-02 
480	 2.65786685555997E-02 
481	 2.66748200513924E-02 
482	 2.66538534372576E-02 
483	 2.67244517766663E-02 
484	 0.026919473197418 
485	 2.70785672337686E-02 
486	 0.027057826967302 
487	 2.70997372483426E-02 
488	 2.73396975497144E-02 
489	 2.74172766998687E-02 
490	 2.76296471075634E-02 
491	 2.78549637830989E-02 
492	 2.78660004565737E-02 
493	 2.79501139894115E-02 
494	 2.81942067237895E-02 
495	 2.85346467573031E-02 
496	 2.87487050137553E-02 
497	 2.88726520560871E-02 
498	 2.90676218239843E-02 
499	 2.94248097361085E-02 
500	 2.96925248402234E-02 
501	 0.029963259674554 
502	 3.02827880277165E-02 
503	 3.06632126496928E-02 
504	 3.10753845972173E-02 
505	 3.15301327460563E-02 
506	 3.20226607796679E-02 
507	 3.25129783911762E-02 
508	 0.03307850098576 
509	 3.36984498785388E-02 
510	 3.43327428813108E-02 
511	 3.50109050326946E-02 
512	 3.56844644294339E-02 
513	 3.63995504073789E-02 
514	 3.72743222057443E-02 
515	 3.81617865469017E-02 
516	 3.90845386774765E-02 
517	 4.00817150171251E-02 
518	 4.11687564540648E-02 
519	 4.23261501502634E-02 
520	 4.34555262597545E-02 
521	 4.44810938714172E-02 
522	 0.045608555623159 
523	 4.66935289849772E-02 
524	 4.77189136007084E-02 
525	 4.88192742225271E-02 
526	 5.00084773237666E-02 
527	 5.11376027522164E-02 
528	 5.21145672768931E-02 
529	 0.053141266057358 
530	 5.40370129225194E-02 
531	 5.48126493940264E-02 
532	 5.55942117401978E-02 
533	 5.64553268651672E-02 
534	 5.72903192850641E-02 
535	 5.80123738760393E-02 
536	 5.86066927771936E-02 
537	 5.91872156548498E-02 
538	 5.97825979360238E-02 
539	 0.060368118847207 
540	 6.08145924652697E-02 
541	 0.061363410699886 
542	 6.19791684428767E-02 
543	 6.23983597618691E-02 
544	 6.28614196448856E-02 
545	 6.32916329683369E-02 
546	 6.36376412164866E-02 
547	 6.40229333125286E-02 
548	 6.43918561939794E-02 
549	 6.47388364724526E-02 
550	 6.50710213796582E-02 
551	 6.53631054667469E-02 
552	 6.55676391732087E-02 
553	 6.56781849304135E-02 
554	 6.57368460121131E-02 
555	 6.57920232522811E-02 
556	 6.58092237336426E-02 
557	 6.57467814813975E-02 
558	 0.065607940201499 
559	 6.55204855741115E-02 
560	 6.53706912533673E-02 
561	 6.49419429197938E-02 
562	 6.46895344439396E-02 
563	 6.43872582563686E-02 
564	 6.39111566513196E-02 
565	 6.34772862383716E-02 
566	 0.063002122172533 
567	 6.24816299490541E-02 
568	 6.19335590636148E-02 
569	 0.061367809040524 
570	 6.07519647041096E-02 
571	 0.060129894326023 
572	 5.96058610117176E-02 
573	 5.90455406629792E-02 
574	 5.85662244987123E-02 
575	 5.82067915741573E-02 
576	 5.76901225511509E-02 
577	 5.72867558127042E-02 
578	 5.69456484537492E-02 
579	 5.65002795451722E-02 
580	 5.61628212199721E-02 
581	 5.58329499429453E-02 
582	 5.54560689968531E-02 
583	 5.50725411920021E-02 
584	 5.47665783075465E-02 
585	 5.45112806276319E-02 
586	 5.42672261684356E-02 
587	 5.40689641969761E-02 
588	 5.39379404639909E-02 
589	 0.053827413599507 
590	 5.36561172074345E-02 
591	 5.35544854675635E-02 
592	 5.34650680181125E-02 
593	 5.33460000172531E-02 
594	 5.32379090848835E-02 
595	 5.31241554957835E-02 
596	 5.30067902333573E-02 
597	 0.05289416565023 
598	 5.27957629434865E-02 
599	 0.052724167961719 
600	 5.26648568585393E-02 
601	 5.25777882000512E-02 
602	 5.24701846092318E-02 
603	 5.23305883548975E-02 
604	 5.21727181533459E-02 
605	 5.20911650635566E-02 
606	 5.19328737131716E-02 
607	 5.16903188739922E-02 
608	 5.14425542334312E-02 
609	 5.13077824630672E-02 
610	 5.11113065356338E-02 
611	 0.05079928224716 
612	 5.05221525374358E-02 
613	 5.03016603975305E-02 
614	 5.00613213936183E-02 
615	 4.97506847191101E-02 
616	 4.95326886261449E-02 
617	 4.92991328328896E-02 
618	 4.90261707587185E-02 
619	 4.87604679727815E-02 
620	 4.86301927382376E-02 
621	 0.048553080469062 
622	 4.84606860519794E-02 
623	 4.83657474816342E-02 
624	 4.83136515856486E-02 
625	 4.82808928861085E-02 
626	 4.82455010148279E-02 
627	 4.83443920088756E-02 
628	 4.83916544562589E-02 
629	 4.83717254014419E-02 
630	 0.048441201207743 
631	 4.85141115636739E-02 
632	 4.84966252716817E-02 
633	 0.048366871344586 
634	 4.82885532703554E-02 
635	 4.81465607171354E-02 
636	 4.79451675901222E-02 
637	 4.77370862108337E-02 
638	 4.75210578248638E-02 
639	 4.71798172138271E-02 
640	 4.67450400691979E-02 
641	 4.64555664763338E-02 
642	 4.60690796648786E-02 
643	 4.56695721969703E-02 
644	 4.53404472725352E-02 
645	 4.48949555548221E-02 
646	 0.044540978843515 
647	 4.42602734979013E-02 
648	 4.39124253311533E-02 
649	 4.36613879442977E-02 
650	 4.34381841642663E-02 
651	 0.043238172205696 
652	 4.31934156595006E-02 
653	 4.31500993486548E-02 
654	 4.30645044977001E-02 
655	 4.29474331832677E-02 
656	 4.29183322047214E-02 
657	 4.27990384082561E-02 
658	 4.25669204041373E-02 
659	 4.23100746879055E-02 
660	 4.20346660633752E-02 
661	 4.17287052309107E-02 
662	 4.14393447621368E-02 
663	 4.13342168558351E-02 
664	 4.10544336624479E-02 
665	 4.07020901242579E-02 
666	 0.040500255949135 
667	 4.03931076466783E-02 
668	 4.02411217474063E-02 
669	 4.00658606531874E-02 
670	 4.00272044202931E-02 
671	 0.039990577781661 
672	 4.00033017873487E-02 
673	 4.00811440429208E-02 
674	 4.00836652265047E-02 
675	 4.01779449318746E-02 
676	 4.03443327866038E-02 
677	 4.04857532605572E-02 
678	 4.05158667739028E-02 
679	 4.06853416868534E-02 
680	 4.10240906458927E-02 
681	 4.13189109989657E-02 
682	 4.17334060730069E-02 
683	 0.04223875883665 
684	 4.28132973475421E-02 
685	 4.35418250936307E-02 
686	 4.44606245667374E-02 
687	 0.045694058666483 
688	 4.72274062167807E-02 
689	 4.86603682267819E-02 
690	 5.03087905769606E-02 
691	 5.23329327435556E-02 
692	 5.45440164157711E-02 
693	 5.72367172289138E-02 
694	 6.02701840526057E-02 
695	 6.34568696788221E-02 
696	 0.066818671106336 
697	 7.02917738035006E-02 
698	 0.074020453284215 
699	 7.81378826309741E-02 
700	 8.21984866589044E-02 
701	 8.63395167503623E-02 
702	 9.05487569138048E-02 
703	 9.45672994131286E-02 
704	 9.85730182303527E-02 
705	 0.102608983220133 
706	 0.10666982809348 
707	 0.110569846755562 
708	 0.114475232850342 
709	 0.118443335135458 
710	 0.12244607547567 
711	 0.126442222263651 
712	 0.130473715896893 
713	 0.134497945913099 
714	 0.138374471610121 
715	 0.142296806923959 
716	 0.146468421962919 
717	 0.151063507724126 
718	 0.155774947658956 
719	 0.16035029426411 
720	 0.164389094346294 
721	 0.167772773594817 
722	 0.171117955846589 
723	 0.174822247800692 
724	 0.178988843430369 
725	 0.182955256865271 
726	 0.186566702517083 
727	 0.189930316289783 
728	 0.193253540982552 
729	 0.196513827043293 
730	 0.19962110469484 
731	 0.202494158779826 
732	 0.205084864745511 
733	 0.2072903905166 
734	 0.209497336575502 
735	 0.211823870341195 
736	 0.214071601215345 
737	 0.21622129800153 
738	 0.218272328468963 
739	 0.220221414758126 
740	 0.221952567660703 
741	 0.223528904648188 
742	 0.225032908715134 
743	 0.226516971666237 
744	 0.227925548245542 
745	 0.229222903307126 
746	 0.230391849023321 
747	 0.231437807497584 
748	 0.232489487015378 
749	 0.233471689301824 
750	 0.234355319305944 
751	 0.235242074124328 
752	 0.235945508240692 
753	 0.236611088898137 
754	 0.237359270567259 
755	 0.237892019692151 
756	 0.23828881025518 
757	 0.238463579010935 
758	 0.238385787171852 
759	 0.239403487000169 
760	 0.241344403715063 
761	 0.243311245881943 
762	 0.243189584797791 
763	 0.243397360694526 
764	 0.243645885285494 
765	 0.243481791570571 
766	 0.243296407324221 
767	 0.243269372774529 
768	 0.243326436011556 
769	 0.243379613952104 
770	 0.243658110158383 
771	 0.243997563135564 
772	 0.244275070965618 
773	 0.24444209484265 
774	 0.244717199673805 
775	 0.244982806870377 
776	 0.245165074722133 
777	 0.245353303216158 
778	 0.245622330845161 
779	 0.245900632534334 
780	 0.246117593030347 
781	 0.246386555125679 
782	 0.24656235490648 
783	 0.24672349795246 
784	 0.247030864466586 
785	 0.247308107765382 
786	 0.247547143222231 
787	 0.247807181822714 
788	 0.248188701932743 
789	 0.248531432645687 
790	 0.248701561008354 
791	 0.248766207774636 
792	 0.249196978300704 
793	 0.249457629101292 
794	 0.249603619827944 
795	 0.249838728460978 
796	 0.250139566915496 
797	 0.250305749432042 
798	 0.250442618584771 
799	 0.25078993581874 
800	 0.251113178202056 
801	 0.251339186450409 
802	 0.251475062954437 
803	 0.251610264631857 
804	 0.251934639502781 
805	 0.252114882350607 
806	 0.252045744730561 
807	 0.252299999889048 
808	 0.252495205353006 
809	 0.252720770238507 
810	 0.253135777648644 
811	 0.253588555796981 
812	 0.254105368278191 
813	 0.254741625969495 
814	 0.255528389283304 
815	 0.256238295862283 
816	 0.256746823656679 
817	 0.257051363425395 
818	 0.257246313389732 
819	 0.256746983224425 
820	 0.25637034422573 
821	 0.256617235135605 
822	 0.2570925241022 
823	 0.257762520275671 
824	 0.257830360819038 
825	 0.257018401122459 
826	 0.256964996894839 
827	 0.257284607502285 
828	 0.257705816830943 
829	 0.257972331807479 
830	 0.257913794008909 
831	 0.257932224868592 
832	 0.258092928684652 
833	 0.258176474624475 
834	 0.25808615116606 
835	 0.257999656567091 
836	 0.258035625349398 
837	 0.258185967919833 
838	 0.258228519411487 
839	 0.258333894428189 
840	 0.258543020280247 
841	 0.258485836693573 
842	 0.258492058470737 
843	 0.258677090705076 
844	 0.258981473876744 
845	 0.259014760512017 
846	 0.259087446140006 
847	 0.259252098239946 
848	 0.259440144295295 
849	 0.259617277699039 
850	 0.259950779813508 
851	 0.260258307637226 
852	 0.260217835018962 
853	 0.26065216293989 
854	 0.261212646537173 
855	 0.261383827917883 
856	 0.2607670852878 
857	 0.260712310274494 
858	 0.260969591859176 
859	 0.26120783461552 
860	 0.261426292870141 
861	 0.261540697622749 
862	 0.261625384029581 
863	 0.261787275484044 
864	 0.262086799646389 
865	 0.262636260498716 
866	 0.263121398886135 
867	 0.263171686141643 
868	 0.262789304432517 
869	 0.262783642574325 
870	 0.263024872120841 
871	 0.263063386647904 
872	 0.263454101568369 
873	 0.263668251611126 
874	 0.263706382390578 
875	 0.263929807719078 
876	 0.26410052797619 
877	 0.264010716420752 
878	 0.263862161816577 
879	 0.264169409854011 
880	 0.264335558967057 
881	 0.264353708155911 
882	 0.264399271310373 
883	 0.264734113545927 
884	 0.26490743365801 
885	 0.264963070502192 
886	 0.265019748895103 
887	 0.265131658630823 
888	 0.265165247759009 
889	 0.265305711348521 
890	 0.265641732744887 
891	 0.265825723428595 
892	 0.265951039504281 
893	 0.266341613764022 
894	 0.267170980619513 
895	 0.267840003497371 
896	 0.268263627936997 
897	 0.268811631667398 
898	 0.269757828339002 
899	 0.269977712472892 
900	 0.270191535063198 
901	 0.270178683251764 
902	 0.26943923375922 
903	 0.268761433469227 
904	 0.268368395926127 
905	 0.268398446651095 
906	 0.268868359726423 
907	 0.269424913634888 
908	 0.270210216778471 
909	 0.270819256191729 
910	 0.270578333654006 
911	 0.270666711887785 
912	 0.270860306651109 
913	 0.271020517024764 
914	 0.271212680421627 
915	 0.271168571048702 
916	 0.270791476092346 
917	 0.270264620434804 
918	 0.270002965978964 
919	 0.269915349485693 
920	 0.269477772717227 
921	 0.269021085915842 
922	 0.269812346075018 
923	 0.269278509199107 
924	 0.268902361914259 
925	 0.269520727161116 
926	 0.269820600050733 
927	 0.269697632868177 
928	 0.270345506464571 
929	 0.272279838031476 
930	 0.274062551637478 
931	 0.275836195580991 
932	 0.277550733804893 
933	 0.278783753323724 
934	 0.278487378288155 
935	 0.27822518854619 
936	 0.27742150006618 
937	 0.275679385756628 
938	 0.274017765653189 
939	 0.273147654598453 
940	 0.272273431647265 
941	 0.271353836629227 
942	 0.272373699762463 
943	 0.272409194978545 
944	 0.272418892357809 
945	 0.273009062370951 
946	 0.27192369057253 
947	 0.270535576798078 
948	 0.269294740942399 
949	 0.268280984591539 
950	 0.267310577289887 
951	 0.267629174350102 
952	 0.267534579880736 
953	 0.266231426138185 
954	 0.266231012661789 
955	 0.265287466184392 
956	 0.26404114330651 
957	 0.263108829508296 
958	 0.26163379748513 
959	 0.260680139006153 
960	 0.260091353185648 
961	 0.259721918130798 
962	 0.259981362689778 
963	 0.25950476266439 
964	 0.258182895428975 
965	 0.256740649931093 
966	 0.256558070355407 
967	 0.256294410913949 
968	 0.255466720063572 
969	 0.254298482470366 
970	 0.253739564005146 
971	 0.253785708579285 
972	 0.254581235563983 
973	 0.255506207162359 
974	 0.25508983338279 
975	 0.255622424032559 
976	 0.255557009386254 
977	 0.254584125061873 
978	 0.254718849127162 
979	 0.25528843058217 
980	 0.254885668520019 
981	 0.253940742512408 
982	 0.254558351107213 
983	 0.254230758928869 
984	 0.253651788505269 
985	 0.253487333259878 
986	 0.253814525742483 
987	 0.253667670070105 
988	 0.254332426717583 
989	 0.255353256401326 
990	 0.255146114309246 
991	 0.255157343246345 
992	 0.254117815079951 
993	 0.253601006179127 
994	 0.255585760980335 
995	 0.254491040644931 
996	 0.253852868391025 
997	 0.254406358777974 
998	 0.255281549927518 
999	 0.256619676206432 
1000	 0.256677078851548 
1001	 0.266975173280516 
1002	 0.267349388054069 
1003	 0.267640250406008 
1004	 0.267772771546863 
1005	 0.267985688426439 
1006	 0.26807242470611 
1007	 0.268369310825776 
1008	 0.26884970677553 
1009	 0.269206208051519 
1010	 0.269615623419376 
1011	 0.269987293009754 
1012	 0.2703714366157 
1013	 0.270606044263167 
1014	 0.270857895939179 
1015	 0.271367323869178 
1016	 0.271729008047408 
1017	 0.272015673735914 
1018	 0.272373713276446 
1019	 0.27276687157536 
1020	 0.273117961665275 
1021	 0.273518504754363 
1022	 0.273877739219661 
1023	 0.274237391012261 
1024	 0.274486004713635 
1025	 0.274774459802625 
1026	 0.275054932811501 
1027	 0.275233317797078 
1028	 0.275422204740501 
1029	 0.275683237506659 
1030	 0.27581536083538 
1031	 0.275910880279621 
1032	 0.276180356456407 
1033	 0.276422217205594 
1034	 0.27663215043842 
1035	 0.276894889309544 
1036	 0.277293126565006 
1037	 0.277503932527213 
1038	 0.277628698332708 
1039	 0.277750958220798 
1040	 0.277860519764311 
1041	 0.278060255171238 
1042	 0.278405342012241 
1043	 0.278685858053775 
1044	 0.278881063943604 
1045	 0.279086643264756 
1046	 0.279267054120884 
1047	 0.279429548173651 
1048	 0.279618188721264 
1049	 0.279874064615116 
1050	 0.280135502627118 
1051	 0.280412689091084 
1052	 0.280679549631315 
1053	 0.280955961467989 
1054	 0.281179123368794 
1055	 0.28136808883837 
1056	 0.281647865270667 
1057	 0.281957776919565 
1058	 0.282284994194808 
1059	 0.282656718816901 
1060	 0.282977920098432 
1061	 0.283310745994017 
1062	 0.283631802399431 
1063	 0.283794298670265 
1064	 0.283955701366256 
1065	 0.284161872350424 
1066	 0.284344759194763 
1067	 0.284582282338965 
1068	 0.284980156321485 
1069	 0.285295654609569 
1070	 0.285562409640747 
1071	 0.285862258585146 
1072	 0.286107105432865 
1073	 0.286427190110841 
1074	 0.286822410723972 
1075	 0.2870375218544 
1076	 0.287173943605291 
1077	 0.287360425402184 
1078	 0.287535446236451 
1079	 0.287766529231978 
1080	 0.287911739501477 
1081	 0.288045942094722 
1082	 0.288109556792703 
1083	 0.2882239436801 
1084	 0.28825338320928 
1085	 0.288432996380536 
1086	 0.288705887860597 
1087	 0.288758508717522 
1088	 0.288934164086432 
1089	 0.289125565514711 
1090	 0.289107935512625 
1091	 0.289187057059112 
1092	 0.289335562675914 
1093	 0.289478529352746 
1094	 0.289677796668911 
1095	 0.289880863280758 
1096	 0.290057919190973 
1097	 0.290180577540472 
1098	 0.290320404105078 
1099	 0.290447518490934 
1100	 0.290643744298798 
1101	 0.290784719201721 
1102	 0.290881227006583 
1103	 0.291069805526504 
1104	 0.291243246536258 
1105	 0.29139643544019 
1106	 0.291684342214699 
1107	 0.292021203831182 
1108	 0.292311599488914 
1109	 0.292667505410015 
1110	 0.293090466649293 
1111	 0.293555593010366 
1112	 0.294024149124092 
1113	 0.294649092432171 
1114	 0.295601042272665 
1115	 0.29631125921942 
1116	 0.296983829387647 
1117	 0.297658742489516 
1118	 0.298376633883119 
1119	 0.298913273087215 
1120	 0.299467109478391 
1121	 0.299978952660044 
1122	 0.300140427881902 
1123	 0.300138229565397 
1124	 0.299924376149409 
1125	 0.299504103731497 
1126	 0.29880648379269 
1127	 0.297731400773673 
1128	 0.296647942045137 
1129	 0.295517736574863 
1130	 0.294215769221394 
1131	 0.292901319552036 
1132	 0.291309474691114 
1133	 0.28951123638878 
1134	 0.287647069953242 
1135	 0.285807772856799 
1136	 0.284087466371506 
1137	 0.282365805919936 
1138	 0.280729274659736 
1139	 0.279194976816624 
1140	 0.277636722402107 
1141	 0.276366655650147 
1142	 0.275229316397396 
1143	 0.273903543873306 
1144	 0.272599768584512 
1145	 0.271084796249574 
1146	 0.269416125335742 
1147	 0.267743627685815 
1148	 0.266025174664055 
1149	 0.26425366856858 
1150	 0.262467275925939 
1151	 0.260728512292782 
1152	 0.258977237517517 
1153	 0.257373080398449 
1154	 0.255938839460863 
1155	 0.254593107490828 
1156	 0.253298949591272 
1157	 0.252166374117573 
1158	 0.251073183964972 
1159	 0.250059454065483 
1160	 0.249163829552513 
1161	 0.248344466836643 
1162	 0.247600671494037 
1163	 0.246934880860327 
1164	 0.24632739800964 
1165	 0.245729145162834 
1166	 0.245235898225488 
1167	 0.244820156670341 
1168	 0.244459905837938 
1169	 0.244131153027127 
1170	 0.243938227132797 
1171	 0.243794893884137 
1172	 0.243547218906666 
1173	 0.24331197043626 
1174	 0.243048075338087 
1175	 0.242758825801265 
1176	 0.242499471737953 
1177	 0.242267081716068 
1178	 0.242061297779235 
1179	 0.241897110695953 
1180	 0.241771189278382 
1181	 0.24161567128054 
1182	 0.24152912526826 
1183	 0.241348879018654 
1184	 0.241089192365565 
1185	 0.240884656986939 
1186	 0.240637040255714 
1187	 0.240445386804977 
1188	 0.240317881640398 
1189	 0.240163276887739 
1190	 0.240013570959653 
1191	 0.239852452252164 
1192	 0.23970686490891 
1193	 0.239594089008352 
1194	 0.239513152771572 
1195	 0.239491301440262 
1196	 0.239451805791147 
1197	 0.239424928661549 
1198	 0.239403891153815 
1199	 0.23936384511712 
1200	 0.239367373526899 
1201	 0.239407343293688 
1202	 0.239443564577024 
1203	 0.239503303719698 
1204	 0.239584756075481 
1205	 0.239678590256452 
1206	 0.239765186657572 
1207	 0.23986338202421 
1208	 0.239972750014979 
1209	 0.240076199628982 
1210	 0.240161217374724 
1211	 0.240385709613889 
1212	 0.240628839705114 
1213	 0.240818012726252 
1214	 0.241044802678679 
1215	 0.241232145854973 
1216	 0.241346291980824 
1217	 0.241511052682263 
1218	 0.241679972301333 
1219	 0.241889631421456 
1220	 0.24210351749135 
1221	 0.242363658430696 
1222	 0.242727630879145 
1223	 0.243005371349167 
1224	 0.243276874042879 
1225	 0.243512528141829 
1226	 0.24366291455482 
1227	 0.243873601012661 
1228	 0.244102891766426 
1229	 0.244329696597626 
1230	 0.244586528572873 
1231	 0.244834282258595 
1232	 0.245063371085013 
1233	 0.245265125843364 
1234	 0.245508718305256 
1235	 0.245764295888761 
1236	 0.246014176508048 
1237	 0.246304043697285 
1238	 0.246540738747379 
1239	 0.246742519335863 
1240	 0.246947069982849 
1241	 0.247114848603345 
1242	 0.247326613289682 
1243	 0.247586816546582 
1244	 0.247784810706546 
1245	 0.247951704140171 
1246	 0.24815065262413 
1247	 0.248329455199829 
1248	 0.248507667178487 
1249	 0.248735041677998 
1250	 0.248932769027551 
1251	 0.249099397280609 
1252	 0.249276811126978 
1253	 0.249367720438725 
1254	 0.249401004528443 
1255	 0.249491546234313 
1256	 0.249548161868098 
1257	 0.249594344927352 
1258	 0.249691466658442 
1259	 0.249743829040075 
1260	 0.249681980502128 
1261	 0.249736558556448 
1262	 0.249888427897817 
1263	 0.249972044360525 
1264	 0.250079316636643 
1265	 0.250144429879223 
1266	 0.250150584360449 
1267	 0.250172746887367 
1268	 0.250183482561185 
1269	 0.250196394112712 
1270	 0.250183695276511 
1271	 0.250202563872836 
1272	 0.250254260578442 
1273	 0.250280232344082 
1274	 0.250331154106462 
1275	 0.250410266849298 
1276	 0.250470691689197 
1277	 0.250501139478401 
1278	 0.250604453096732 
1279	 0.250778285245527 
1280	 0.250851174110007 
1281	 0.25092647268001 
1282	 0.250979411980944 
1283	 0.250969807358796 
1284	 0.250951532124419 
1285	 0.250902881082177 
1286	 0.250913989345173 
1287	 0.250956993682194 
1288	 0.250926005022301 
1289	 0.250941758705931 
1290	 0.250888085067083 
1291	 0.250709012687989 
1292	 0.250557737558473 
1293	 0.25038286657587 
1294	 0.250242176398078 
1295	 0.250124250304852 
1296	 0.249987952723945 
1297	 0.249808616418168 
1298	 0.249639224539137 
1299	 0.249435686003912 
1300	 0.249173433909645 
1301	 0.248904207841669 
1302	 0.248652054616829 
1303	 0.248338000884059 
1304	 0.247972545528424 
1305	 0.247568945701835 
1306	 0.247132470472274 
1307	 0.246657879393473 
1308	 0.246099762112002 
1309	 0.245572813103838 
1310	 0.245042795805159 
1311	 0.244490538873437 
1312	 0.243999153617207 
1313	 0.243361378875122 
1314	 0.242570258490951 
1315	 0.241863721025858 
1316	 0.241130293082491 
1317	 0.240367601276963 
1318	 0.239679902016866 
1319	 0.238917828363874 
1320	 0.238032097274476 
1321	 0.237117061966921 
1322	 0.236334039847838 
1323	 0.235588027763615 
1324	 0.23483296120911 
1325	 0.234168501906628 
1326	 0.233395785528133 
1327	 0.232524522341903 
1328	 0.231711181849328 
1329	 0.230931251027663 
1330	 0.23005924640841 
1331	 0.229190000527266 
1332	 0.228233697451214 
1333	 0.227111939521213 
1334	 0.226138425131716 
1335	 0.225193712267541 
1336	 0.224271289008091 
1337	 0.223343952707785 
1338	 0.222544004585293 
1339	 0.221590783395021 
1340	 0.220999271537956 
1341	 0.220784711972308 
1342	 0.220515641336276 
1343	 0.220549879923881 
1344	 0.220537324159797 
1345	 0.220425219147917 
1346	 0.220412495480327 
1347	 0.221031151432485 
1348	 0.221777429471088 
1349	 0.22281820966465 
1350	 0.225096838226468 
1351	 0.226615875934216 
1352	 0.227568510731802 
1353	 0.229622621654139 
1354	 0.231651727681299 
1355	 0.234548177068387 
1356	 0.239346037228358 
1357	 0.244843840379784 
1358	 0.24737094955198 
1359	 0.253238843833397 
1360	 0.256443205219788 
1361	 0.264428913732284 
1362	 0.269147473897135 
1363	 0.276316156884947 
1364	 0.280830306709284 
1365	 0.282721183102269 
1366	 0.274681797286687 
1367	 0.271016192222563 
1368	 0.2712309993347 
1369	 0.266931325390836 
1370	 0.262958071405534 
1371	 0.257625059637983 
1372	 0.247561434904551 
1373	 0.243073221412136 
1374	 0.237744476424107 
1375	 0.238057690007088 
1376	 0.242034423409003 
1377	 0.239972805906152 
1378	 0.236354975198374 
1379	 0.231050206509751 
1380	 0.224327482785752 
1381	 0.213052403467637 
1382	 0.206407195132704 
1383	 0.201258524270756 
1384	 0.196183858894803 
1385	 0.193005461386729 
1386	 0.18940201991502 
1387	 0.186648900357444 
1388	 0.18372271005299 
1389	 0.18221074060239 
1390	 0.17832021323656 
1391	 0.172502955027078 
1392	 0.168696656694025 
1393	 0.164738609003216 
1394	 0.160844988640892 
1395	 0.159670535649141 
1396	 0.155140112726239 
1397	 0.146870310955782 
1398	 0.142231609957549 
1399	 0.137864373731204 
1400	 0.133914336324653 
1401	 0.132608926549269 
1402	 0.130120578541487 
1403	 0.126603724345915 
1404	 0.123740233762398 
1405	 0.121792142358059 
1406	 0.119136299349751 
1407	 0.116447948417151 
1408	 0.11517258992338 
1409	 0.112910207383147 
1410	 0.110262658134451 
1411	 0.108189390780381 
1412	 0.105879893979207 
1413	 0.104462182150238 
1414	 0.103769535970131 
1415	 0.102468340682934 
1416	 0.101180959965232 
1417	 9.99244793129134E-02 
1418	 9.82944202186972E-02 
1419	 9.73242993061267E-02 
1420	 9.70206549677205E-02 
1421	 9.60289905524545E-02 
1422	 9.46664136839813E-02 
1423	 9.39176332991139E-02 
1424	 9.30688650048466E-02 
1425	 9.23782720141247E-02 
1426	 9.22816821367623E-02 
1427	 9.17871228170982E-02 
1428	 9.08528125473484E-02 
1429	 9.02355951172202E-02 
1430	 8.95940648477307E-02 
1431	 8.91845498881159E-02 
1432	 8.91301614900215E-02 
1433	 8.88472782676578E-02 
1434	 8.85658368801429E-02 
1435	 8.82497210993645E-02 
1436	 8.76943633421209E-02 
1437	 8.73513479994153E-02 
1438	 8.72580296114676E-02 
1439	 8.70347340857205E-02 
1440	 8.68777901411962E-02 
1441	 8.65807986769177E-02 
1442	 8.60883498468744E-02 
1443	 8.56780865136416E-02 
1444	 8.54275541660433E-02 
1445	 8.51691583431096E-02 
1446	 8.48909322869407E-02 
1447	 8.46771234443488E-02 
1448	 8.44880247464623E-02 
1449	 8.42258567007707E-02 
1450	 8.41213492532972E-02 
1451	 8.42113334810385E-02 
1452	 8.40374234102248E-02 
1453	 8.37870745685426E-02 
1454	 8.35939317606936E-02 
1455	 8.32253192148212E-02 
1456	 8.31585706511666E-02 
1457	 8.32432599798021E-02 
1458	 8.33204887976216E-02 
1459	 8.35539154099485E-02 
1460	 8.36879286289983E-02 
1461	 8.37788933291732E-02 
1462	 8.39295174393081E-02 
1463	 8.40200646464659E-02 
1464	 0.084293150749625 
1465	 8.48096217414655E-02 
1466	 8.51467444609302E-02 
1467	 8.55328164531368E-02 
1468	 8.58511581038685E-02 
1469	 8.59295025089124E-02 
1470	 8.61975508605501E-02 
1471	 8.66364411927495E-02 
1472	 8.69051649531451E-02 
1473	 8.70920087825451E-02 
1474	 8.73152826962251E-02 
1475	 8.73884359553005E-02 
1476	 0.087604839700028 
1477	 8.80096153480108E-02 
1478	 8.82710668387352E-02 
1479	 8.84390002912053E-02 
1480	 8.87073588563884E-02 
1481	 8.89693370694416E-02 
1482	 8.92129641291491E-02 
1483	 8.95331540615143E-02 
1484	 8.98120755526915E-02 
1485	 9.00218677957619E-02 
1486	 9.02581538041325E-02 
1487	 9.05176829171006E-02 
1488	 9.07502595877071E-02 
1489	 9.10242360812185E-02 
1490	 9.12061068740373E-02 
1491	 0.09140157600372 
1492	 9.17166057588459E-02 
1493	 0.092000489490162 
1494	 9.22695333038284E-02 
1495	 9.25646769058162E-02 
1496	 9.28514220391585E-02 
1497	 0.093221365310653 
1498	 9.36502758486886E-02 
1499	 9.40563773986291E-02 
1500	 9.45371362971528E-02 
1501	 9.49152939978744E-02 
1502	 9.52046866077639E-02 
1503	 0.095625312711149 
1504	 9.60688234217057E-02 
1505	 9.65325162995119E-02 
1506	 9.70857323911136E-02 
1507	 9.75620811369436E-02 
1508	 9.79803510091598E-02 
1509	 9.84506588444766E-02 
1510	 9.89329697012602E-02 
1511	 0.099439032453607 
1512	 0.100009012574325 
1513	 0.100485360375615 
1514	 0.100919085656863 
1515	 0.101382591616213 
1516	 0.101805069904009 
1517	 0.102267937731489 
1518	 0.102762690796785 
1519	 0.103281258901511 
1520	 0.103841671685653 
1521	 0.104349612460763 
1522	 0.104867852103559 
1523	 0.105383842669869 
1524	 0.105855272061196 
1525	 0.106339341031431 
1526	 0.106851754004515 
1527	 0.107351277834608 
1528	 0.107851263143722 
1529	 0.108316163392638 
1530	 0.108738672130357 
1531	 0.109220535721433 
1532	 0.109693414071674 
1533	 0.110188911702952 
1534	 0.110749080835284 
1535	 0.111297556625657 
1536	 0.111868345603801 
1537	 0.112384908423232 
1538	 0.112893474570381 
1539	 0.113383926137823 
1540	 0.113760497836655 
1541	 0.114248998335762 
1542	 0.114854499052637 
1543	 0.115366026977277 
1544	 0.11587028215905 
1545	 0.116381953871466 
1546	 0.116838672558832 
1547	 0.117300513298522 
1548	 0.117779807689835 
1549	 0.118278692737986 
1550	 0.118777577971176 
1551	 0.119261138063883 
1552	 0.119772848342643 
1553	 0.12027493039816 
1554	 0.120717948796438 
1555	 0.121203819174703 
1556	 0.121803215020437 
1557	 0.122278842473371 
1558	 0.122655481205861 
1559	 0.123084285144215 
1560	 0.123414134194507 
1561	 0.12382697111178 
1562	 0.124418231406443 
1563	 0.12489757737587 
1564	 0.1253503685478 
1565	 0.125774560509807 
1566	 0.126132966890211 
1567	 0.126432743014118 
1568	 0.126816906499991 
1569	 0.127199934925031 
1570	 0.127685000901355 
1571	 0.128273604329678 
1572	 0.128730079419846 
1573	 0.129214636421885 
1574	 0.129608203747774 
1575	 0.129851398652957 
1576	 0.130255594844046 
1577	 0.130704457704991 
1578	 0.131132346335619 
1579	 0.13159853589161 
1580	 0.132039417001252 
1581	 0.132447144343642 
1582	 0.132897370459405 
1583	 0.133392462156913 
1584	 0.133818024151209 
1585	 0.134232997671256 
1586	 0.134621412050659 
1587	 0.134966860001575 
1588	 0.135320529361603 
1589	 0.135648956386587 
1590	 0.136040106258623 
1591	 0.136432350173805 
1592	 0.136871549758074 
1593	 0.137431244061242 
1594	 0.137793740348502 
1595	 0.138076540552932 
1596	 0.138405992526069 
1597	 0.138620317472385 
1598	 0.138976178260965 
1599	 0.13945279629022 
1600	 0.139845783760123 
1601	 0.14023269202082 
1602	 0.140628987057443 
1603	 0.14101259136504 
1604	 0.141411907813042 
1605	 0.141855887547869 
1606	 0.14220055310579 
1607	 0.142480439542728 
1608	 0.142815355439811 
1609	 0.143125729948515 
1610	 0.143432981740425 
1611	 0.143767947620101 
1612	 0.144096745428258 
1613	 0.144383362244518 
1614	 0.144701882231696 
1615	 0.145090149114129 
1616	 0.145373606380586 
1617	 0.145576731276369 
1618	 0.14585383639067 
1619	 0.146096725797929 
1620	 0.146432501493794 
1621	 0.146889625654811 
1622	 0.147202995912981 
1623	 0.147493746244976 
1624	 0.147765001443497 
1625	 0.147959514829246 
1626	 0.1481856955498 
1627	 0.148412637199327 
1628	 0.148686335433896 
1629	 0.148967598230875 
1630	 0.149242827651695 
1631	 0.149595207315565 
1632	 0.149841015488173 
1633	 0.15001154133508 
1634	 0.150204810511724 
1635	 0.150343819638755 
1636	 0.150567283938165 
1637	 0.150842036732557 
1638	 0.151063385573131 
1639	 0.151316661751309 
1640	 0.151531812153317 
1641	 0.151675214389662 
1642	 0.151900268661136 
1643	 0.152170360735128 
1644	 0.152384168019305 
1645	 0.152637782663562 
1646	 0.152735885458444 
1647	 0.152704185170353 
1648	 0.152808557222133 
1649	 0.152869605523505 
1650	 0.153034374599446 
1651	 0.15335011830607 
1652	 0.153463689058268 
1653	 0.153516449994338 
1654	 0.153558827207354 
1655	 0.153517209700703 
1656	 0.153557092217432 
1657	 0.153619946964485 
1658	 0.153684601658941 
1659	 0.153735092195266 
1660	 0.153780117486678 
1661	 0.153753598672758 
1662	 0.153643018143204 
1663	 0.153670284058806 
1664	 0.153724903717902 
1665	 0.153731844797575 
1666	 0.153924641131767 
1667	 0.154006318133931 
1668	 0.15394943014653 
1669	 0.154024885334214 
1670	 0.153972815001764 
1671	 0.153849361307756 
1672	 0.153761774991568 
1673	 0.153769959060215 
1674	 0.153796432242083 
1675	 0.153754223800935 
1676	 0.153870673723635 
1677	 0.153857664062985 
1678	 0.153778611663081 
1679	 0.153787352548562 
1680	 0.153603028194582 
1681	 0.153444592799014 
1682	 0.153319951395725 
1683	 0.153136546200261 
1684	 0.153054010101309 
1685	 0.15299933267028 
1686	 0.152908243443201 
1687	 0.152750248145486 
1688	 0.152506718028428 
1689	 0.152299727988534 
1690	 0.152005374869179 
1691	 0.151818987646377 
1692	 0.151757210884979 
1693	 0.151575190319439 
1694	 0.151400407036704 
1695	 0.151216603820828 
1696	 0.15089972446562 
1697	 0.150711576941742 
1698	 0.150669566208438 
1699	 0.150488087977769 
1700	 0.150271598340302 
1701	 0.15003588704252 
1702	 0.149731228034594 
1703	 0.149424738867033 
1704	 0.149084937938202 
1705	 0.148787573447782 
1706	 0.148480231758606 
1707	 0.14818457885333 
1708	 0.147887789686409 
1709	 0.147719849199638 
1710	 0.147664713397594 
1711	 0.14743887161467 
1712	 0.147272095544016 
1713	 0.147010434204077 
1714	 0.146510041762352 
1715	 0.146205327202485 
1716	 0.146042055055259 
1717	 0.14576042714216 
1718	 0.145385982326182 
1719	 0.145180164364755 
1720	 0.14504784057972 
1721	 0.144842461492236 
1722	 0.144799571848384 
1723	 0.144510658188588 
1724	 0.143901717834116 
1725	 0.143650175744625 
1726	 0.143510050337742 
1727	 0.143351135638739 
1728	 0.143360319231437 
1729	 0.143236282198647 
1730	 0.143038160372962 
1731	 0.142746248395483 
1732	 0.142551297729573 
1733	 0.142220860305725 
1734	 0.14189795853037 
1735	 0.141981183168711 
1736	 0.142094570673695 
1737	 0.142124656468429 
1738	 0.14217439680349 
1739	 0.141971277433741 
1740	 0.141556257962573 
1741	 0.141273636431904 
1742	 0.141049426920044 
1743	 0.140695723752859 
1744	 0.140457504738776 
1745	 0.140247905348387 
1746	 0.139936238306889 
1747	 0.139646800505313 
1748	 0.139373831400886 
1749	 0.139051801048028 
1750	 0.138606419509194 
1751	 0.138191530759101 
1752	 0.137809785992862 
1753	 0.137500158036343 
1754	 0.137328783576678 
1755	 0.137044512363319 
1756	 0.136791975423476 
1757	 0.136480573968706 
1758	 0.136121036626213 
1759	 0.13574865634563 
1760	 0.135533081399482 
1761	 0.135356895321909 
1762	 0.135198557395694 
1763	 0.135308835718879 
1764	 0.135165135788289 
1765	 0.134718378015396 
1766	 0.134530841780617 
1767	 0.134366191309709 
1768	 0.134300031096949 
1769	 0.134452802920393 
1770	 0.134433428761354 
1771	 0.134391989710379 
1772	 0.134237246651225 
1773	 0.133985575204075 
1774	 0.13376527957851 
1775	 0.133610957315322 
1776	 0.133588969585147 
1777	 0.133671413029623 
1778	 0.133783153294773 
1779	 0.133824202085644 
1780	 0.134068079245531 
1781	 0.134245270977802 
1782	 0.13453325113272 
1783	 0.134859989084486 
1784	 0.13503806685913 
1785	 0.135289276601366 
1786	 0.135204903432177 
1787	 0.135097091948529 
1788	 0.134981956918294 
1789	 0.134787423582892 
1790	 0.135130801045894 
1791	 0.13566139954365 
1792	 0.136073188055985 
1793	 0.136678074500907 
1794	 0.137144865282825 
1795	 0.137478387522103 
1796	 0.138292440257319 
1797	 0.138925258547872 
1798	 0.139223622100274 
1799	 0.139855932196475 
1800	 0.14107798818029 
1801	 0.138687394950057 
1802	 0.139377633684762 
1803	 0.139872788375055 
1804	 0.140352510657468 
1805	 0.141152204796484 
1806	 0.141965640677727 
1807	 0.142918053604123 
1808	 0.144563196859942 
1809	 0.146031834108147 
1810	 0.146938443451742 
1811	 0.147303397192269 
1812	 0.148278875718579 
1813	 0.148832818398706 
1814	 0.149796237527727 
1815	 0.151656443815405 
1816	 0.152989389182526 
1817	 0.155441085091894 
1818	 0.155660102546199 
1819	 0.154499918590599 
1820	 0.149471273693156 
1821	 0.149888246599597 
1822	 0.150135923647197 
1823	 0.152563662786163 
1824	 0.165138722307101 
1825	 0.171365071982449 
1826	 0.172424857263258 
1827	 0.176918350142211 
1828	 0.182160626770974 
1829	 0.188387601650744 
1830	 0.191711212243179 
1831	 0.192055387548339 
1832	 0.199062657711134 
1833	 0.198856314967471 
1834	 0.211504678766965 
1835	 0.271867067956542 
1836	 0.301338339830184 
1837	 0.276028256087477 
1838	 0.280118201715092 
1839	 0.280966560546188 
1840	 0.248961931204546 
1841	 0.245363935898262 
1842	 0.289298216085894 
1843	 0.283352273074046 
1844	 0.240208598814874 
1845	 0.231119878204035 
1846	 0.229108071492226 
1847	 0.220537629339188 
1848	 0.213578075147141 
1849	 0.211967653524492 
1850	 0.217745619615998 
1851	 0.209441938906887 
1852	 0.228927584321074 
1853	 0.311559678540842 
1854	 0.32676549936803 
1855	 0.315453433891302 
1856	 0.306389376744112 
1857	 0.273253390115267 
1858	 0.239016386544669 
1859	 0.213354980951539 
1860	 0.185359897299869 
1861	 0.176100799656764 
1862	 0.168616796611654 
1863	 0.164622647532763 
1864	 0.18347455677491 
1865	 0.189121920834081 
1866	 0.191811377161133 
1867	 0.17798603300061 
1868	 0.192806768235236 
1869	 0.197372938051392 
1870	 0.201798957091782 
1871	 0.219534352435252 
1872	 0.219098945029002 
1873	 0.219452717478328 
1874	 0.188860214045089 
1875	 0.131901800289834 
1876	 0.11724876463809 
1877	 0.10233411033921 
1878	 0.103407713578147 
1879	 0.109246005202409 
1880	 0.119131975848781 
1881	 0.122095768347507 
1882	 0.118903112942346 
1883	 0.116868819014655 
1884	 0.116733718477918 
1885	 0.115203893118976 
1886	 0.110270062782777 
1887	 0.109610704374962 
1888	 0.104530755789913 
1889	 0.093619399304313 
1890	 8.85300839860068E-02 
1891	 7.78222199097923E-02 
1892	 7.61345647751882E-02 
1893	 8.86510728541216E-02 
1894	 0.09043886110493 
1895	 0.087025778831672 
1896	 8.85176685099163E-02 
1897	 0.087313175801504 
1898	 8.43756289430438E-02 
1899	 0.101568383217854 
1900	 0.117189763386275 
1901	 0.128508659498596 
1902	 0.1418744807635 
1903	 0.14334767594459 
1904	 0.125714021382357 
1905	 0.120556512036984 
1906	 0.107673194528551 
1907	 0.115379892920006 
1908	 0.107562107414605 
1909	 9.17167187599455E-02 
1910	 9.01959131890507E-02 
1911	 8.11268574962163E-02 
1912	 7.51205491553704E-02 
1913	 7.21585663281959E-02 
1914	 7.17987518879276E-02 
1915	 7.11627139821684E-02 
1916	 6.94474165044514E-02 
1917	 6.75524785611029E-02 
1918	 7.15804553999192E-02 
1919	 7.14889772703515E-02 
1920	 6.97185328411907E-02 
1921	 7.00634472628464E-02 
1922	 6.92077252866012E-02 
1923	 6.96653067870369E-02 
1924	 7.09206511957757E-02 
1925	 6.99574630920957E-02 
1926	 6.90734208052444E-02 
1927	 0.068525586073534 
1928	 6.70488943243443E-02 
1929	 6.38187257426659E-02 
1930	 0.063345207801959 
1931	 0.065708084523707 
1932	 6.61014923675892E-02 
1933	 6.51526837215731E-02 
1934	 6.43449516182341E-02 
1935	 6.24921460657782E-02 
1936	 6.17111366766644E-02 
1937	 6.18360279896836E-02 
1938	 6.13669360889173E-02 
1939	 6.12933931435427E-02 
1940	 6.01567644662859E-02 
1941	 5.92237054403788E-02 
1942	 6.01393795931611E-02 
1943	 6.08564860359382E-02 
1944	 6.06854021703423E-02 
1945	 6.10519273306134E-02 
1946	 5.98600185399324E-02 
1947	 5.93467999398739E-02 
1948	 5.93418728678923E-02 
1949	 5.93637338311279E-02 
1950	 5.95545308526214E-02 
1951	 5.91950143898751E-02 
1952	 5.87693129139679E-02 
1953	 5.80065514945207E-02 
1954	 5.65205737462536E-02 
1955	 5.61803616641975E-02 
1956	 5.70584570926622E-02 
1957	 5.70521432807055E-02 
1958	 5.72441630753704E-02 
1959	 5.80919601318343E-02 
1960	 5.84289250449446E-02 
1961	 5.83341755324672E-02 
1962	 5.83096937633866E-02 
1963	 5.82507357503262E-02 
1964	 5.78456657257636E-02 
1965	 5.75235419624595E-02 
1966	 5.75609002907251E-02 
1967	 5.79484396363991E-02 
1968	 5.76789746849763E-02 
1969	 5.75579225373231E-02 
1970	 0.057221829602953 
1971	 5.72839857066844E-02 
1972	 5.73869882055206E-02 
1973	 5.79176598504362E-02 
1974	 5.80897482926215E-02 
1975	 5.79762639853169E-02 
1976	 5.80306553743227E-02 
1977	 5.79250529459311E-02 
1978	 5.80535213875968E-02 
1979	 5.82025214014894E-02 
1980	 5.80937536909003E-02 
1981	 5.79921799819678E-02 
1982	 5.80280540809322E-02 
1983	 0.058129856194347 
1984	 5.83120802043106E-02 
1985	 0.058599782611076 
1986	 5.88220260059837E-02 
1987	 5.87785671423239E-02 
1988	 5.87145782505374E-02 
1989	 5.87560970569803E-02 
1990	 5.89438239058055E-02 
1991	 5.90830069544664E-02 
1992	 5.93191616577637E-02 
1993	 5.97918009773404E-02 
1994	 5.98841542686373E-02 
1995	 5.99857319195568E-02 
1996	 6.01518552909664E-02 
1997	 6.03354577951971E-02 
1998	 6.03778708402757E-02 
1999	 6.08723713133328E-02 
2000	 6.16847607192195E-02 
2001	 6.24900988108033E-02 
2002	 6.26314210867819E-02 
2003	 6.23371487991942E-02 
2004	 6.20373779052732E-02 
2005	 6.30158082582596E-02 
2006	 6.36394572110924E-02 
2007	 6.46951225933903E-02 
2008	 0.064995171981174 
2009	 6.54837967769389E-02 
2010	 0.064941686828008 
2011	 6.41047417114631E-02 
2012	 6.48023909689849E-02 
2013	 6.55505855860371E-02 
2014	 6.56759903667474E-02 
2015	 6.63819285009262E-02 
2016	 6.68601288038988E-02 
2017	 6.65679849891807E-02 
2018	 6.63075859325651E-02 
2019	 6.63470664919984E-02 
2020	 6.64263075295083E-02 
2021	 6.63998618320066E-02 
2022	 6.66181601549657E-02 
2023	 6.68972716918828E-02 
2024	 6.72226455696831E-02 
2025	 6.75593234771938E-02 
2026	 6.75248765413858E-02 
2027	 6.76710864547637E-02 
2028	 0.06757388896967 
2029	 6.73464167179571E-02 
2030	 6.77152477168772E-02 
2031	 6.78714624569926E-02 
2032	 6.79364322482503E-02 
2033	 6.80451325841267E-02 
2034	 6.80591295636275E-02 
2035	 0.067547643156161 
2036	 6.74910206597188E-02 
2037	 6.74699712461769E-02 
2038	 6.72132781063917E-02 
2039	 6.75800795978768E-02 
2040	 6.80977080098751E-02 
2041	 6.83647611950989E-02 
2042	 0.068673301923815 
2043	 6.87712908106575E-02 
2044	 6.85645897235326E-02 
2045	 6.85051355156016E-02 
2046	 0.068444190762582 
2047	 6.83396157998657E-02 
2048	 0.068547703432707 
2049	 6.89988032036961E-02 
2050	 6.89585957974788E-02 
2051	 6.93838012336081E-02 
2052	 6.98795809343659E-02 
2053	 6.98508203192902E-02 
2054	 6.99419021794331E-02 
2055	 7.00873242478683E-02 
2056	 7.01282283760775E-02 
2057	 7.01623501934426E-02 
2058	 7.06086096312501E-02 
2059	 7.08109900927607E-02 
2060	 7.10381928614557E-02 
2061	 7.08364869996041E-02 
2062	 7.10360818799669E-02 
2063	 7.09957349364251E-02 
2064	 7.08219942547615E-02 
2065	 7.10490525698459E-02 
2066	 7.12062773893828E-02 
2067	 7.14770192312277E-02 
2068	 7.18689713314148E-02 
2069	 7.22745947010659E-02 
2070	 7.24235373068147E-02 
2071	 7.25156055006699E-02 
2072	 7.25201979024725E-02 
2073	 7.23884631561922E-02 
2074	 7.23219592439169E-02 
2075	 7.26447519020624E-02 
2076	 7.26474932689073E-02 
2077	 7.28782325709757E-02 
2078	 7.33917146886824E-02 
2079	 7.33556905238743E-02 
2080	 7.33488347688387E-02 
2081	 7.34224448316131E-02 
2082	 7.32628849556464E-02 
2083	 7.30996680407687E-02 
2084	 7.34801329686071E-02 
2085	 7.39244693648332E-02 
2086	 7.42247679661482E-02 
2087	 7.44860831309484E-02 
2088	 7.49853827393937E-02 
2089	 7.46658798077645E-02 
2090	 7.44107865133899E-02 
2091	 7.47861170654326E-02 
2092	 7.50026572899462E-02 
2093	 7.55815965177917E-02 
2094	 7.58868297596927E-02 
2095	 7.56504018000395E-02 
2096	 7.58433029497644E-02 
2097	 7.60229681823017E-02 
2098	 7.60411877987964E-02 
2099	 7.62577079458305E-02 
2100	 7.62813250245784E-02 
2101	 0.076098869261417 
2102	 7.61742034263107E-02 
2103	 7.65761946725716E-02 
2104	 7.68852517621473E-02 
2105	 7.66956339956955E-02 
2106	 7.67716342078272E-02 
2107	 7.68289040765532E-02 
2108	 7.67982002984271E-02 
2109	 7.73607833865047E-02 
2110	 7.75506560724395E-02 
2111	 0.07749080344891 
2112	 7.78220651774865E-02 
2113	 7.76756772823487E-02 
2114	 7.77129933019296E-02 
2115	 7.81476766619601E-02 
2116	 7.81878243273439E-02 
2117	 7.84712748818323E-02 
2118	 0.079009836923189 
2119	 7.95320987798469E-02 
2120	 8.01088182980921E-02 
2121	 8.07942213129948E-02 
2122	 8.11028605151225E-02 
2123	 8.12104441790686E-02 
2124	 8.11691877598704E-02 
2125	 8.10882574852134E-02 
2126	 0.081021136165133 
2127	 8.07605150972913E-02 
2128	 8.06748450419684E-02 
2129	 8.05200826008271E-02 
2130	 8.04503775180092E-02 
2131	 8.09782652621235E-02 
2132	 8.15053158715902E-02 
2133	 8.18733325399738E-02 
2134	 8.21925610131584E-02 
2135	 8.25990919091494E-02 
2136	 0.082697931067208 
2137	 8.27147069126994E-02 
2138	 8.29297896686213E-02 
2139	 8.30236065193619E-02 
2140	 8.30317593627682E-02 
2141	 8.30237429543915E-02 
2142	 8.28383300675125E-02 
2143	 8.29311211214673E-02 
2144	 8.30607411639195E-02 
2145	 8.30948850135871E-02 
2146	 8.37192155134595E-02 
2147	 8.40752109591539E-02 
2148	 8.40330044917054E-02 
2149	 8.44062701734964E-02 
2150	 0.084563204733555 
2151	 8.47595692865544E-02 
2152	 8.51686471057469E-02 
2153	 8.54794493760355E-02 
2154	 8.58144293557779E-02 
2155	 8.58366282398858E-02 
2156	 8.56848396682192E-02 
2157	 8.53226269596485E-02 
2158	 8.50126921596954E-02 
2159	 8.48022603160371E-02 
2160	 8.51360332329009E-02 
2161	 8.58647590925851E-02 
2162	 8.62473404522635E-02 
2163	 8.66458932889282E-02 
2164	 8.69242694654985E-02 
2165	 8.69056002404388E-02 
2166	 8.69159969202908E-02 
2167	 8.68355888358245E-02 
2168	 8.66376598247543E-02 
2169	 8.58039484134901E-02 
2170	 8.56213299310279E-02 
2171	 8.56411873607626E-02 
2172	 8.60612620056747E-02 
2173	 8.64243882693904E-02 
2174	 8.72180833321272E-02 
2175	 8.78288305999322E-02 
2176	 8.76179786332058E-02 
2177	 8.75208546331317E-02 
2178	 8.75028000653477E-02 
2179	 8.76807375419519E-02 
2180	 8.82523899475534E-02 
2181	 8.84742849275983E-02 
2182	 8.85536550286088E-02 
2183	 8.84643154943017E-02 
2184	 8.83290346528234E-02 
2185	 8.85346624182321E-02 
2186	 8.87048353226121E-02 
2187	 8.87488755503193E-02 
2188	 8.85420093386847E-02 
2189	 8.85274088768122E-02 
2190	 8.84849111644651E-02 
2191	 8.86299331745456E-02 
2192	 8.90844967026002E-02 
2193	 8.94059723556866E-02 
2194	 0.089729639797968 
2195	 8.99200182334883E-02 
2196	 8.92777523202868E-02 
2197	 8.89152464018033E-02 
2198	 8.91733233681139E-02 
2199	 8.90566375233228E-02 
2200	 8.93057527242296E-02 
2201	 8.99554225216644E-02 
2202	 9.01916824138319E-02 
2203	 9.03864321444485E-02 
2204	 0.090482546493952 
2205	 9.02098148837161E-02 
2206	 8.98849331108722E-02 
2207	 8.96665702004628E-02 
2208	 8.95524515826793E-02 
2209	 8.98319728062532E-02 
2210	 8.97985074744836E-02 
2211	 8.95206330603371E-02 
2212	 8.95673342303199E-02 
2213	 0.089825962940355 
2214	 9.01995989974884E-02 
2215	 9.07973155626639E-02 
2216	 9.08494575571003E-02 
2217	 9.02717644468409E-02 
2218	 0.089845100071364 
2219	 8.94882182876504E-02 
2220	 8.96983229707399E-02 
2221	 9.04423159773801E-02 
2222	 9.07853739460721E-02 
2223	 9.06539848003663E-02 
2224	 9.05427212561226E-02 
2225	 9.04547901386482E-02 
2226	 9.01504709650964E-02 
2227	 9.02387024758667E-02 
2228	 9.00612970862796E-02 
2229	 8.96709840104492E-02 
2230	 8.98285789786648E-02 
2231	 8.98986738111485E-02 
2232	 9.03595280381467E-02 
2233	 9.03843563859225E-02 
2234	 9.02746368382452E-02 
2235	 8.98280406066005E-02 
2236	 8.90572945053852E-02 
2237	 8.79311573320647E-02 
2238	 8.72222188264398E-02 
2239	 8.63973616041598E-02 
2240	 8.60335569321351E-02 
2241	 8.62468942903442E-02 
2242	 8.60014894167541E-02 
2243	 8.61364643771214E-02 
2244	 8.62709244738631E-02 
2245	 0.085885916436415 
2246	 0.085832241235815 
2247	 8.60302262198136E-02 
2248	 8.56725876866717E-02 
2249	 8.52463236740346E-02 
2250	 8.50456512628015E-02 
2251	 8.45863933634223E-02 
2252	 8.44132668362136E-02 
2253	 0.084080829857301 
2254	 8.37652657328686E-02 
2255	 8.33949288476891E-02 
2256	 8.29976103951017E-02 
2257	 8.24355988659955E-02 
2258	 0.08253651579865 
2259	 8.22317115147749E-02 
2260	 8.20708473901714E-02 
2261	 8.21130930385031E-02 
2262	 8.20177547735512E-02 
2263	 8.24289771161844E-02 
2264	 0.082457031398081 
2265	 0.082019674141001 
2266	 8.18545217883745E-02 
2267	 8.15593665903857E-02 
2268	 8.06932012650119E-02 
2269	 8.02540164674274E-02 
2270	 7.95492824483964E-02 
2271	 7.86090460640992E-02 
2272	 7.87241952576982E-02 
2273	 7.88599029260112E-02 
2274	 7.90979957058732E-02 
2275	 0.079260543979667 
2276	 7.86968450565034E-02 
2277	 7.79282998499036E-02 
2278	 7.74010373313038E-02 
2279	 7.73063128217321E-02 
2280	 7.70547767353848E-02 
2281	 7.68023467867303E-02 
2282	 0.076331102605657 
2283	 7.52391128185857E-02 
2284	 7.48649016811771E-02 
2285	 7.50942652643885E-02 
2286	 7.53383725433535E-02 
2287	 7.59808629795189E-02 
2288	 7.68245288581351E-02 
2289	 7.67742447458811E-02 
2290	 7.66162854763344E-02 
2291	 7.65573711868825E-02 
2292	 7.61621754707278E-02 
2293	 7.61131860273971E-02 
2294	 7.59273739040906E-02 
2295	 7.52946758362175E-02 
2296	 7.48612653382365E-02 
2297	 7.47766208337265E-02 
2298	 7.47428638676711E-02 
2299	 7.49054438675256E-02 
2300	 0.074784340265393 
2301	 7.43757743471955E-02 
2302	 7.33615276526032E-02 
2303	 7.20585182923694E-02 
2304	 7.18674513959952E-02 
2305	 0.072089705094195 
2306	 7.27740066547335E-02 
2307	 7.31213325175559E-02 
2308	 7.29878950878271E-02 
2309	 7.27745713517538E-02 
2310	 7.19118741997754E-02 
2311	 7.17071587982659E-02 
2312	 0.071817452856 
2313	 7.17235441300655E-02 
2314	 7.21829229716423E-02 
2315	 7.32150491329427E-02 
2316	 7.39096772586925E-02 
2317	 7.38005560902534E-02 
2318	 7.40899563902173E-02 
2319	 0.074160219446247 
2320	 7.40402194569763E-02 
2321	 7.39845544403642E-02 
2322	 7.42925141043385E-02 
2323	 7.36874688222667E-02 
2324	 7.25180409435152E-02 
2325	 7.16927074476502E-02 
2326	 7.09650885555678E-02 
2327	 7.01392925392026E-02 
2328	 6.94273925445215E-02 
2329	 6.92457217374911E-02 
2330	 0.068401248820455 
2331	 6.84556426284185E-02 
2332	 6.97838431944885E-02 
2333	 0.069964364868416 
2334	 6.97126235944984E-02 
2335	 7.04454346059468E-02 
2336	 0.070977812668778 
2337	 7.11486167063081E-02 
2338	 0.07222559675568 
2339	 7.22132399172366E-02 
2340	 7.12110886271613E-02 
2341	 7.04772289101832E-02 
2342	 7.02251631648961E-02 
2343	 7.13139123891453E-02 
2344	 0.071563308232924 
2345	 7.20880377704368E-02 
2346	 7.31461350891723E-02 
2347	 0.072418006674498 
2348	 7.26408068929508E-02 
2349	 0.073041421306009 
2350	 7.14957851726207E-02 
2351	 7.09181016676126E-02 
2352	 6.93644582388516E-02 
2353	 6.77812188458167E-02 
2354	 6.91210781174339E-02 
2355	 6.90105662499211E-02 
2356	 6.89376803226454E-02 
2357	 7.00521419442353E-02 
2358	 6.99745975364618E-02 
2359	 6.96414928467417E-02 
2360	 0.070458891823266 
2361	 7.04489057419945E-02 
2362	 6.84341674737915E-02 
2363	 0.067189844126205 
2364	 6.57039379676908E-02 
2365	 6.41674122164024E-02 
2366	 6.56926526967088E-02 
2367	 6.79841514210323E-02 
2368	 0.068695123230365 
2369	 7.01576650469775E-02 
2370	 7.00075972529752E-02 
2371	 6.80321481277668E-02 
2372	 0.067362355466886 
2373	 6.67708934523792E-02 
2374	 6.70066026530218E-02 
2375	 6.98519429683112E-02 
2376	 6.94997285616748E-02 
2377	 6.77377139460242E-02 
2378	 0.066646043085605 
2379	 0.062359512578127 
2380	 6.09704882056719E-02 
2381	 6.28306526335475E-02 
2382	 6.35003464333608E-02 
2383	 6.43786522519757E-02 
2384	 6.56934581309755E-02 
2385	 6.71379769359476E-02 
2386	 6.76276251004533E-02 
2387	 6.84583685158307E-02 
2388	 6.83806801039752E-02 
2389	 0.066737549328938 
2390	 6.67748834990048E-02 
2391	 6.77265266192409E-02 
2392	 6.69291719367385E-02 
2393	 6.53805887168592E-02 
2394	 6.46368717769716E-02 
2395	 6.21128924048459E-02 
2396	 6.28268426508743E-02 
2397	 6.84419642957653E-02 
2398	 6.98498805009523E-02 
2399	 7.03795992100391E-02 
2400	 7.03087008942053E-02 
2401	 0.068401696572587 
2402	 6.38807478151229E-02 
2403	 6.27182684992993E-02 
2404	 6.26845481040371E-02 
2405	 6.07187891338986E-02 
2406	 6.31148305313178E-02 
2407	 6.58967217681616E-02 
2408	 6.65132586042546E-02 
2409	 6.92999130437552E-02 
2410	 6.94300011930054E-02 
2411	 6.81840149151422E-02 
2412	 6.69484422290903E-02 
2413	 6.42349311470743E-02 
2414	 6.35779006396573E-02 
2415	 6.02330751767611E-02 
2416	 5.49953579994003E-02 
2417	 5.36715101762807E-02 
2418	 5.19430713575937E-02 
2419	 5.21980276647423E-02 
2420	 5.71989241041227E-02 
2421	 0.061363578416941 
2422	 6.20641185420783E-02 
2423	 6.38933318362769E-02 
2424	 6.37657481396873E-02 
2425	 0.06089382055997 
2426	 6.11415505680668E-02 
2427	 5.94712062900019E-02 
2428	 6.04097370190939E-02 
2429	 0.064580994323009 
2430	 6.21832696202128E-02 
2431	 6.01924150989347E-02 
2432	 6.08324780664429E-02 
2433	 6.24673128786745E-02 
2434	 6.58134860535921E-02 
2435	 7.49113907137377E-02 
2436	 7.71978096440008E-02 
2437	 7.55645689878314E-02 
2438	 7.38163687329622E-02 
2439	 6.72139452546143E-02 
2440	 6.32826474005237E-02 
2441	 5.84272204379834E-02 
2442	 5.71128595511036E-02 
2443	 6.07817080894278E-02 
2444	 0.061866546448709 
2445	 6.31914116684629E-02 
2446	 6.50602259576597E-02 
2447	 6.77043455741862E-02 
2448	 6.66681457979337E-02 
2449	 6.65849037639089E-02 
2450	 0.063829135909839 
2451	 5.24235251858418E-02 
2452	 4.62224382249685E-02 
2453	 0.041121810110657 
2454	 4.01405506132489E-02 
2455	 4.27588932265907E-02 
2456	 4.51773650064409E-02 
2457	 0.050737598146057 
2458	 5.48966783214984E-02 
2459	 6.05883352494395E-02 
2460	 6.39569944972752E-02 
2461	 6.60272972397412E-02 
2462	 6.65766943908438E-02 
2463	 6.52769344443314E-02 
2464	 6.44366289886181E-02 
2465	 6.10252681164552E-02 
2466	 0.060817696773511 
2467	 6.46341390874975E-02 
2468	 6.03297409236504E-02 
2469	 0.051807154886155 
2470	 4.83607798016916E-02 
2471	 3.72805856436602E-02 
2472	 3.85009415708798E-02 
2473	 5.54654439613504E-02 
2474	 0.063594310438598 
2475	 7.44415258257141E-02 
2476	 7.90323591407658E-02 
2477	 8.05033798751448E-02 
2478	 7.17746795613024E-02 
2479	 4.84372244754907E-02 
2480	 3.69815954589051E-02 
2481	 1.41616636789541E-02 
2482	 9.56956091066698E-03 
2483	 2.44633676989226E-02 
2484	 4.89329759653666E-02 
2485	 0.10251705643867 
2486	 0.134157759429887 
2487	 0.155753295014376 
2488	 0.170298974052779 
2489	 0.145947683334115 
2490	 0.126283072577653 
2491	 0.133897297180474 
2492	 0.151384834962128 
2493	 0.128804005734714 
2494	 0.115072730838787 
2495	 9.65746460379134E-02 
2496	 8.43823843186183E-03 
2497	-2.26246733534889E-02 
2498	-5.52556809500267E-03 
2499	-6.40965091389992E-04 
2500	 4.57418878197985E-02 
