Wavelength	ref00130.asd
350	 0.314169105747751 
351	 0.318040196282518 
352	 0.314141533245831 
353	 0.30682212653365 
354	 0.305756744723191 
355	 0.313201771754002 
356	 0.321233290291324 
357	 0.30331078688121 
358	 0.312044876275882 
359	 0.318784451212823 
360	 0.292527106821186 
361	 0.303630411065986 
362	 0.294745694164949 
363	 0.27338079154746 
364	 0.284477575635593 
365	 0.271668907416394 
366	 0.261214219206775 
367	 0.265824196524911 
368	 0.266978754260271 
369	 0.263659985837298 
370	 0.260865796286159 
371	 0.262372602620579 
372	 0.264315328489321 
373	 0.259078369372852 
374	 0.254380016745914 
375	 0.260786292591693 
376	 0.250205264183245 
377	 0.241064485956957 
378	 0.243159881028235 
379	 0.251373235589606 
380	 0.238602210558495 
381	 0.226127512982529 
382	 0.231458378957744 
383	 0.236729228314284 
384	 0.233656888926103 
385	 0.22644340918259 
386	 0.224067712311156 
387	 0.22195304772136 
388	 0.223870406138946 
389	 0.227901144359893 
390	 0.226964523273678 
391	 0.225545885913427 
392	 0.220479526979062 
393	 0.212043843314917 
394	 0.211296470810749 
395	 0.214671587777281 
396	 0.215957428192825 
397	 0.210769874822581 
398	 0.20711140725379 
399	 0.205816337933394 
400	 0.206086283965252 
401	 0.206059463109406 
402	 0.200864805900181 
403	 0.196985022810546 
404	 0.197549759029499 
405	 0.195416135155341 
406	 0.19781513894086 
407	 0.199335404327051 
408	 0.193552180372104 
409	 0.189794384875577 
410	 0.18928179553697 
411	 0.190924509383952 
412	 0.19214519649256 
413	 0.193860041060273 
414	 0.191872493319743 
415	 0.186509644444575 
416	 0.188708523463595 
417	 0.189463553410396 
418	 0.187994463783928 
419	 0.186551091460772 
420	 0.188180568915233 
421	 0.18911061830108 
422	 0.189675106677793 
423	 0.193297340342636 
424	 0.191038294946516 
425	 0.187758793819418 
426	 0.187420847510141 
427	 0.187319952741924 
428	 0.187459049477656 
429	 0.187572404710267 
430	 0.187645116644687 
431	 0.188979601455175 
432	 0.189636332663345 
433	 0.189475313512796 
434	 0.189859436721953 
435	 0.189347573530234 
436	 0.188240633162116 
437	 0.187203710109186 
438	 0.18715661078479 
439	 0.186881402329728 
440	 0.186415763167462 
441	 0.186194544524503 
442	 0.186122858162339 
443	 0.186729559964774 
444	 0.18745867304965 
445	 0.186924293544606 
446	 0.188637455059731 
447	 0.189420089433046 
448	 0.187637493082667 
449	 0.188061905869938 
450	 0.188577855566452 
451	 0.188736616174905 
452	 0.188642641104838 
453	 0.187347277654067 
454	 0.187631055555213 
455	 0.189177078893987 
456	 0.187972607253245 
457	 0.187690671248384 
458	 0.187418110645359 
459	 0.186124579542866 
460	 0.185330883652259 
461	 0.185358003162861 
462	 0.185352801511082 
463	 0.184173639446594 
464	 0.184206757606703 
465	 0.184327273235086 
466	 0.183765101078614 
467	 0.182815561993753 
468	 0.181583145180812 
469	 0.180993157547168 
470	 0.181480149923204 
471	 0.180995488444967 
472	 0.180354045469216 
473	 0.180425161233586 
474	 0.181719276465033 
475	 0.180884181033238 
476	 0.179567561047859 
477	 0.178912340970876 
478	 0.177717025597318 
479	 0.178058347921216 
480	 0.178780168106286 
481	 0.178137891863828 
482	 0.177308298828694 
483	 0.176599247128534 
484	 0.176431993057823 
485	 0.1772326573288 
486	 0.176860961286761 
487	 0.176097974241975 
488	 0.175913729039202 
489	 0.176180226923113 
490	 0.176564256231146 
491	 0.176803174222129 
492	 0.176799162306284 
493	 0.177029650979811 
494	 0.177859471863435 
495	 0.179134081645197 
496	 0.180114337738137 
497	 0.180698024532214 
498	 0.18160785974178 
499	 0.183400749135891 
500	 0.185462632400884 
501	 0.187390879911048 
502	 0.189417333704667 
503	 0.192101749180265 
504	 0.194840485207639 
505	 0.197531362338868 
506	 0.200470945314198 
507	 0.204533157699505 
508	 0.208708562838499 
509	 0.213068130418737 
510	 0.217842795596192 
511	 0.222189503205713 
512	 0.228057123859312 
513	 0.234955372417385 
514	 0.240512324478065 
515	 0.246257038924229 
516	 0.252889257747588 
517	 0.260590084758869 
518	 0.268817019861272 
519	 0.276585474118132 
520	 0.283817349064507 
521	 0.290922638666749 
522	 0.298021537557236 
523	 0.305608937135741 
524	 0.313409874684669 
525	 0.320180529235622 
526	 0.327155875598107 
527	 0.334403808024737 
528	 0.341643343874424 
529	 0.348355165373055 
530	 0.354670064869323 
531	 0.360014857781638 
532	 0.363819942722719 
533	 0.368654739685005 
534	 0.373416791899567 
535	 0.377130879534019 
536	 0.379672450445478 
537	 0.38302196234393 
538	 0.386487466501498 
539	 0.388774887637526 
540	 0.389751606192388 
541	 0.391460508772817 
542	 0.393592696511273 
543	 0.394044816337907 
544	 0.39620779308504 
545	 0.398117554857513 
546	 0.398508163265884 
547	 0.39958421137452 
548	 0.401155004399981 
549	 0.402495579867648 
550	 0.402809997120063 
551	 0.402819127806897 
552	 0.402473418853564 
553	 0.401723754299582 
554	 0.400585617765016 
555	 0.399105813828622 
556	 0.397191760872819 
557	 0.394677164430021 
558	 0.39124586685344 
559	 0.388102738298753 
560	 0.384822242733563 
561	 0.380197413533423 
562	 0.376959409073848 
563	 0.372640127424299 
564	 0.366482502795602 
565	 0.36182496209797 
566	 0.357056179788141 
567	 0.352165388764024 
568	 0.34735211826819 
569	 0.341509119788301 
570	 0.335725460160706 
571	 0.330421073964577 
572	 0.325276439558521 
573	 0.320515513228537 
574	 0.315866061203317 
575	 0.311193930253948 
576	 0.307047958765511 
577	 0.302745525490788 
578	 0.298497908030653 
579	 0.294871898251769 
580	 0.291818993647569 
581	 0.28864311305409 
582	 0.285388303616331 
583	 0.283124234314433 
584	 0.280257758216934 
585	 0.277444544628272 
586	 0.27542343341933 
587	 0.272936075998834 
588	 0.270253026901315 
589	 0.267576795545018 
590	 0.265110784500351 
591	 0.26302874944588 
592	 0.261318361195945 
593	 0.259743774803188 
594	 0.257821485769053 
595	 0.256479592916711 
596	 0.255479420209682 
597	 0.254255894583534 
598	 0.252813800771106 
599	 0.251515790761455 
600	 0.250520552117793 
601	 0.24972625160934 
602	 0.247973226836513 
603	 0.24607007069605 
604	 0.244604368554294 
605	 0.242484983703722 
606	 0.240136061028931 
607	 0.237770128016163 
608	 0.235491762163926 
609	 0.233282936277895 
610	 0.230738201425069 
611	 0.227905056813809 
612	 0.225471031932808 
613	 0.223012284365882 
614	 0.220493029577162 
615	 0.217862335369305 
616	 0.214433857603726 
617	 0.2122206243024 
618	 0.210589911153113 
619	 0.207381719794993 
620	 0.206001627411321 
621	 0.205263310495091 
622	 0.204048901712768 
623	 0.202524168082143 
624	 0.201132233594921 
625	 0.200003076607072 
626	 0.199101754462056 
627	 0.198256425634179 
628	 0.197579469409578 
629	 0.19703123803765 
630	 0.19643847277915 
631	 0.196272794767506 
632	 0.195347434174552 
633	 0.193296219985999 
634	 0.192658617064034 
635	 0.191060420588624 
636	 0.188894574027161 
637	 0.18748297233477 
638	 0.185309970638834 
639	 0.182524239956718 
640	 0.179692263226778 
641	 0.177785697919981 
642	 0.174990253457106 
643	 0.171750784200822 
644	 0.168838179552895 
645	 0.166219457679793 
646	 0.163494212123317 
647	 0.160638748249991 
648	 0.157953012675327 
649	 0.156153585854178 
650	 0.154622881267958 
651	 0.152983401929342 
652	 0.151428296480775 
653	 0.15011539660571 
654	 0.148917411209439 
655	 0.14755820974745 
656	 0.145730675000006 
657	 0.143752714644306 
658	 0.141699268152316 
659	 0.139224415073934 
660	 0.138014822528567 
661	 0.136561179475565 
662	 0.134001024240836 
663	 0.131313895371013 
664	 0.129259027994384 
665	 0.127351148037276 
666	 0.124971432528426 
667	 0.123549386213904 
668	 0.121800838225227 
669	 0.119977129267207 
670	 0.119616999924554 
671	 0.118203961805222 
672	 0.116988980082002 
673	 0.116801335999868 
674	 0.11578823038779 
675	 0.115521879468509 
676	 0.115718516760498 
677	 0.11562683794243 
678	 0.116276821456935 
679	 0.116421285699617 
680	 0.116349866152714 
681	 0.117953668055971 
682	 0.119790710650261 
683	 0.121848360118082 
684	 0.124372404845445 
685	 0.127526260023766 
686	 0.131614744333214 
687	 0.137219177662717 
688	 0.144258352377142 
689	 0.151324801553951 
690	 0.159267392740355 
691	 0.168682609913015 
692	 0.179196462542219 
693	 0.191318532224995 
694	 0.204250706414189 
695	 0.217678609724232 
696	 0.233429720381758 
697	 0.250068863258798 
698	 0.267157758871999 
699	 0.284572362813434 
700	 0.302341190422469 
701	 0.320027353269877 
702	 0.337752602729188 
703	 0.356329025423572 
704	 0.374689151240874 
705	 0.393184661853383 
706	 0.412126204948549 
707	 0.430397995644121 
708	 0.448593837720664 
709	 0.466876587241902 
710	 0.48518137119859 
711	 0.504509174648819 
712	 0.523794727907504 
713	 0.542921751542773 
714	 0.563039396741123 
715	 0.581764245323477 
716	 0.599371495567177 
717	 0.617142824813862 
718	 0.635364767680442 
719	 0.655629135178876 
720	 0.678305195864715 
721	 0.702349678496579 
722	 0.724535450003566 
723	 0.744827792487416 
724	 0.764660910905806 
725	 0.784607632254517 
726	 0.805446907667752 
727	 0.826504609138109 
728	 0.84741695125436 
729	 0.867598131587007 
730	 0.887558190315379 
731	 0.907428988566974 
732	 0.927285265201818 
733	 0.946961130684524 
734	 0.965103254069174 
735	 0.981680560024523 
736	 0.997491017593831 
737	 1.01306464153334 
738	 1.0276351539253 
739	 1.04098854386258 
740	 1.05387587951692 
741	 1.06682993611164 
742	 1.07868629033984 
743	 1.08825585188034 
744	 1.09747928770386 
745	 1.10598567148993 
746	 1.11373338652992 
747	 1.1209423118996 
748	 1.12746640245518 
749	 1.13302580578619 
750	 1.13769997153342 
751	 1.14217323516367 
752	 1.14603753965264 
753	 1.14967449011501 
754	 1.15318205776151 
755	 1.15483026657282 
756	 1.15679403509918 
757	 1.15929445596068 
758	 1.16137541651062 
759	 1.16278218060592 
760	 1.1620105619841 
761	 1.15905753065974 
762	 1.15973166182766 
763	 1.16004058665637 
764	 1.15890606454288 
765	 1.15731503647782 
766	 1.15886018727834 
767	 1.15951878277959 
768	 1.15928681939646 
769	 1.15904257722436 
770	 1.1582514989053 
771	 1.15722193930121 
772	 1.15633539960078 
773	 1.1558484917133 
774	 1.154011354132 
775	 1.15254774754317 
776	 1.15208836066351 
777	 1.1505699421211 
778	 1.14866222459709 
779	 1.14720737355845 
780	 1.14659660418503 
781	 1.14544181858989 
782	 1.1443125206397 
783	 1.1431566262448 
784	 1.141626846142 
785	 1.13974090338348 
786	 1.13810632049841 
787	 1.13655120909536 
788	 1.13412572071697 
789	 1.13171253944446 
790	 1.13004383652139 
791	 1.12910283629464 
792	 1.12742365275264 
793	 1.12641919657433 
794	 1.12561315982832 
795	 1.12413274102777 
796	 1.12193155606777 
797	 1.12078460362051 
798	 1.12004242550227 
799	 1.11799280889981 
800	 1.11678645375339 
801	 1.11518092356421 
802	 1.11313869165904 
803	 1.11220513479424 
804	 1.11129849786849 
805	 1.11033063041374 
806	 1.1094065189101 
807	 1.10870143803561 
808	 1.10688518152447 
809	 1.10455309847322 
810	 1.10250784776392 
811	 1.09979376601058 
812	 1.09603150298712 
813	 1.09171480191224 
814	 1.0877419211222 
815	 1.08335879813482 
816	 1.08004021824469 
817	 1.07832308480014 
818	 1.07745535231112 
819	 1.07788941848554 
820	 1.07955159039632 
821	 1.08065736401812 
822	 1.07674060652711 
823	 1.07426731590144 
824	 1.07442831943865 
825	 1.07604230819268 
826	 1.07634716526964 
827	 1.07505165320903 
828	 1.07288368187777 
829	 1.0710549957201 
830	 1.06984699743329 
831	 1.06934034509005 
832	 1.06909690942766 
833	 1.06846334838657 
834	 1.06801870879098 
835	 1.0681337771516 
836	 1.06852436762785 
837	 1.06825677819006 
838	 1.06817797646223 
839	 1.06761987064062 
840	 1.06635308580837 
841	 1.06550401842288 
842	 1.06514017770439 
843	 1.06463461200566 
844	 1.06358646400911 
845	 1.06310845248558 
846	 1.06239009625871 
847	 1.06127677813289 
848	 1.05991247396103 
849	 1.05823037783148 
850	 1.05685645820776 
851	 1.05625701139327 
852	 1.05640338464369 
853	 1.05504819008452 
854	 1.05300609689156 
855	 1.05150120610161 
856	 1.0515568428033 
857	 1.05191648321293 
858	 1.05077510142611 
859	 1.04830203202191 
860	 1.04766461652123 
861	 1.04649660080755 
862	 1.04631249086185 
863	 1.04755406922404 
864	 1.0456897561349 
865	 1.0429415832881 
866	 1.04123133682759 
867	 1.04140768893281 
868	 1.0406309805683 
869	 1.03984317791133 
870	 1.03911642930302 
871	 1.03813853635708 
872	 1.03689976864166 
873	 1.03599022299849 
874	 1.03496723555852 
875	 1.03303577237673 
876	 1.03251990748417 
877	 1.03243659821104 
878	 1.03162611938433 
879	 1.02940902525764 
880	 1.02816328108582 
881	 1.02691121976452 
882	 1.02544557400266 
883	 1.02513561912429 
884	 1.02360803174464 
885	 1.0219265523018 
886	 1.02106590596464 
887	 1.02055344042641 
888	 1.01877083941102 
889	 1.01725089133582 
890	 1.01685637718803 
891	 1.0147450901387 
892	 1.01167278318933 
893	 1.0080694367075 
894	 1.00426080273848 
895	 1.00025553041093 
896	 0.997267035319877 
897	 0.994144192202236 
898	 0.989623845069029 
899	 0.986444775185174 
900	 0.986291053938199 
901	 0.987794601818084 
902	 0.988497368383816 
903	 0.989930447999183 
904	 0.990000688330414 
905	 0.988733523325324 
906	 0.987210961359238 
907	 0.983424924155504 
908	 0.978670731363604 
909	 0.975316287410785 
910	 0.975387718333763 
911	 0.974146774605141 
912	 0.972957292461702 
913	 0.971343086077042 
914	 0.967287893435644 
915	 0.967269676462945 
916	 0.967335212502802 
917	 0.966567959163013 
918	 0.968478664437845 
919	 0.968689805337021 
920	 0.968701859561862 
921	 0.968445506495161 
922	 0.965204255822279 
923	 0.965216051664007 
924	 0.963877249844559 
925	 0.959674789429304 
926	 0.958520645093546 
927	 0.953984788731865 
928	 0.947230724199109 
929	 0.93954215903021 
930	 0.92947344130736 
931	 0.920367990412054 
932	 0.910199218487899 
933	 0.899227989977618 
934	 0.894990228459906 
935	 0.894686904116613 
936	 0.8958784016016 
937	 0.897761892839631 
938	 0.902722160106282 
939	 0.903829323648822 
940	 0.903525261157708 
941	 0.903191675616258 
942	 0.897990708402389 
943	 0.895282263046299 
944	 0.893170037752055 
945	 0.889086207987423 
946	 0.884427950833501 
947	 0.883086586206888 
948	 0.880321688574849 
949	 0.874866109758909 
950	 0.876767812964151 
951	 0.876551050851002 
952	 0.873100796499338 
953	 0.867848223889712 
954	 0.86237558657107 
955	 0.863299745181109 
956	 0.863840590263245 
957	 0.859626244751059 
958	 0.857830339854056 
959	 0.855522567358293 
960	 0.855795346881859 
961	 0.859133017273793 
962	 0.859351594456344 
963	 0.860161576486357 
964	 0.860076473108695 
965	 0.859055062311735 
966	 0.860969254796461 
967	 0.866979043895278 
968	 0.86688214710457 
969	 0.859777317249025 
970	 0.861381669657277 
971	 0.862799421568571 
972	 0.860287111148412 
973	 0.856176013741056 
974	 0.858831873648313 
975	 0.856938940811246 
976	 0.85411405217829 
977	 0.854964043340143 
978	 0.860530937805045 
979	 0.860931766755911 
980	 0.86069699473705 
981	 0.861807289174519 
982	 0.860875559368693 
983	 0.856389481190799 
984	 0.857180185738063 
985	 0.861779968328381 
986	 0.860254304998997 
987	 0.863522392374445 
988	 0.864229358406596 
989	 0.862854055511949 
990	 0.865444700752306 
991	 0.864135899102808 
992	 0.861570476601253 
993	 0.863907859347945 
994	 0.873709454375325 
995	 0.869031976948487 
996	 0.864763195094169 
997	 0.867154686401412 
998	 0.873666950041782 
999	 0.871886125530309 
1000	 0.867663723608533 
1001	 0.871491430767621 
1002	 0.872261196296427 
1003	 0.872943901823545 
1004	 0.873731150907753 
1005	 0.874488415945172 
1006	 0.875761924278923 
1007	 0.876411034009191 
1008	 0.876630050215094 
1009	 0.87696696237951 
1010	 0.87723952983045 
1011	 0.877247980811951 
1012	 0.877290650426429 
1013	 0.877936920115089 
1014	 0.878804441967269 
1015	 0.879544992626612 
1016	 0.880318279938277 
1017	 0.88070793003646 
1018	 0.881279122979592 
1019	 0.881883329500446 
1020	 0.882416749342942 
1021	 0.882896886006507 
1022	 0.883485785397463 
1023	 0.88415958115684 
1024	 0.884388626625383 
1025	 0.884936524485461 
1026	 0.885632678386407 
1027	 0.886019764794573 
1028	 0.887059486246794 
1029	 0.88770938605137 
1030	 0.888023607253435 
1031	 0.888800573674416 
1032	 0.888780781225862 
1033	 0.889101134469334 
1034	 0.889861030076421 
1035	 0.890332757294264 
1036	 0.890323774973275 
1037	 0.890776005535449 
1038	 0.891516975483609 
1039	 0.891863939323688 
1040	 0.891924526176645 
1041	 0.892662574641214 
1042	 0.89315997704901 
1043	 0.893519509877543 
1044	 0.89431029698978 
1045	 0.894973219809923 
1046	 0.894959877919629 
1047	 0.894519280540006 
1048	 0.894378783620443 
1049	 0.894895375871595 
1050	 0.895235551644391 
1051	 0.895899254133577 
1052	 0.896236050341998 
1053	 0.896587395159941 
1054	 0.896643527510997 
1055	 0.896537651979185 
1056	 0.896939333115173 
1057	 0.896759706125748 
1058	 0.896146288045386 
1059	 0.896068925538581 
1060	 0.895610848568767 
1061	 0.895497846158734 
1062	 0.895334396378581 
1063	 0.894639096916762 
1064	 0.89466353374223 
1065	 0.894178097109039 
1066	 0.893445087879406 
1067	 0.892692834423188 
1068	 0.892228302569131 
1069	 0.89133040035876 
1070	 0.890973709635078 
1071	 0.890958208219016 
1072	 0.890548488723018 
1073	 0.889802543905149 
1074	 0.889047526600022 
1075	 0.887987433945423 
1076	 0.886840453973569 
1077	 0.886091423009787 
1078	 0.885139247359721 
1079	 0.884232536785249 
1080	 0.883514545428388 
1081	 0.882374044067978 
1082	 0.880816200006321 
1083	 0.879264164443492 
1084	 0.878407124944285 
1085	 0.877720687706682 
1086	 0.876977389111331 
1087	 0.876420563893322 
1088	 0.875128343320549 
1089	 0.872950263915639 
1090	 0.871053233274503 
1091	 0.869245554205653 
1092	 0.867383804948247 
1093	 0.86574677703971 
1094	 0.863872090441056 
1095	 0.862179276225411 
1096	 0.860619523174619 
1097	 0.859372670336829 
1098	 0.857503278886667 
1099	 0.855556327266717 
1100	 0.85340017479338 
1101	 0.850989313316136 
1102	 0.849087721733182 
1103	 0.847021734430627 
1104	 0.844637677743145 
1105	 0.842153381992127 
1106	 0.839386827007749 
1107	 0.836877351606324 
1108	 0.83425256802958 
1109	 0.831327901512269 
1110	 0.827907909704727 
1111	 0.824173172962172 
1112	 0.819673077017981 
1113	 0.815536417418595 
1114	 0.811079574942962 
1115	 0.80643281591797 
1116	 0.801833113018071 
1117	 0.796751230017658 
1118	 0.79120895520173 
1119	 0.784839085030781 
1120	 0.778199889120431 
1121	 0.772771221705998 
1122	 0.768091543979214 
1123	 0.764156065537135 
1124	 0.760862215620423 
1125	 0.757512397281156 
1126	 0.755033354757812 
1127	 0.75344468984708 
1128	 0.751374420880087 
1129	 0.750220833916134 
1130	 0.748492552008898 
1131	 0.746328378046177 
1132	 0.74412776248493 
1133	 0.742083214542491 
1134	 0.739845831726091 
1135	 0.73701753039691 
1136	 0.734237749788187 
1137	 0.731416900239921 
1138	 0.72810476051379 
1139	 0.7248216701754 
1140	 0.720802808341004 
1141	 0.715799365186486 
1142	 0.710930220866004 
1143	 0.705832803576323 
1144	 0.699846091526653 
1145	 0.694591689318679 
1146	 0.689335637638552 
1147	 0.684769031873927 
1148	 0.680511172081821 
1149	 0.677026869610897 
1150	 0.674463803104663 
1151	 0.672048560089055 
1152	 0.669864504152428 
1153	 0.668646120111749 
1154	 0.667828602501848 
1155	 0.667110359415772 
1156	 0.666612278732902 
1157	 0.666203647056924 
1158	 0.665688810622736 
1159	 0.665407813936135 
1160	 0.665182790468037 
1161	 0.665027177610899 
1162	 0.665057287891204 
1163	 0.665457041966825 
1164	 0.665338099076048 
1165	 0.665255385379587 
1166	 0.664977596580073 
1167	 0.664062126789688 
1168	 0.663619072470385 
1169	 0.663434812854875 
1170	 0.663185896630962 
1171	 0.662809620468234 
1172	 0.662309403384858 
1173	 0.661592160277723 
1174	 0.660964910914799 
1175	 0.660517730164655 
1176	 0.659926366535186 
1177	 0.659106295535249 
1178	 0.658005583392337 
1179	 0.65710832757007 
1180	 0.656032669899427 
1181	 0.655186525526358 
1182	 0.654616503830828 
1183	 0.653880464003444 
1184	 0.653061216589297 
1185	 0.652363242064169 
1186	 0.65175323125175 
1187	 0.651079844387898 
1188	 0.650415418021794 
1189	 0.649813838189952 
1190	 0.649088159624876 
1191	 0.648300942192611 
1192	 0.648117535310372 
1193	 0.648026116074683 
1194	 0.64772419651993 
1195	 0.647704080615163 
1196	 0.647274062186685 
1197	 0.646272168734933 
1198	 0.645795145167621 
1199	 0.645401568547496 
1200	 0.645120805887753 
1201	 0.645119020392205 
1202	 0.645049013371409 
1203	 0.645086313376909 
1204	 0.644973820132128 
1205	 0.644657188610851 
1206	 0.644628445881938 
1207	 0.644623411027857 
1208	 0.644732081509598 
1209	 0.64511916102236 
1210	 0.645465216874099 
1211	 0.645897268585384 
1212	 0.646223973372698 
1213	 0.646662614861096 
1214	 0.647074496948979 
1215	 0.647892100180346 
1216	 0.648949733188781 
1217	 0.649893610435296 
1218	 0.651210693693951 
1219	 0.652155951938063 
1220	 0.652688708905513 
1221	 0.653570562968609 
1222	 0.654681746773432 
1223	 0.655558193662626 
1224	 0.656456721382443 
1225	 0.657323267208613 
1226	 0.657936417406821 
1227	 0.658679909823737 
1228	 0.659593044954217 
1229	 0.66037068077795 
1230	 0.661101057466987 
1231	 0.662061789614657 
1232	 0.662883008447401 
1233	 0.663716619865612 
1234	 0.664512082625886 
1235	 0.665307042558501 
1236	 0.665977950740224 
1237	 0.666604772497563 
1238	 0.667152877344308 
1239	 0.667580588897466 
1240	 0.668013152492059 
1241	 0.668414277154506 
1242	 0.668791225104736 
1243	 0.669134565844256 
1244	 0.669439022509671 
1245	 0.669614777591218 
1246	 0.669924387375534 
1247	 0.670331045621203 
1248	 0.670655732763208 
1249	 0.671111635455543 
1250	 0.671407285517085 
1251	 0.671520920125644 
1252	 0.671531227378317 
1253	 0.671848121067805 
1254	 0.672331081493092 
1255	 0.672548818525421 
1256	 0.672898933883543 
1257	 0.673039257094267 
1258	 0.672800252016883 
1259	 0.672805843331622 
1260	 0.672944539992992 
1261	 0.672988953706388 
1262	 0.673063563445625 
1263	 0.67299465318371 
1264	 0.672706560255528 
1265	 0.672660197426732 
1266	 0.672731387266622 
1267	 0.672638515158692 
1268	 0.672670158956336 
1269	 0.672586374190588 
1270	 0.672204087835333 
1271	 0.67194947781736 
1272	 0.671778585008374 
1273	 0.671712786617306 
1274	 0.671252699742191 
1275	 0.670677652992129 
1276	 0.670004136473856 
1277	 0.668941791770664 
1278	 0.668271233735552 
1279	 0.667836955572086 
1280	 0.667084836973079 
1281	 0.666403085715995 
1282	 0.665455346494985 
1283	 0.664186510665344 
1284	 0.662986290860522 
1285	 0.661784873804051 
1286	 0.660427580113351 
1287	 0.658949215137933 
1288	 0.657428742802145 
1289	 0.655752619021712 
1290	 0.654104882104799 
1291	 0.652492706199969 
1292	 0.650752390936285 
1293	 0.64897605443443 
1294	 0.647065006264416 
1295	 0.645128246774908 
1296	 0.642854552076771 
1297	 0.640607265499286 
1298	 0.63823574542661 
1299	 0.635816809041351 
1300	 0.633223064325332 
1301	 0.630785596295437 
1302	 0.628460276292891 
1303	 0.625793665264808 
1304	 0.62304230855097 
1305	 0.620206959214748 
1306	 0.61695264438195 
1307	 0.614020388442486 
1308	 0.611431294056008 
1309	 0.608400182739425 
1310	 0.605083248675872 
1311	 0.601969345806501 
1312	 0.598812229655675 
1313	 0.595510336073783 
1314	 0.592359930750995 
1315	 0.589059418032562 
1316	 0.585397994825949 
1317	 0.581861145834556 
1318	 0.578569010217405 
1319	 0.574979912556931 
1320	 0.571146014438915 
1321	 0.567268643005448 
1322	 0.563360860603958 
1323	 0.559150327124795 
1324	 0.555200567868941 
1325	 0.551400878764763 
1326	 0.547281455550005 
1327	 0.543045726106393 
1328	 0.538632673046795 
1329	 0.533785390347375 
1330	 0.529250248593984 
1331	 0.524778655598506 
1332	 0.520310012928984 
1333	 0.515941498863267 
1334	 0.511753850343641 
1335	 0.50754251966287 
1336	 0.503682181372671 
1337	 0.500109125907914 
1338	 0.496608914394076 
1339	 0.493264376514966 
1340	 0.489841850497822 
1341	 0.486246694744134 
1342	 0.482585959594142 
1343	 0.478181274436788 
1344	 0.474081129670795 
1345	 0.469783317645978 
1346	 0.465146431494499 
1347	 0.460572763566094 
1348	 0.455282606077022 
1349	 0.449171077297988 
1350	 0.441161791547311 
1351	 0.433775311748393 
1352	 0.42592830111834 
1353	 0.417947810482621 
1354	 0.414871047662958 
1355	 0.406683999213817 
1356	 0.40090134314018 
1357	 0.390175708595819 
1358	 0.377052402625251 
1359	 0.357939578090277 
1360	 0.345374270316348 
1361	 0.319838321807697 
1362	 0.296767690407271 
1363	 0.275922025538465 
1364	 0.285863727536864 
1365	 0.279835176845213 
1366	 0.29219901352311 
1367	 0.294354451073514 
1368	 0.289447290139242 
1369	 0.283293525906503 
1370	 0.279536938614276 
1371	 0.273547265512058 
1372	 0.254005776163947 
1373	 0.252964276610303 
1374	 0.268201326107702 
1375	 0.270117586849188 
1376	 0.265480236113747 
1377	 0.273848736655782 
1378	 0.265801892475839 
1379	 0.237063268219505 
1380	 0.233516389058561 
1381	 0.240575775678625 
1382	 0.235187132445883 
1383	 0.237870023382429 
1384	 0.230137938131239 
1385	 0.20918116258376 
1386	 0.19847477283329 
1387	 0.19033040599795 
1388	 0.185627242477615 
1389	 0.181956383877125 
1390	 0.182210495204217 
1391	 0.189964588275226 
1392	 0.188514489259635 
1393	 0.184854077352555 
1394	 0.181457650823241 
1395	 0.173618301533769 
1396	 0.168264819256054 
1397	 0.164537692716272 
1398	 0.160851006403273 
1399	 0.154838838828367 
1400	 0.152707151499253 
1401	 0.157400707317993 
1402	 0.155098402053195 
1403	 0.149148263949644 
1404	 0.146095860788743 
1405	 0.142609393275688 
1406	 0.136871629306782 
1407	 0.134211235217892 
1408	 0.132964105304398 
1409	 0.128194943930621 
1410	 0.124493431491567 
1411	 0.124154351299775 
1412	 0.126475490950722 
1413	 0.12561923253433 
1414	 0.125076187247711 
1415	 0.124692705180755 
1416	 0.123058551892231 
1417	 0.12182216277293 
1418	 0.121862610467519 
1419	 0.120885132104803 
1420	 0.117788466684459 
1421	 0.11787563707321 
1422	 0.120279944269086 
1423	 0.120158719746716 
1424	 0.119993839857304 
1425	 0.119715993487555 
1426	 0.117906174517275 
1427	 0.117119738288381 
1428	 0.117691454986065 
1429	 0.117228325782103 
1430	 0.115545276197011 
1431	 0.115086597984196 
1432	 0.115428557700129 
1433	 0.114931083067912 
1434	 0.1146589794529 
1435	 0.114193981031749 
1436	 0.112363402664573 
1437	 0.111864153369913 
1438	 0.112526127346405 
1439	 0.112700644276677 
1440	 0.113490132190563 
1441	 0.113572629930673 
1442	 0.1125794711157 
1443	 0.112465646006454 
1444	 0.112531517710812 
1445	 0.112408265303894 
1446	 0.112747691250359 
1447	 0.113584085422314 
1448	 0.113936547847714 
1449	 0.114032460344923 
1450	 0.114482957966149 
1451	 0.115048685763411 
1452	 0.115316039898058 
1453	 0.115654554459648 
1454	 0.115923715720091 
1455	 0.115956543393602 
1456	 0.11612251128273 
1457	 0.116456784414135 
1458	 0.116652544827082 
1459	 0.116639486557997 
1460	 0.116914226341781 
1461	 0.11741287032906 
1462	 0.117697463680879 
1463	 0.11809505904096 
1464	 0.118401273774449 
1465	 0.118378926259674 
1466	 0.11867524570799 
1467	 0.119100567860409 
1468	 0.119651373269736 
1469	 0.120450813830802 
1470	 0.121164807883514 
1471	 0.122045903351082 
1472	 0.122620504656969 
1473	 0.122596391870958 
1474	 0.123261252873638 
1475	 0.124025000129274 
1476	 0.124999734525887 
1477	 0.126559097176054 
1478	 0.127897354210225 
1479	 0.129124573780688 
1480	 0.130366958610247 
1481	 0.131538508217053 
1482	 0.132857838354037 
1483	 0.13427320805897 
1484	 0.13562058349959 
1485	 0.136918019729194 
1486	 0.138320235649019 
1487	 0.139634935025653 
1488	 0.141070112238635 
1489	 0.142591559686074 
1490	 0.144145617731911 
1491	 0.145812140473301 
1492	 0.147154312218998 
1493	 0.148540688529145 
1494	 0.149957062634505 
1495	 0.15122192887105 
1496	 0.152362592581354 
1497	 0.153641776486723 
1498	 0.154837253020116 
1499	 0.156334275993121 
1500	 0.158115261489633 
1501	 0.159617669483419 
1502	 0.161255560056278 
1503	 0.162628275577651 
1504	 0.163644893076583 
1505	 0.165001874691937 
1506	 0.166464946961537 
1507	 0.16782240198448 
1508	 0.169213179060922 
1509	 0.170638094016469 
1510	 0.172077817502595 
1511	 0.173372749266109 
1512	 0.17465994700815 
1513	 0.175974369489048 
1514	 0.177043155384424 
1515	 0.178429506150483 
1516	 0.180148392526311 
1517	 0.181657614141046 
1518	 0.183237575194168 
1519	 0.184676317005626 
1520	 0.185904072236301 
1521	 0.187312981475126 
1522	 0.188878813363458 
1523	 0.190204754030142 
1524	 0.191363692949549 
1525	 0.192765335876103 
1526	 0.194201362385524 
1527	 0.195524525688249 
1528	 0.197072498883004 
1529	 0.198420710234317 
1530	 0.199283687408725 
1531	 0.20060405040878 
1532	 0.202402139799413 
1533	 0.203755276009592 
1534	 0.20502921446874 
1535	 0.206325831902143 
1536	 0.207214872010247 
1537	 0.208411371662384 
1538	 0.210023275361911 
1539	 0.21136386796809 
1540	 0.212615431313123 
1541	 0.213869472434568 
1542	 0.214948747351519 
1543	 0.216152582227031 
1544	 0.21747926863326 
1545	 0.218745291184177 
1546	 0.219999859164726 
1547	 0.221285550727759 
1548	 0.222669460839083 
1549	 0.22388108645096 
1550	 0.224990078587413 
1551	 0.226146895672036 
1552	 0.2270879096802 
1553	 0.228219095149555 
1554	 0.229709933292808 
1555	 0.230907176502412 
1556	 0.231902036195725 
1557	 0.233037397778983 
1558	 0.234140891412523 
1559	 0.23515956624217 
1560	 0.236221478830074 
1561	 0.237328798732022 
1562	 0.238185314892609 
1563	 0.239289998374898 
1564	 0.240688549013673 
1565	 0.242200886895218 
1566	 0.243180906186483 
1567	 0.24422858662907 
1568	 0.245234827888888 
1569	 0.24586087402175 
1570	 0.246993434478121 
1571	 0.248541180314553 
1572	 0.249630871214728 
1573	 0.250627971181639 
1574	 0.251687753672973 
1575	 0.252591745224637 
1576	 0.253557637342905 
1577	 0.254585370552795 
1578	 0.255651867540077 
1579	 0.256664886569551 
1580	 0.257659618057283 
1581	 0.258763548836599 
1582	 0.25976249993292 
1583	 0.260616915967493 
1584	 0.261551010828458 
1585	 0.26260887440021 
1586	 0.263420270387101 
1587	 0.264071567021039 
1588	 0.264839231991159 
1589	 0.265522085915093 
1590	 0.266314445011164 
1591	 0.267185848828713 
1592	 0.268095550360889 
1593	 0.269129400855866 
1594	 0.269886968246312 
1595	 0.270486661124379 
1596	 0.271426586382414 
1597	 0.272299730958868 
1598	 0.273323765417558 
1599	 0.274853562254788 
1600	 0.275776600844862 
1601	 0.276398408644827 
1602	 0.277069800186755 
1603	 0.277457844421099 
1604	 0.278194453009693 
1605	 0.279039035357031 
1606	 0.279889139535319 
1607	 0.280960420861525 
1608	 0.281771107169975 
1609	 0.282429415529722 
1610	 0.283184963988421 
1611	 0.283922020493712 
1612	 0.284607282543176 
1613	 0.285349581647583 
1614	 0.285897351286592 
1615	 0.286164175700313 
1616	 0.286824845844022 
1617	 0.287683169045804 
1618	 0.288285251215657 
1619	 0.288980515525678 
1620	 0.289569995744659 
1621	 0.289749094947185 
1622	 0.29047038031801 
1623	 0.291705591765087 
1624	 0.292303691562862 
1625	 0.292735882566613 
1626	 0.29332334558113 
1627	 0.293674018705041 
1628	 0.294093693543697 
1629	 0.294772389810907 
1630	 0.295258671311989 
1631	 0.295448514117863 
1632	 0.295824506848103 
1633	 0.29635402323987 
1634	 0.296870350232285 
1635	 0.297287223214276 
1636	 0.297895608477923 
1637	 0.298802574692445 
1638	 0.299265216385675 
1639	 0.299574597026927 
1640	 0.299940101731954 
1641	 0.300050865607356 
1642	 0.300371821311334 
1643	 0.30096847751871 
1644	 0.301154952862059 
1645	 0.301084785747857 
1646	 0.301266983060161 
1647	 0.301393078903155 
1648	 0.301512951043081 
1649	 0.301814222832198 
1650	 0.30193615139896 
1651	 0.301845863736353 
1652	 0.301919532644754 
1653	 0.302196560651271 
1654	 0.301995088536666 
1655	 0.301493076743332 
1656	 0.301343508963449 
1657	 0.301052401752613 
1658	 0.301178226944023 
1659	 0.301276291230849 
1660	 0.301025998129153 
1661	 0.300628731764037 
1662	 0.300293399827965 
1663	 0.300326018858496 
1664	 0.300541875876447 
1665	 0.300479895887743 
1666	 0.300215056189498 
1667	 0.299832177150215 
1668	 0.29968689510707 
1669	 0.300118501149383 
1670	 0.300600391961279 
1671	 0.300819267003795 
1672	 0.300665869121244 
1673	 0.300293280625789 
1674	 0.300411800056393 
1675	 0.300678057450951 
1676	 0.301028945628597 
1677	 0.301796984806086 
1678	 0.301848805942098 
1679	 0.301552974529909 
1680	 0.301485840309988 
1681	 0.300957419656717 
1682	 0.300691560779553 
1683	 0.30085333245493 
1684	 0.30086168419973 
1685	 0.300712626499944 
1686	 0.300824209617652 
1687	 0.300879586706862 
1688	 0.300428270603107 
1689	 0.300409709365188 
1690	 0.29958605230818 
1691	 0.299035520545833 
1692	 0.298859571011527 
1693	 0.298277550953305 
1694	 0.297505504240182 
1695	 0.29703935827034 
1696	 0.296224852547706 
1697	 0.295755008518602 
1698	 0.296034812558937 
1699	 0.29566736768754 
1700	 0.295127584619732 
1701	 0.294618589294143 
1702	 0.293555515470964 
1703	 0.292895958527176 
1704	 0.292620445007541 
1705	 0.292025271089663 
1706	 0.291534425998759 
1707	 0.290735107619563 
1708	 0.289385394024495 
1709	 0.288698768682711 
1710	 0.288289310963351 
1711	 0.287578157125239 
1712	 0.287161489898584 
1713	 0.286428188414668 
1714	 0.285189999952693 
1715	 0.28436637975403 
1716	 0.283713796795744 
1717	 0.283020801453601 
1718	 0.282384264300401 
1719	 0.281722917382285 
1720	 0.281102008114882 
1721	 0.280456760123393 
1722	 0.280032063742636 
1723	 0.279065921341238 
1724	 0.277537003008659 
1725	 0.276744663539151 
1726	 0.275865500383051 
1727	 0.275212364614362 
1728	 0.275283193041859 
1729	 0.274839358235026 
1730	 0.274213611272083 
1731	 0.273468462558502 
1732	 0.272879448869224 
1733	 0.272418733990078 
1734	 0.271124170200953 
1735	 0.270352963304613 
1736	 0.269798418816567 
1737	 0.268955172283898 
1738	 0.268578470816241 
1739	 0.26821973302009 
1740	 0.267821285011557 
1741	 0.267781991893109 
1742	 0.2675843592147 
1743	 0.266946786602424 
1744	 0.266062803048748 
1745	 0.264760228295656 
1746	 0.263481861506867 
1747	 0.262566323545983 
1748	 0.262112027021068 
1749	 0.261702309492372 
1750	 0.261143091415778 
1751	 0.260778632458638 
1752	 0.259911864243788 
1753	 0.258946316250933 
1754	 0.258230382763671 
1755	 0.257115035404054 
1756	 0.256016968336145 
1757	 0.255535841513595 
1758	 0.254862283140299 
1759	 0.254522139858561 
1760	 0.254011060946126 
1761	 0.25314620240629 
1762	 0.252423084483878 
1763	 0.25154203866754 
1764	 0.250772580341938 
1765	 0.250478134280978 
1766	 0.249639226474082 
1767	 0.248682615101625 
1768	 0.247743831900209 
1769	 0.24591881483132 
1770	 0.245044367628109 
1771	 0.244700200782679 
1772	 0.244174450082194 
1773	 0.244393525476452 
1774	 0.24369170717862 
1775	 0.243043357224256 
1776	 0.241704710606727 
1777	 0.240135788181587 
1778	 0.239830787361268 
1779	 0.239541757270598 
1780	 0.239256795694337 
1781	 0.238826824908977 
1782	 0.238484537021166 
1783	 0.238569515231965 
1784	 0.238042383074381 
1785	 0.23785768363861 
1786	 0.237813842579369 
1787	 0.236654099817344 
1788	 0.236343009942768 
1789	 0.237222922562858 
1790	 0.236371424291637 
1791	 0.23568547380183 
1792	 0.236002132289533 
1793	 0.235118845766718 
1794	 0.23513901687687 
1795	 0.235011026166256 
1796	 0.234213829886385 
1797	 0.234114990523748 
1798	 0.233345228662944 
1799	 0.232116628158247 
1800	 0.230443749178184 
1801	 0.214857009801395 
1802	 0.209690162807864 
1803	 0.209139194483987 
1804	 0.212490379256025 
1805	 0.213434539562131 
1806	 0.217656517956314 
1807	 0.219184481145185 
1808	 0.217630701645853 
1809	 0.216744418166492 
1810	 0.213821435495818 
1811	 0.20848453025859 
1812	 0.205593569127107 
1813	 0.201510023246746 
1814	 0.197659206429155 
1815	 0.19660223294908 
1816	 0.193891306853903 
1817	 0.186297426713656 
1818	 0.18282215277582 
1819	 0.181550374649253 
1820	 0.18617376831125 
1821	 0.185616234489411 
1822	 0.183524097094187 
1823	 0.186236211174774 
1824	 0.190098490848159 
1825	 0.192753321082652 
1826	 0.209177481393501 
1827	 0.215067513868958 
1828	 0.214396589736741 
1829	 0.195887700223174 
1830	 0.183589069289595 
1831	 0.150876286220612 
1832	 0.131833839222637 
1833	 0.11524980229209 
1834	 0.109247323717025 
1835	 0.1595375376395 
1836	 0.18445912258441 
1837	 0.201862257953364 
1838	 0.232129778283369 
1839	 0.265357346112624 
1840	 0.317562625826849 
1841	 0.318655053378996 
1842	 0.323144402196923 
1843	 0.281209546407786 
1844	 0.134767551812141 
1845	 0.100673536943694 
1846	 7.54870123433149E-02 
1847	 8.11750482491804E-02 
1848	 0.119049716554013 
1849	 0.251258889784804 
1850	 0.276673995243455 
1851	 0.291074477652442 
1852	 0.273777957243321 
1853	 0.174217863950992 
1854	 0.13278691358614 
1855	 0.120169942184814 
1856	 9.50116003035467E-02 
1857	 7.32979862369926E-02 
1858	 4.79773075595347E-02 
1859	 5.73806791819849E-02 
1860	 8.61313348388581E-02 
1861	 7.65422543492844E-02 
1862	 7.46149445592073E-02 
1863	 7.92685504655424E-02 
1864	 3.04764133943336E-02 
1865	 3.03583490821283E-02 
1866	 0.106391163646786 
1867	 0.16291208121779 
1868	 0.127561933687964 
1869	 0.121060657223539 
1870	 0.141485430412247 
1871	 0.162724948588238 
1872	 0.143939077371394 
1873	 0.153400911899701 
1874	 0.146132901041609 
1875	 4.59853073186326E-02 
1876	 3.90374857523605E-02 
1877	 0.086480274492054 
1878	 0.13373469661149 
1879	 0.120334644987305 
1880	 0.142639107848689 
1881	 0.13724704284427 
1882	 9.30492997421738E-02 
1883	 8.65741724943743E-02 
1884	 0.102966568186959 
1885	 0.10073239473418 
1886	 0.104478297906092 
1887	 9.20527413561161E-02 
1888	 7.39269934373742E-02 
1889	 5.94501325427187E-02 
1890	 4.93888774813446E-02 
1891	 4.50843686795603E-02 
1892	 4.40971966926826E-02 
1893	 4.83425592332831E-02 
1894	 4.30508428203693E-02 
1895	 3.56305224270174E-02 
1896	 1.98316891673473E-02 
1897	-2.51235011582079E-02 
1898	-4.89033859276607E-02 
1899	-5.95816489822161E-02 
1900	-1.82131834081103E-02 
1901	 3.09717187549164E-04 
1902	 6.50117383402282E-02 
1903	 8.43459805323744E-02 
1904	 9.23964193622844E-03 
1905	 2.62365109443233E-03 
1906	-3.67812199040886E-03 
1907	 0.101973730966703 
1908	 9.94071763916981E-02 
1909	 9.06762333749487E-02 
1910	 0.063489342444764 
1911	 7.8585760402693E-03 
1912	-4.50104033621263E-04 
1913	 1.00462836887254E-02 
1914	 1.89344557599061E-02 
1915	 3.26695772023001E-02 
1916	 4.11294644636643E-02 
1917	 4.94898891010443E-02 
1918	 6.17396883405109E-02 
1919	 5.09170792400998E-02 
1920	 0.040123226659954 
1921	 4.71069206763736E-02 
1922	 4.44696246030804E-02 
1923	 4.79107780800912E-02 
1924	 7.10028916895986E-02 
1925	 7.39152689653579E-02 
1926	 0.067636274317688 
1927	 6.07217815351753E-02 
1928	 0.050779294039476 
1929	 3.19580743764172E-02 
1930	 0.020706787470472 
1931	 2.59769859691164E-02 
1932	 4.64553730479246E-02 
1933	 5.85094921627541E-02 
1934	 6.03922448874728E-02 
1935	 5.85515345445968E-02 
1936	 0.056992029944486 
1937	 4.67220478971045E-02 
1938	 4.45647968756753E-02 
1939	 4.93411878050052E-02 
1940	 4.78671371782094E-02 
1941	 0.042628102867247 
1942	 0.042917558730387 
1943	 4.34174216981738E-02 
1944	 3.86181218874688E-02 
1945	 0.04150130711188 
1946	 4.32687721917627E-02 
1947	 4.36656642358438E-02 
1948	 4.57085760153803E-02 
1949	 0.047491215386716 
1950	 4.75145465975358E-02 
1951	 4.75643610524022E-02 
1952	 4.96193113683924E-02 
1953	 0.046658356206458 
1954	 4.68036399372343E-02 
1955	 4.93148007996296E-02 
1956	 5.17538243027073E-02 
1957	 5.56779297600182E-02 
1958	 0.055517241507453 
1959	 5.13250349841036E-02 
1960	 5.02349922256495E-02 
1961	 4.81083030344858E-02 
1962	 4.77164758394319E-02 
1963	 4.89489964183065E-02 
1964	 5.06464851621092E-02 
1965	 5.19147225695401E-02 
1966	 5.13343373931578E-02 
1967	 5.28965245937027E-02 
1968	 5.48980428002003E-02 
1969	 5.58198694240689E-02 
1970	 5.76222925163222E-02 
1971	 5.81457416359537E-02 
1972	 5.75408752744459E-02 
1973	 5.61036339038422E-02 
1974	 5.76593869805004E-02 
1975	 5.71748499798565E-02 
1976	 0.056821380563721 
1977	 5.78372018900439E-02 
1978	 5.63082612352029E-02 
1979	 0.055814056327518 
1980	 5.76006068884607E-02 
1981	 5.88321616273298E-02 
1982	 0.059380302123628 
1983	 6.04678046303946E-02 
1984	 0.059736142721316 
1985	 5.79135612990857E-02 
1986	 5.73575580867971E-02 
1987	 5.78950588150809E-02 
1988	 5.91785535945687E-02 
1989	 5.89808614024842E-02 
1990	 5.91417398451002E-02 
1991	 6.10602192388616E-02 
1992	 6.13260324419215E-02 
1993	 6.30740140195045E-02 
1994	 6.47894502157307E-02 
1995	 6.41644052698785E-02 
1996	 5.91090271544757E-02 
1997	 5.66218877930174E-02 
1998	 5.60008381768367E-02 
1999	 5.53327109226693E-02 
2000	 5.95755673576435E-02 
2001	 6.40964738717999E-02 
2002	 6.37502655427992E-02 
2003	 6.34248635080067E-02 
2004	 0.064018738437587 
2005	 6.16329867726265E-02 
2006	 6.13784567399971E-02 
2007	 6.26837358648167E-02 
2008	 6.66951993309149E-02 
2009	 6.84471720367122E-02 
2010	 6.98326572226162E-02 
2011	 7.27095997810507E-02 
2012	 7.37016668066367E-02 
2013	 7.28326706887228E-02 
2014	 7.31488232551015E-02 
2015	 7.26494430469713E-02 
2016	 7.06500466252991E-02 
2017	 6.90948227101643E-02 
2018	 6.84194090298249E-02 
2019	 6.89038738172529E-02 
2020	 7.02435920518067E-02 
2021	 7.22245779102355E-02 
2022	 7.34719928232168E-02 
2023	 7.47698151263226E-02 
2024	 7.59404750653582E-02 
2025	 7.53073443247446E-02 
2026	 7.55462955174753E-02 
2027	 7.66825914833205E-02 
2028	 7.63747211460622E-02 
2029	 7.68936040509065E-02 
2030	 7.76734729398994E-02 
2031	 7.73436031543377E-02 
2032	 7.77534417861754E-02 
2033	 7.85777816988335E-02 
2034	 7.95675084164061E-02 
2035	 7.99800160999936E-02 
2036	 8.02861667325208E-02 
2037	 8.04783329987058E-02 
2038	 8.08811439181538E-02 
2039	 8.14343554762218E-02 
2040	 8.25067126213075E-02 
2041	 8.28599857443728E-02 
2042	 8.19708060250247E-02 
2043	 8.18657675501599E-02 
2044	 8.21239205364717E-02 
2045	 8.26507684480846E-02 
2046	 8.36275711175874E-02 
2047	 8.58203747763409E-02 
2048	 0.087204863173526 
2049	 8.74770825596422E-02 
2050	 0.087683626207773 
2051	 8.73520292829644E-02 
2052	 8.67054610316854E-02 
2053	 8.72858021742528E-02 
2054	 8.78284010029882E-02 
2055	 8.75830295922636E-02 
2056	 8.82480233367507E-02 
2057	 8.92275844035032E-02 
2058	 9.03082336888963E-02 
2059	 9.07845609628206E-02 
2060	 9.14925637358679E-02 
2061	 9.13984517225492E-02 
2062	 9.11399117509055E-02 
2063	 9.02705088178594E-02 
2064	 9.06797822614943E-02 
2065	 9.15450934787215E-02 
2066	 9.19677788268856E-02 
2067	 9.43548497133385E-02 
2068	 0.09524135075884 
2069	 9.54425538988448E-02 
2070	 0.097005140563861 
2071	 9.63281631720488E-02 
2072	 9.58376679351479E-02 
2073	 9.50627276613212E-02 
2074	 9.59275862407095E-02 
2075	 9.59557073498242E-02 
2076	 9.58824668011328E-02 
2077	 0.096971675565102 
2078	 9.80772663481072E-02 
2079	 9.86005977896032E-02 
2080	 9.96339993357912E-02 
2081	 0.100930430093848 
2082	 0.100883431702409 
2083	 0.100813004440708 
2084	 0.101901780889645 
2085	 0.103402473215401 
2086	 0.104855731532155 
2087	 0.105487520634968 
2088	 0.105818331224962 
2089	 0.105609083325971 
2090	 0.105138805809482 
2091	 0.105081875315081 
2092	 0.105736771104688 
2093	 0.106187117406506 
2094	 0.10649162834567 
2095	 0.106200418974344 
2096	 0.105817737365658 
2097	 0.105284718734085 
2098	 0.105451627175581 
2099	 0.106949463999208 
2100	 0.108373679938461 
2101	 0.109826266885025 
2102	 0.110498210921835 
2103	 0.11033378422772 
2104	 0.109674055915424 
2105	 0.109922654026797 
2106	 0.110448601149523 
2107	 0.111508963340805 
2108	 0.112368601450605 
2109	 0.112528637845212 
2110	 0.113221523034108 
2111	 0.114093984838417 
2112	 0.115051998854003 
2113	 0.11603994972734 
2114	 0.115730328030389 
2115	 0.115983587860755 
2116	 0.116137735679858 
2117	 0.115961082620184 
2118	 0.116007728650809 
2119	 0.116170659316838 
2120	 0.115905379757805 
2121	 0.115599361697254 
2122	 0.116024377292343 
2123	 0.116556938395371 
2124	 0.117036119034768 
2125	 0.117469140525703 
2126	 0.118572169810582 
2127	 0.11888977031513 
2128	 0.118264334576679 
2129	 0.118124276592305 
2130	 0.117353411116408 
2131	 0.116255569692247 
2132	 0.116804430583762 
2133	 0.117755755786967 
2134	 0.118350555725698 
2135	 0.119039103167606 
2136	 0.119978592297057 
2137	 0.121241721881626 
2138	 0.121884150554358 
2139	 0.120158154087993 
2140	 0.119566654169989 
2141	 0.119097171781918 
2142	 0.116988563035187 
2143	 0.118728621386162 
2144	 0.121019451205514 
2145	 0.121507938145351 
2146	 0.123443768511872 
2147	 0.124567320826893 
2148	 0.12446160151318 
2149	 0.124313712675548 
2150	 0.123873722369525 
2151	 0.123194641470451 
2152	 0.121334378426637 
2153	 0.121077332559315 
2154	 0.121565024429687 
2155	 0.121851634867828 
2156	 0.122209065828398 
2157	 0.123999085877003 
2158	 0.125661406174462 
2159	 0.126117109159479 
2160	 0.127767887496785 
2161	 0.129247157449795 
2162	 0.12832501638156 
2163	 0.127495928806934 
2164	 0.128437823811324 
2165	 0.129308322200419 
2166	 0.12898986191891 
2167	 0.130122487703944 
2168	 0.131222698624114 
2169	 0.131122581964726 
2170	 0.131252552246147 
2171	 0.132272980937414 
2172	 0.133632461376771 
2173	 0.133198988457027 
2174	 0.132502931707971 
2175	 0.133698662611788 
2176	 0.135239159705659 
2177	 0.135373300926454 
2178	 0.135861530647426 
2179	 0.136149068433026 
2180	 0.134337954566705 
2181	 0.132226453025953 
2182	 0.132432514707625 
2183	 0.132850848358492 
2184	 0.132656821138126 
2185	 0.133700384210265 
2186	 0.13549249493253 
2187	 0.136509763495094 
2188	 0.137068878969645 
2189	 0.137091548795226 
2190	 0.136783878050139 
2191	 0.136322688147006 
2192	 0.135812610035834 
2193	 0.137259322299437 
2194	 0.139664287800231 
2195	 0.139158414974563 
2196	 0.137525333037808 
2197	 0.135945402127401 
2198	 0.135079761457204 
2199	 0.136429930843751 
2200	 0.137979172785121 
2201	 0.140887016652491 
2202	 0.143128253589359 
2203	 0.143018775950293 
2204	 0.142473140569832 
2205	 0.140882908129459 
2206	 0.139019191742066 
2207	 0.139352339182225 
2208	 0.140321966398064 
2209	 0.143805457207395 
2210	 0.144549459716095 
2211	 0.144859140792298 
2212	 0.144834423415025 
2213	 0.143623678245532 
2214	 0.142170914213052 
2215	 0.141310817946398 
2216	 0.141192357880856 
2217	 0.139885428446113 
2218	 0.140548637646218 
2219	 0.142906021440136 
2220	 0.143500549710781 
2221	 0.143708826710991 
2222	 0.142481635219068 
2223	 0.140727341738023 
2224	 0.13926648918869 
2225	 0.137798772314316 
2226	 0.138875155964383 
2227	 0.140954081298702 
2228	 0.142091277541011 
2229	 0.142329500345836 
2230	 0.142940151781908 
2231	 0.14276780915536 
2232	 0.140478409797891 
2233	 0.139289755089876 
2234	 0.139273806335192 
2235	 0.137040699801325 
2236	 0.133743731444395 
2237	 0.133822018898709 
2238	 0.13430391214273 
2239	 0.134529646983174 
2240	 0.135075508734558 
2241	 0.13454277703484 
2242	 0.132293787018531 
2243	 0.131593653758639 
2244	 0.133188033742592 
2245	 0.132905609701457 
2246	 0.133201295047083 
2247	 0.134448625220789 
2248	 0.134170548790216 
2249	 0.1347654759858 
2250	 0.134190049761603 
2251	 0.133087075972786 
2252	 0.132343480436293 
2253	 0.129828820068138 
2254	 0.129498678035546 
2255	 0.128975520628603 
2256	 0.128831799941767 
2257	 0.128302216702062 
2258	 0.132165518848083 
2259	 0.13377598253226 
2260	 0.132268058741673 
2261	 0.130720214825363 
2262	 0.126502529104822 
2263	 0.123262641191278 
2264	 0.124132232837274 
2265	 0.124904987849364 
2266	 0.12473149045543 
2267	 0.124225923162034 
2268	 0.12359609515941 
2269	 0.122932118588321 
2270	 0.123079485270319 
2271	 0.124956296422509 
2272	 0.12644676681137 
2273	 0.127290344959023 
2274	 0.127532801962181 
2275	 0.126443831376628 
2276	 0.125253190746895 
2277	 0.12631304841789 
2278	 0.126490766736738 
2279	 0.12537595619365 
2280	 0.122934287721331 
2281	 0.118077677921281 
2282	 0.117545652494567 
2283	 0.119784596346891 
2284	 0.121754502192185 
2285	 0.124767552697406 
2286	 0.126070991736119 
2287	 0.126068876302583 
2288	 0.123144377383098 
2289	 0.118633754140411 
2290	 0.115111097690974 
2291	 0.112112285724503 
2292	 0.110305501047529 
2293	 0.112610952176635 
2294	 0.1131125375245 
2295	 0.112217116023412 
2296	 0.11223171182622 
2297	 0.110019111198292 
2298	 0.111632454716849 
2299	 0.112878985701071 
2300	 0.110754044576786 
2301	 0.111299192606197 
2302	 0.109046853011134 
2303	 0.106848458737898 
2304	 0.108823948866126 
2305	 0.108090379681827 
2306	 0.105741922605064 
2307	 0.104757786622829 
2308	 0.10400915691007 
2309	 0.104697800088574 
2310	 0.105136621305976 
2311	 0.102842655441934 
2312	 9.91754300269415E-02 
2313	 9.65941286671161E-02 
2314	 9.69974287839578E-02 
2315	 0.100295886038049 
2316	 0.105368308495725 
2317	 0.105729998426007 
2318	 0.102673240682228 
2319	 0.102530055381525 
2320	 9.95264865280853E-02 
2321	 9.76815193825227E-02 
2322	 0.100598607937331 
2323	 9.98816477110122E-02 
2324	 0.095818800612779 
2325	 9.30576245737332E-02 
2326	 9.78323277551047E-02 
2327	 0.102615948769841 
2328	 0.108400060305809 
2329	 0.115449000131618 
2330	 0.113406680835134 
2331	 0.105163948032721 
2332	 0.102056049287968 
2333	 0.100626097953925 
2334	 9.84768432579357E-02 
2335	 9.75973995471966E-02 
2336	 9.48111180554004E-02 
2337	 9.27529177884897E-02 
2338	 9.08442723037954E-02 
2339	 8.79830300669968E-02 
2340	 8.91461607288964E-02 
2341	 8.68149222187766E-02 
2342	 8.42824309374549E-02 
2343	 9.01460145226736E-02 
2344	 9.09064952955976E-02 
2345	 8.84145496607822E-02 
2346	 9.00277970136409E-02 
2347	 8.71497404674205E-02 
2348	 8.59000272377378E-02 
2349	 8.95001798612734E-02 
2350	 9.20514687571468E-02 
2351	 9.17516038972854E-02 
2352	 8.75450817927609E-02 
2353	 8.68460202776241E-02 
2354	 8.34262128289412E-02 
2355	 7.88774618368834E-02 
2356	 7.99644952606515E-02 
2357	 7.81698137014688E-02 
2358	 7.90701926133128E-02 
2359	 0.079874393065374 
2360	 7.83593593522176E-02 
2361	 7.96531021690367E-02 
2362	 8.14339953844649E-02 
2363	 8.42829579637113E-02 
2364	 0.083780775653344 
2365	 8.27727478651115E-02 
2366	 8.11163087559253E-02 
2367	 0.075676871509704 
2368	 7.29914940899288E-02 
2369	 7.49086405058041E-02 
2370	 0.077481707573989 
2371	 7.86336817004882E-02 
2372	 8.02199270344207E-02 
2373	 8.27555019721997E-02 
2374	 8.37810503157005E-02 
2375	 8.51043641864829E-02 
2376	 0.088712569840729 
2377	 9.66350416870255E-02 
2378	 0.098008079712269 
2379	 9.20750465082437E-02 
2380	 8.91793108838342E-02 
2381	 8.65422103609633E-02 
2382	 8.06094695353002E-02 
2383	 7.79059369654793E-02 
2384	 7.29471101537582E-02 
2385	 5.60636348956362E-02 
2386	 5.16505018873189E-02 
2387	 5.29200430428618E-02 
2388	 5.53096072476233E-02 
2389	 6.77625357525857E-02 
2390	 7.09309786295725E-02 
2391	 7.52870617043783E-02 
2392	 7.16510698012444E-02 
2393	 5.46800019570907E-02 
2394	 0.050722560774987 
2395	 4.37053906677941E-02 
2396	 4.75018862431931E-02 
2397	 7.04013162300979E-02 
2398	 7.97313235831742E-02 
2399	 9.06422756623472E-02 
2400	 9.27362928612041E-02 
2401	 8.57675209491262E-02 
2402	 7.21899412690572E-02 
2403	 6.09375693166436E-02 
2404	 6.14262307781044E-02 
2405	 5.93170282309437E-02 
2406	 5.83069413103519E-02 
2407	 6.03623656130399E-02 
2408	 5.09657351454372E-02 
2409	 4.15978526341147E-02 
2410	 3.77161231943664E-02 
2411	 3.91329764271377E-02 
2412	 4.98985744609553E-02 
2413	 6.26151968400175E-02 
2414	 6.91287393821075E-02 
2415	 5.46240689343131E-02 
2416	 3.83167449090598E-02 
2417	 2.82896037046879E-02 
2418	 1.60437419582245E-02 
2419	 2.44520793094548E-02 
2420	 2.60417745611397E-02 
2421	 2.68922177540282E-02 
2422	 3.78403669306186E-02 
2423	 3.03359754323721E-02 
2424	 3.07846757087519E-02 
2425	 3.73771882683082E-02 
2426	 3.01379114193406E-02 
2427	 3.79835439381932E-02 
2428	 5.56864490424692E-02 
2429	 5.65028086316965E-02 
2430	 6.13035805433007E-02 
2431	 7.00570390464283E-02 
2432	 6.03457681411068E-02 
2433	 4.70300019311881E-02 
2434	 4.14014946892774E-02 
2435	 3.68484685240137E-02 
2436	 0.026838266502639 
2437	 9.1338889216904E-03 
2438	-1.08175492840969E-03 
2439	-1.08854881741291E-02 
2440	-1.09511684263577E-02 
2441	 8.53940392695856E-03 
2442	 2.44845282596724E-02 
2443	 3.98568816231174E-02 
2444	 4.91975911133404E-02 
2445	 5.29369621301628E-02 
2446	 6.18517605172583E-02 
2447	 7.96184572522631E-02 
2448	 8.36498181865245E-02 
2449	 8.89831841611413E-02 
2450	 7.57599343879804E-02 
2451	 3.38168229217162E-02 
2452	 4.28049426446152E-03 
2453	-4.81098470534992E-02 
2454	-5.24111830430663E-02 
2455	-2.23039661116558E-02 
2456	-1.05593661888529E-02 
2457	 2.38326979033862E-02 
2458	 4.73121637096979E-02 
2459	 0.064059506135095 
2460	 6.46206885166385E-02 
2461	 5.27672954880024E-02 
2462	 4.83964112626809E-02 
2463	 0.038604224161715 
2464	 1.65352098567476E-02 
2465	-1.13035360328144E-02 
2466	-1.92579792279886E-02 
2467	-5.39301509401067E-02 
2468	-7.05753914498607E-02 
2469	-2.60668931382187E-02 
2470	-1.73643349823447E-02 
2471	-2.59205952883408E-02 
2472	-0.034877794299058 
2473	-5.33297679543994E-02 
2474	-6.24858802624434E-02 
2475	-0.10111210080632 
2476	-0.11068817279887 
2477	-9.78162190175258E-02 
2478	-0.06432742856013 
2479	 1.64847299599555E-02 
2480	 6.26100078349665E-02 
2481	 0.141703477293034 
2482	 0.148815991898517 
2483	 6.16274583759131E-02 
2484	 4.44546139283545E-02 
2485	-8.52276546481038E-03 
2486	-7.29233845274751E-02 
2487	-0.019503354303443 
2488	-0.150981729066451 
2489	-0.24172397181179 
2490	-0.23679255881669 
2491	-0.266324125356692 
2492	-5.87636054655526E-02 
2493	 6.82030337940836E-02 
2494	 0.121079121979879 
2495	-2.04235834870833E-02 
2496	-0.179006955896681 
2497	-0.270020748380067 
2498	-0.314800322932389 
2499	-0.252548896324881 
2500	-0.198170752173506 
