Wavelength	ref00115.asd
350	 2.09019315947831 
351	 2.08439727498022 
352	 2.12738232985979 
353	 2.09691999577002 
354	 2.11124257207279 
355	 2.1281764359611 
356	 2.10418207909664 
357	 2.04712697741523 
358	 2.07566098735643 
359	 2.0952130077779 
360	 2.01119276280716 
361	 2.01708689948837 
362	 2.03767546936848 
363	 2.04412158235889 
364	 2.0419268029115 
365	 2.01870024805886 
366	 2.00740902963372 
367	 2.01582197887398 
368	 2.01191685409207 
369	 1.99865347674354 
370	 1.98813940148708 
371	 1.9839628516107 
372	 1.95885748503879 
373	 1.92831554623351 
374	 1.91237670147432 
375	 1.92510824358062 
376	 1.92220061565846 
377	 1.90597410005013 
378	 1.88757889635064 
379	 1.8814396566314 
380	 1.86672531193636 
381	 1.84353938308734 
382	 1.82169542023498 
383	 1.82534978622469 
384	 1.82124308567394 
385	 1.80735242737167 
386	 1.79472769434351 
387	 1.78175387078273 
388	 1.75404478387078 
389	 1.72588915278363 
390	 1.73368610263933 
391	 1.7248743204193 
392	 1.71377838503988 
393	 1.71029358486358 
394	 1.68839044250901 
395	 1.66977960786733 
396	 1.65917029445658 
397	 1.65219893437025 
398	 1.63180621248908 
399	 1.62143928293706 
400	 1.61671653367439 
401	 1.59388864618593 
402	 1.5875128495032 
403	 1.58099302047389 
404	 1.56481440743109 
405	 1.55711372466181 
406	 1.5442685891951 
407	 1.53070722704838 
408	 1.52281849040778 
409	 1.50659670415914 
410	 1.49383939925779 
411	 1.48485156624041 
412	 1.47058743981676 
413	 1.46382566454716 
414	 1.45613242929246 
415	 1.44221388541398 
416	 1.4289031616706 
417	 1.42054263216441 
418	 1.41141688094911 
419	 1.39571786053525 
420	 1.38454905991833 
421	 1.37657909307026 
422	 1.36898297589323 
423	 1.35878430973131 
424	 1.35197599276591 
425	 1.34450469313007 
426	 1.33441379540015 
427	 1.32752125200254 
428	 1.3208308939342 
429	 1.31074399984151 
430	 1.2964677258656 
431	 1.29234705361578 
432	 1.28406961265244 
433	 1.27226102368296 
434	 1.26986094065781 
435	 1.26370002361586 
436	 1.25836053774726 
437	 1.25523143104156 
438	 1.24268660889198 
439	 1.23599785750441 
440	 1.23103163217001 
441	 1.22008948894005 
442	 1.21336265461088 
443	 1.20829013569972 
444	 1.20317340194695 
445	 1.19771267728303 
446	 1.19130054940134 
447	 1.18519428238277 
448	 1.18051921773626 
449	 1.17825031585135 
450	 1.17064540012855 
451	 1.16231617406256 
452	 1.16070738382097 
453	 1.15557945178381 
454	 1.14974519500143 
455	 1.14496023062605 
456	 1.14065854333114 
457	 1.1355436812834 
458	 1.13055002020926 
459	 1.12638762292191 
460	 1.12161667329829 
461	 1.11688656976511 
462	 1.11231973377835 
463	 1.10789737484455 
464	 1.10490806207426 
465	 1.10190690351104 
466	 1.09821216855088 
467	 1.09466674449905 
468	 1.08986915103927 
469	 1.08534545113054 
470	 1.08246318733134 
471	 1.07905562362859 
472	 1.07503700377559 
473	 1.07065855020861 
474	 1.06640600150561 
475	 1.06287568580339 
476	 1.05896879177359 
477	 1.05448311222776 
478	 1.05135535355181 
479	 1.04859992157513 
480	 1.04615085417949 
481	 1.04375424683663 
482	 1.03856286999065 
483	 1.03579989322552 
484	 1.03492653204641 
485	 1.02979458992465 
486	 1.02526439431452 
487	 1.02116087588283 
488	 1.01708776753913 
489	 1.01452583968716 
490	 1.01190753156716 
491	 1.00862725877107 
492	 1.00463249294081 
493	 1.00059170786218 
494	 0.997640999379809 
495	 0.995555099258287 
496	 0.992481777663909 
497	 0.988944360767224 
498	 0.985568658481713 
499	 0.982641468645658 
500	 0.979249501527676 
501	 0.974569323333863 
502	 0.969675876941751 
503	 0.966506712590361 
504	 0.963925294970749 
505	 0.960001544724759 
506	 0.954831897018777 
507	 0.951764551473326 
508	 0.948562820555667 
509	 0.944706131454813 
510	 0.940582133444308 
511	 0.938535139938983 
512	 0.934670912142344 
513	 0.929563861040968 
514	 0.927279707183123 
515	 0.92315910135513 
516	 0.918951343385129 
517	 0.916134258790777 
518	 0.91296625648349 
519	 0.909455247232893 
520	 0.905554948971377 
521	 0.901428995289959 
522	 0.898174970842896 
523	 0.894991978158891 
524	 0.892084253000334 
525	 0.890896157418732 
526	 0.888697564211885 
527	 0.885630274964958 
528	 0.882728972825788 
529	 0.88164277195339 
530	 0.879741025337203 
531	 0.877495481140877 
532	 0.876772252994195 
533	 0.875345148372481 
534	 0.873902813238736 
535	 0.872993993018743 
536	 0.872465787137759 
537	 0.870795513191208 
538	 0.869267356297928 
539	 0.869418138232216 
540	 0.869961801576484 
541	 0.869446406683071 
542	 0.868015974560565 
543	 0.867179375965764 
544	 0.867732212482122 
545	 0.868257039349586 
546	 0.867984760284746 
547	 0.86834455008893 
548	 0.869882158294411 
549	 0.871583396166578 
550	 0.872154193008236 
551	 0.873349615260027 
552	 0.874298459230573 
553	 0.875231253691503 
554	 0.877850887365487 
555	 0.879662579546564 
556	 0.881215623226624 
557	 0.88340286486531 
558	 0.885597597699728 
559	 0.887992003581473 
560	 0.890563937814296 
561	 0.893261932438685 
562	 0.897118526864247 
563	 0.900606873945585 
564	 0.903327030571416 
565	 0.90740053471905 
566	 0.91153710731166 
567	 0.915247942997302 
568	 0.918790062780741 
569	 0.924743820333129 
570	 0.930183689712128 
571	 0.934294205377939 
572	 0.938525365597932 
573	 0.944179685255302 
574	 0.949191929747839 
575	 0.952594613052999 
576	 0.957721565708368 
577	 0.962812191436749 
578	 0.967586815203303 
579	 0.972482592681821 
580	 0.978009958025728 
581	 0.98287568803572 
582	 0.986861875572908 
583	 0.991338871304022 
584	 0.996109921370596 
585	 1.00013230328569 
586	 1.00299598889505 
587	 1.0076401251077 
588	 1.01162865137932 
589	 1.01478617514064 
590	 1.01863120953977 
591	 1.02374787736507 
592	 1.0291814510842 
593	 1.03402042153714 
594	 1.03739167936385 
595	 1.0413221130102 
596	 1.04544345112176 
597	 1.04878685758029 
598	 1.05181187192962 
599	 1.05445029642426 
600	 1.05687965135808 
601	 1.05951397022969 
602	 1.06244529120536 
603	 1.06505563214331 
604	 1.06713455274938 
605	 1.06989610034916 
606	 1.07282931580555 
607	 1.07549772922362 
608	 1.07753888234235 
609	 1.07901684213694 
610	 1.08085465178342 
611	 1.08300491686525 
612	 1.0840081021073 
613	 1.08539203500271 
614	 1.08724820581297 
615	 1.08917936769682 
616	 1.09067677210808 
617	 1.09125460225224 
618	 1.09164102312482 
619	 1.09314368660791 
620	 1.09353275467397 
621	 1.09349203562682 
622	 1.09373297813861 
623	 1.09432486178431 
624	 1.09439127930561 
625	 1.09357007771172 
626	 1.09216598946131 
627	 1.09250618450043 
628	 1.09222928454837 
629	 1.09097050345202 
630	 1.09044892769658 
631	 1.09034352274711 
632	 1.08978799236718 
633	 1.08850915665397 
634	 1.08796404567851 
635	 1.08777758330079 
636	 1.08793014816523 
637	 1.08842940670328 
638	 1.08872586398584 
639	 1.088920189518 
640	 1.08923529280289 
641	 1.0899573079719 
642	 1.09058731266924 
643	 1.09137797788529 
644	 1.09240311258313 
645	 1.09249684327133 
646	 1.09256193536139 
647	 1.09299676632615 
648	 1.0937561974165 
649	 1.09388786864659 
650	 1.09418730419089 
651	 1.09480793471253 
652	 1.09457798115692 
653	 1.09408013048206 
654	 1.09365824178398 
655	 1.09349002971832 
656	 1.09334320256873 
657	 1.09285409130579 
658	 1.09270719720903 
659	 1.09401703575553 
660	 1.09523239948887 
661	 1.09675587035417 
662	 1.09851407838368 
663	 1.09906950325645 
664	 1.09967861759237 
665	 1.10007728895465 
666	 1.09993123701872 
667	 1.1011728411495 
668	 1.10209395154635 
669	 1.10222190510978 
670	 1.10237039527969 
671	 1.10255668536455 
672	 1.10251420893417 
673	 1.10201949515911 
674	 1.1009910332434 
675	 1.10054123959149 
676	 1.10009378767873 
677	 1.09873190407013 
678	 1.09780344278317 
679	 1.09704606541838 
680	 1.09589904473408 
681	 1.09367717543627 
682	 1.09153614594945 
683	 1.08862586143785 
684	 1.08451212771242 
685	 1.08082916234098 
686	 1.07644861166081 
687	 1.07095485182464 
688	 1.06489841659105 
689	 1.05883396629153 
690	 1.05250917709215 
691	 1.04581038670938 
692	 1.03925133699877 
693	 1.0308743707433 
694	 1.02211310434342 
695	 1.01472116543193 
696	 1.00940888522012 
697	 1.00427300542979 
698	 0.998463811847396 
699	 0.991967557868186 
700	 0.986164652656882 
701	 0.980741445703335 
702	 0.975333798155839 
703	 0.969717467396096 
704	 0.965260196429046 
705	 0.960876520557198 
706	 0.955882442317358 
707	 0.952185588557198 
708	 0.948755106526394 
709	 0.944942277038436 
710	 0.94061199129864 
711	 0.937566416164993 
712	 0.934032660241772 
713	 0.929920169987912 
714	 0.927240706157988 
715	 0.923704180122113 
716	 0.919231373451086 
717	 0.914258201245274 
718	 0.909627686475003 
719	 0.906330424041376 
720	 0.904052066428336 
721	 0.901781474455225 
722	 0.900043892350706 
723	 0.897634024739175 
724	 0.894307875470847 
725	 0.891224445259159 
726	 0.888605062986358 
727	 0.886275099232886 
728	 0.884044047731689 
729	 0.882144734332237 
730	 0.880585053970612 
731	 0.879199419141129 
732	 0.877819903847918 
733	 0.8768191485447 
734	 0.875473039042251 
735	 0.873749441282061 
736	 0.872263110120955 
737	 0.870736603871608 
738	 0.868904303405437 
739	 0.866961854768597 
740	 0.866127456612355 
741	 0.865540133844389 
742	 0.864611073360578 
743	 0.863036599497392 
744	 0.861163761991566 
745	 0.85989176410671 
746	 0.859136528137539 
747	 0.858059762364831 
748	 0.856439377262399 
749	 0.854717550026408 
750	 0.853246047675701 
751	 0.852050950483099 
752	 0.850866968391734 
753	 0.8498407815717 
754	 0.848994786277903 
755	 0.847467291447933 
756	 0.846270489669096 
757	 0.845506366369361 
758	 0.844723190404763 
759	 0.844003715648846 
760	 0.842806828318025 
761	 0.840704410539488 
762	 0.838700575359121 
763	 0.837688624771643 
764	 0.837056069341933 
765	 0.836278640424574 
766	 0.835211330413834 
767	 0.83345451682606 
768	 0.831579646817334 
769	 0.830215290038516 
770	 0.829043441585165 
771	 0.827737171939039 
772	 0.826463003039098 
773	 0.825663904287447 
774	 0.823916211609185 
775	 0.822488563001177 
776	 0.821835733372957 
777	 0.820395426412188 
778	 0.818344341167549 
779	 0.816644999665307 
780	 0.815902048710051 
781	 0.81465985281224 
782	 0.813159042471823 
783	 0.81183240764686 
784	 0.810949344240663 
785	 0.808852746991457 
786	 0.807292032631757 
787	 0.806428592419247 
788	 0.804544103897859 
789	 0.802478584184525 
790	 0.80086326174013 
791	 0.799770984211712 
792	 0.798212128956107 
793	 0.796818104514586 
794	 0.795468569069628 
795	 0.793875118848654 
796	 0.791993943039347 
797	 0.790290691036798 
798	 0.788807876526651 
799	 0.787343498801208 
800	 0.785978708032522 
801	 0.784326816953934 
802	 0.782551705280221 
803	 0.781387076665941 
804	 0.780097521332552 
805	 0.778330773052949 
806	 0.776354710440381 
807	 0.775533735448915 
808	 0.773967876788694 
809	 0.772414931706678 
810	 0.771623173326976 
811	 0.768853642457315 
812	 0.766305306060125 
813	 0.764451488313815 
814	 0.762594451240305 
815	 0.759705567188334 
816	 0.757860754170059 
817	 0.757068880044209 
818	 0.754989969541715 
819	 0.753488673374782 
820	 0.752489817786325 
821	 0.751539608361141 
822	 0.750109456614562 
823	 0.749036851229946 
824	 0.747744814298474 
825	 0.745972161920747 
826	 0.745370598154985 
827	 0.744696641650559 
828	 0.743482305156144 
829	 0.741772935351137 
830	 0.740213430223165 
831	 0.739194017444014 
832	 0.738357047997583 
833	 0.737000197468665 
834	 0.736268415439334 
835	 0.73559284431478 
836	 0.734514528889589 
837	 0.733007941058259 
838	 0.732355636554675 
839	 0.731839402663019 
840	 0.730697184961538 
841	 0.728844157045546 
842	 0.728044024068387 
843	 0.72730901402089 
844	 0.725697350906688 
845	 0.725295199847993 
846	 0.724509797970126 
847	 0.723392116262391 
848	 0.722454062569708 
849	 0.720313106507813 
850	 0.719252320040081 
851	 0.718998689995354 
852	 0.717547947839538 
853	 0.716818665718617 
854	 0.715546340654191 
855	 0.713808441812417 
856	 0.713371724465574 
857	 0.713009609561602 
858	 0.711793128153145 
859	 0.710031332044266 
860	 0.709791091975339 
861	 0.708877985372178 
862	 0.708158721248587 
863	 0.708258738340983 
864	 0.707284848085753 
865	 0.706124054084986 
866	 0.705295652856122 
867	 0.704901999125393 
868	 0.703977975794093 
869	 0.702664625257061 
870	 0.701739328991 
871	 0.701701753343048 
872	 0.700181092572677 
873	 0.700064497116901 
874	 0.700539846534538 
875	 0.698661461416389 
876	 0.697613625159154 
877	 0.697110674313901 
878	 0.696788546287691 
879	 0.696520929868362 
880	 0.696161139579067 
881	 0.694834822241126 
882	 0.69323133673556 
883	 0.693954912640271 
884	 0.693499771019362 
885	 0.692924027846682 
886	 0.693002229551102 
887	 0.692320092118523 
888	 0.69198475458091 
889	 0.691311280389793 
890	 0.689968468730326 
891	 0.689631086408965 
892	 0.688889778625346 
893	 0.687982966255848 
894	 0.687205572969522 
895	 0.684949261707097 
896	 0.684469509674032 
897	 0.684229026317538 
898	 0.681897687175079 
899	 0.681871617523867 
900	 0.682514071711177 
901	 0.682463630327994 
902	 0.681434731173167 
903	 0.683007274802705 
904	 0.68299231024588 
905	 0.681757670646581 
906	 0.682219686993718 
907	 0.682464918129153 
908	 0.681387464343965 
909	 0.67989278289242 
910	 0.680213897980931 
911	 0.681445827599697 
912	 0.681628440317781 
913	 0.680003689349278 
914	 0.677640320688894 
915	 0.679873136996807 
916	 0.680685209198782 
917	 0.679398383115939 
918	 0.682112918003552 
919	 0.681369365761867 
920	 0.680820192440144 
921	 0.682077023548246 
922	 0.682151037634671 
923	 0.681714547664406 
924	 0.682258340440216 
925	 0.683692383974163 
926	 0.683283891930979 
927	 0.679099641701122 
928	 0.67638827427481 
929	 0.677250061431923 
930	 0.674663835580952 
931	 0.675597445175707 
932	 0.676559101614588 
933	 0.673880133742071 
934	 0.67054849421546 
935	 0.671701226139232 
936	 0.673196546899225 
937	 0.673101599243834 
938	 0.6785565962291 
939	 0.678452626243359 
940	 0.679174669433226 
941	 0.683373920764293 
942	 0.679381297488103 
943	 0.680852929049048 
944	 0.68485318361492 
945	 0.685855614650186 
946	 0.682338390839462 
947	 0.683676648618874 
948	 0.687058079509226 
949	 0.688343516224982 
950	 0.688345218734482 
951	 0.687913408802983 
952	 0.687674532437135 
953	 0.688103887722272 
954	 0.689474610412771 
955	 0.694021887473116 
956	 0.697857131778031 
957	 0.698186238166909 
958	 0.697489869244763 
959	 0.696859555667005 
960	 0.700537880248594 
961	 0.707963794117945 
962	 0.709609948344966 
963	 0.71197248246116 
964	 0.712996288056453 
965	 0.711998950081901 
966	 0.713402515882706 
967	 0.716183346764078 
968	 0.71711168447785 
969	 0.716036974413331 
970	 0.717920819209368 
971	 0.722137392091205 
972	 0.72446257035372 
973	 0.723382899384516 
974	 0.722557019090872 
975	 0.72614599536189 
976	 0.728093741494447 
977	 0.726437355915777 
978	 0.726771277461829 
979	 0.728427803063515 
980	 0.730303482903333 
981	 0.73113273265785 
982	 0.729991812613859 
983	 0.727915856172768 
984	 0.729165280730498 
985	 0.733814860482601 
986	 0.737886735450784 
987	 0.741334251871203 
988	 0.742457585156328 
989	 0.740921691738685 
990	 0.738123325098004 
991	 0.737250503693492 
992	 0.741136709095368 
993	 0.74627466520061 
994	 0.746913674343328 
995	 0.747630728746355 
996	 0.747326458407634 
997	 0.747906765749608 
998	 0.750846443678712 
999	 0.749659109072661 
1000	 0.749455194156975 
1001	 0.77372004773035 
1002	 0.774824517503412 
1003	 0.775796916085491 
1004	 0.777034498868285 
1005	 0.778157756495505 
1006	 0.779147950095909 
1007	 0.780097966184297 
1008	 0.781132833956922 
1009	 0.781943639386084 
1010	 0.782714154992657 
1011	 0.783378091255225 
1012	 0.783382192829733 
1013	 0.783947168894388 
1014	 0.784626511645512 
1015	 0.785624894252395 
1016	 0.787211679603116 
1017	 0.788370828908933 
1018	 0.789434791569179 
1019	 0.790244491284746 
1020	 0.791237590785353 
1021	 0.792465123311269 
1022	 0.793283628430089 
1023	 0.794032871276587 
1024	 0.794382253040662 
1025	 0.794789392869241 
1026	 0.795572596886935 
1027	 0.796616969099559 
1028	 0.798091307697669 
1029	 0.799126522738481 
1030	 0.79949914916665 
1031	 0.800268398270253 
1032	 0.801024210471119 
1033	 0.801835516078956 
1034	 0.803104151905826 
1035	 0.804024366266148 
1036	 0.804628766717417 
1037	 0.805278765972766 
1038	 0.805832985757301 
1039	 0.806476075475592 
1040	 0.807113556833652 
1041	 0.807859358443132 
1042	 0.809235749190607 
1043	 0.810330274285212 
1044	 0.81125039206405 
1045	 0.812523515058212 
1046	 0.813108808720518 
1047	 0.813705807746515 
1048	 0.814620310738448 
1049	 0.815620419054902 
1050	 0.816464532575525 
1051	 0.817421992000019 
1052	 0.818071977988892 
1053	 0.818865902635772 
1054	 0.819462367663661 
1055	 0.820310322553399 
1056	 0.821916191414682 
1057	 0.823294975956264 
1058	 0.824525928968166 
1059	 0.825788664206639 
1060	 0.826605569822794 
1061	 0.8275961336339 
1062	 0.828958502028976 
1063	 0.83023685826446 
1064	 0.831658247097392 
1065	 0.832728004729362 
1066	 0.833527340768547 
1067	 0.834111606746195 
1068	 0.8349935759227 
1069	 0.835607068704899 
1070	 0.836718766350538 
1071	 0.838111190717476 
1072	 0.839080983551813 
1073	 0.840344725583874 
1074	 0.841476401032039 
1075	 0.842079694251783 
1076	 0.842434011090269 
1077	 0.843128037070767 
1078	 0.844038851195779 
1079	 0.844773334373667 
1080	 0.846152850806263 
1081	 0.847203952341399 
1082	 0.848107658616046 
1083	 0.84857971610492 
1084	 0.849726117943752 
1085	 0.850948644896444 
1086	 0.852031127454094 
1087	 0.853026781718541 
1088	 0.854174119133589 
1089	 0.854699151384651 
1090	 0.854940447818331 
1091	 0.856128401424979 
1092	 0.856840574070331 
1093	 0.857289981094827 
1094	 0.858375368778737 
1095	 0.85924461095648 
1096	 0.860056140555615 
1097	 0.861036181619068 
1098	 0.861738500834715 
1099	 0.862190677569748 
1100	 0.86264407495659 
1101	 0.863257442394348 
1102	 0.863739114911465 
1103	 0.864461262797188 
1104	 0.865175635082832 
1105	 0.865755690468772 
1106	 0.866432475164998 
1107	 0.866903379723798 
1108	 0.86718679960481 
1109	 0.86723728097269 
1110	 0.867039738810184 
1111	 0.866732114422985 
1112	 0.865993393180757 
1113	 0.865716445537171 
1114	 0.865714727312113 
1115	 0.865295776913971 
1116	 0.864930276040146 
1117	 0.864541389780372 
1118	 0.863496092039563 
1119	 0.862221325968935 
1120	 0.86119547597971 
1121	 0.860637522838249 
1122	 0.860889752599929 
1123	 0.861850713134677 
1124	 0.863154929975193 
1125	 0.864715315030541 
1126	 0.866528778591147 
1127	 0.86827753304433 
1128	 0.870211947395496 
1129	 0.872268058256744 
1130	 0.874863145672447 
1131	 0.877533123079519 
1132	 0.880434672717979 
1133	 0.883864438474153 
1134	 0.887418680229575 
1135	 0.890143294448323 
1136	 0.892205498906231 
1137	 0.894498115105426 
1138	 0.896271130319702 
1139	 0.898113670233668 
1140	 0.900022294711135 
1141	 0.90119363856795 
1142	 0.902816027351779 
1143	 0.904594631255671 
1144	 0.906225367699171 
1145	 0.908528864442971 
1146	 0.911427850818911 
1147	 0.913928154681298 
1148	 0.916328886040729 
1149	 0.919238481275948 
1150	 0.922348617579057 
1151	 0.925360554021993 
1152	 0.928647156420073 
1153	 0.931459535213883 
1154	 0.934168533174324 
1155	 0.936557256733211 
1156	 0.939319677066135 
1157	 0.94219736748816 
1158	 0.944729453299907 
1159	 0.94688830803057 
1160	 0.949032636963757 
1161	 0.950970936367462 
1162	 0.952947195664986 
1163	 0.955242389151403 
1164	 0.956827168492753 
1165	 0.957929666653931 
1166	 0.959190693066935 
1167	 0.960188487346357 
1168	 0.961215953180049 
1169	 0.962339825530307 
1170	 0.963598753193377 
1171	 0.964273150697273 
1172	 0.964932050162512 
1173	 0.966320555059638 
1174	 0.967712189357016 
1175	 0.968868288475163 
1176	 0.969956394690008 
1177	 0.970680475389336 
1178	 0.970667429246875 
1179	 0.971094883836206 
1180	 0.971474787516121 
1181	 0.972170055753834 
1182	 0.972958137285631 
1183	 0.97381766401198 
1184	 0.975045576543628 
1185	 0.976102825629899 
1186	 0.977262494528574 
1187	 0.978105559229252 
1188	 0.978724533923146 
1189	 0.97938434280102 
1190	 0.979873178929518 
1191	 0.980520193685899 
1192	 0.981607631346246 
1193	 0.982486909698697 
1194	 0.983176559461753 
1195	 0.98384195643466 
1196	 0.984318513640819 
1197	 0.984384818760648 
1198	 0.98480321957584 
1199	 0.985356927225545 
1200	 0.985796580163184 
1201	 0.986406661917549 
1202	 0.986829158713765 
1203	 0.986943106726752 
1204	 0.987200023457885 
1205	 0.987418714756606 
1206	 0.987754629824813 
1207	 0.988245511635409 
1208	 0.988723320735728 
1209	 0.989479177178116 
1210	 0.989789186160029 
1211	 0.989977167975775 
1212	 0.990027602892644 
1213	 0.990217756055574 
1214	 0.990216211406687 
1215	 0.990527349622202 
1216	 0.991184204248421 
1217	 0.991532098842 
1218	 0.991811032720482 
1219	 0.992073898652563 
1220	 0.992189861167971 
1221	 0.992416075159644 
1222	 0.992813883282918 
1223	 0.993012355323101 
1224	 0.993259022253116 
1225	 0.993249535433944 
1226	 0.992653494300147 
1227	 0.992593213906889 
1228	 0.992831819546221 
1229	 0.992830631053608 
1230	 0.99297209969341 
1231	 0.993408414568473 
1232	 0.99349481873276 
1233	 0.993267294091361 
1234	 0.99325044931959 
1235	 0.993315916917746 
1236	 0.993283641823215 
1237	 0.993167941404009 
1238	 0.993098469159228 
1239	 0.993035429397671 
1240	 0.992971599775886 
1241	 0.992982936060613 
1242	 0.992866463803904 
1243	 0.992676658146805 
1244	 0.992477410572633 
1245	 0.991995515385348 
1246	 0.99187588633828 
1247	 0.991998068947687 
1248	 0.992053729312183 
1249	 0.99250605746228 
1250	 0.992602315516236 
1251	 0.992446924156657 
1252	 0.992228349190543 
1253	 0.991977591581608 
1254	 0.991477378641667 
1255	 0.991230446324288 
1256	 0.991064967391494 
1257	 0.990922073110635 
1258	 0.990868796845289 
1259	 0.99078513361463 
1260	 0.990764009015996 
1261	 0.990644480039113 
1262	 0.990551756877796 
1263	 0.990325303110961 
1264	 0.989859630215646 
1265	 0.989612790407545 
1266	 0.989246040381383 
1267	 0.989150789990122 
1268	 0.989428312263395 
1269	 0.989564817105975 
1270	 0.989815144746275 
1271	 0.989995773933956 
1272	 0.990106762362448 
1273	 0.99018435944776 
1274	 0.990262373907147 
1275	 0.990365811726701 
1276	 0.990368008071466 
1277	 0.990180882095176 
1278	 0.990350193147909 
1279	 0.990599199936329 
1280	 0.990912561048245 
1281	 0.991577039313318 
1282	 0.991925395875693 
1283	 0.992152843555774 
1284	 0.99235565920885 
1285	 0.992323333561742 
1286	 0.992575290086067 
1287	 0.993033262618363 
1288	 0.993294269110433 
1289	 0.993607451015287 
1290	 0.993892834301335 
1291	 0.993945321527016 
1292	 0.994147197016041 
1293	 0.994613286737295 
1294	 0.994873737094737 
1295	 0.995184427590543 
1296	 0.995220885050157 
1297	 0.995227058398402 
1298	 0.995013664624166 
1299	 0.995024221796493 
1300	 0.994914644840645 
1301	 0.995170903703341 
1302	 0.99574320624769 
1303	 0.996113441413534 
1304	 0.996759331186212 
1305	 0.996972195556781 
1306	 0.996783972341951 
1307	 0.996874539682686 
1308	 0.996890816707428 
1309	 0.996977503320385 
1310	 0.997115067209871 
1311	 0.997415271595019 
1312	 0.997810280171453 
1313	 0.998172466560435 
1314	 0.998702283892015 
1315	 0.999240218540014 
1316	 0.999779031306159 
1317	 1.00022588475032 
1318	 1.00082865722576 
1319	 1.00121679361902 
1320	 1.00128539426221 
1321	 1.00151707659137 
1322	 1.00153717396051 
1323	 1.00134261220611 
1324	 1.00143174769176 
1325	 1.00166727651849 
1326	 1.00154175123934 
1327	 1.00135285227806 
1328	 1.00121180724019 
1329	 1.00050371090013 
1330	 1.00061714711737 
1331	 1.00154561530586 
1332	 1.00184588233678 
1333	 1.00203552792249 
1334	 1.00249340772967 
1335	 1.0028869050541 
1336	 1.0032370769392 
1337	 1.00410629639245 
1338	 1.00447559126075 
1339	 1.00445450561006 
1340	 1.00422980675253 
1341	 1.00395730778763 
1342	 1.00319109209947 
1343	 1.00123034302765 
1344	 0.999637051743938 
1345	 0.99792520509064 
1346	 0.995299239386976 
1347	 0.99271605061706 
1348	 0.990671667260967 
1349	 0.987106888215255 
1350	 0.981662564632165 
1351	 0.975935420202931 
1352	 0.967693096785387 
1353	 0.959678561027514 
1354	 0.951718283527235 
1355	 0.942834793586822 
1356	 0.940889250887689 
1357	 0.931735673693234 
1358	 0.928499572759533 
1359	 0.912514615621514 
1360	 0.872997917068358 
1361	 0.844781129300006 
1362	 0.843276221856733 
1363	 0.84035602711117 
1364	 0.90915540017798 
1365	 0.941190371342041 
1366	 0.951268153587816 
1367	 0.947883684750865 
1368	 0.915699568121722 
1369	 0.909720268688737 
1370	 0.915463256340129 
1371	 0.908021139830155 
1372	 0.897909884584901 
1373	 0.89572744038235 
1374	 0.890751432224413 
1375	 0.88367497995169 
1376	 0.878776306740873 
1377	 0.88823459486629 
1378	 0.890612531480012 
1379	 0.889798276521701 
1380	 0.889112149648567 
1381	 0.890411535353773 
1382	 0.891565386979928 
1383	 0.886755463789176 
1384	 0.892565478787196 
1385	 0.906245072433 
1386	 0.912753603239912 
1387	 0.91846900387369 
1388	 0.925614585705307 
1389	 0.930925269278184 
1390	 0.935816312866238 
1391	 0.941265542232831 
1392	 0.946938859200825 
1393	 0.952163762709819 
1394	 0.957166275466241 
1395	 0.962150309715863 
1396	 0.969768846359352 
1397	 0.976633902561129 
1398	 0.984715887737252 
1399	 0.995164613496817 
1400	 1.00628337157127 
1401	 1.01978571766621 
1402	 1.02956611180529 
1403	 1.03603279714596 
1404	 1.04514232672997 
1405	 1.05339242482933 
1406	 1.06060258859656 
1407	 1.06854207853172 
1408	 1.0790578166966 
1409	 1.08519313284706 
1410	 1.09267015201876 
1411	 1.1007695971962 
1412	 1.10919279093783 
1413	 1.11719573080444 
1414	 1.12580633325657 
1415	 1.13243223733547 
1416	 1.13814462761615 
1417	 1.14434010746932 
1418	 1.14949443111644 
1419	 1.15560020148964 
1420	 1.16284477690288 
1421	 1.16870522812404 
1422	 1.17468184047103 
1423	 1.17930488952195 
1424	 1.18289564343284 
1425	 1.18661834067616 
1426	 1.18985307526221 
1427	 1.19356103213369 
1428	 1.19781803158432 
1429	 1.20151127327158 
1430	 1.20588729866769 
1431	 1.20863972897029 
1432	 1.21055376917304 
1433	 1.2122906748991 
1434	 1.21206159579291 
1435	 1.21362628412472 
1436	 1.21678537143421 
1437	 1.2185343886121 
1438	 1.22017648541887 
1439	 1.22182634827713 
1440	 1.22155356905775 
1441	 1.22305013811313 
1442	 1.22599746309758 
1443	 1.22869878525415 
1444	 1.23169049733123 
1445	 1.23424683612009 
1446	 1.23583344436322 
1447	 1.23848306630789 
1448	 1.2406144194555 
1449	 1.24276700931476 
1450	 1.2446740523452 
1451	 1.24615536622284 
1452	 1.24821376670846 
1453	 1.25053872313716 
1454	 1.25249810191865 
1455	 1.25503603398803 
1456	 1.2562570574991 
1457	 1.25715693275392 
1458	 1.25717882008103 
1459	 1.25641891293292 
1460	 1.25541900470466 
1461	 1.25317237460325 
1462	 1.25197702504479 
1463	 1.25105160807611 
1464	 1.24969065923575 
1465	 1.24876505873945 
1466	 1.2472113054313 
1467	 1.24425412921886 
1468	 1.24274769606362 
1469	 1.24204298707944 
1470	 1.24109315384677 
1471	 1.24110092284291 
1472	 1.24041934241262 
1473	 1.2389881851678 
1474	 1.23823560778567 
1475	 1.23763967315184 
1476	 1.23725484163168 
1477	 1.23734761276205 
1478	 1.23723623082181 
1479	 1.23717485829312 
1480	 1.23700955150811 
1481	 1.23654084108988 
1482	 1.23650257301571 
1483	 1.2368654952763 
1484	 1.23690455257207 
1485	 1.2370665285714 
1486	 1.23708741818685 
1487	 1.23701102787194 
1488	 1.23647238476281 
1489	 1.23603598214894 
1490	 1.23619093423866 
1491	 1.23669649698599 
1492	 1.237072217283 
1493	 1.23721764423616 
1494	 1.23645278248991 
1495	 1.23585860771706 
1496	 1.23460828758907 
1497	 1.23386512777586 
1498	 1.23340858742306 
1499	 1.23271468050707 
1500	 1.23198629991138 
1501	 1.23087092407542 
1502	 1.22953045214078 
1503	 1.22833551688616 
1504	 1.22699745114852 
1505	 1.22553222287934 
1506	 1.22409210148054 
1507	 1.22267578144811 
1508	 1.22103572799603 
1509	 1.21954390543711 
1510	 1.21840116439929 
1511	 1.21681967102572 
1512	 1.21472003543298 
1513	 1.21321783855191 
1514	 1.2118346630244 
1515	 1.21048937931407 
1516	 1.20953513313768 
1517	 1.20833422052817 
1518	 1.20701131994729 
1519	 1.20562687699371 
1520	 1.2041091243797 
1521	 1.20276185924953 
1522	 1.20140151233195 
1523	 1.20005697526727 
1524	 1.19895943710222 
1525	 1.1976228743578 
1526	 1.19603860693848 
1527	 1.19459120042887 
1528	 1.19295845829503 
1529	 1.19166560164647 
1530	 1.19066127127502 
1531	 1.18954536016894 
1532	 1.18877282685749 
1533	 1.18758838684487 
1534	 1.18594796073349 
1535	 1.18463213870119 
1536	 1.18346331886873 
1537	 1.18201617207941 
1538	 1.18042707286349 
1539	 1.17908307043327 
1540	 1.17761435852876 
1541	 1.17621013560532 
1542	 1.17529975390325 
1543	 1.17400212048637 
1544	 1.17211796806582 
1545	 1.17071574792866 
1546	 1.16950933764219 
1547	 1.16824699325537 
1548	 1.16736956850446 
1549	 1.16621584765917 
1550	 1.16456105525761 
1551	 1.16335322945479 
1552	 1.16259788706238 
1553	 1.16140036762929 
1554	 1.16008590357432 
1555	 1.15890402780785 
1556	 1.15725635375546 
1557	 1.15596761036506 
1558	 1.15526090745394 
1559	 1.1543327891144 
1560	 1.15340929957494 
1561	 1.15243294477282 
1562	 1.15127681311469 
1563	 1.15021704581492 
1564	 1.14914931409785 
1565	 1.14820121157826 
1566	 1.14713196752835 
1567	 1.14592096398524 
1568	 1.14484617333182 
1569	 1.14361103814237 
1570	 1.14277569237987 
1571	 1.14223542022428 
1572	 1.14150239485673 
1573	 1.14088048916624 
1574	 1.14019925095729 
1575	 1.13962829988759 
1576	 1.13839061814244 
1577	 1.13687791800197 
1578	 1.13556650370729 
1579	 1.13363048299624 
1580	 1.13272305512725 
1581	 1.13263783803583 
1582	 1.13177652733339 
1583	 1.13088137740273 
1584	 1.1301085890094 
1585	 1.12910013356471 
1586	 1.12819288925154 
1587	 1.12767091680305 
1588	 1.12659751478414 
1589	 1.12493914952947 
1590	 1.12399548223195 
1591	 1.12327979205593 
1592	 1.12232866605213 
1593	 1.1217691180465 
1594	 1.12054150528864 
1595	 1.11854225679391 
1596	 1.11750518817502 
1597	 1.11670424789105 
1598	 1.11575487776132 
1599	 1.11536359109723 
1600	 1.11428774405561 
1601	 1.11259970511188 
1602	 1.11140324221802 
1603	 1.110253721533 
1604	 1.10915799920818 
1605	 1.10821373727355 
1606	 1.10722286285598 
1607	 1.10626374764068 
1608	 1.10523420286187 
1609	 1.10411067793391 
1610	 1.10331361627695 
1611	 1.10255282174991 
1612	 1.10193903483978 
1613	 1.10189766379796 
1614	 1.10099211183703 
1615	 1.0995838813402 
1616	 1.09866221273266 
1617	 1.0975226490606 
1618	 1.09658376830258 
1619	 1.09606418479438 
1620	 1.09532357975442 
1621	 1.09425732253578 
1622	 1.0936864643852 
1623	 1.09360800547722 
1624	 1.09291536954299 
1625	 1.09213637966258 
1626	 1.09129744138297 
1627	 1.08990089316641 
1628	 1.08929911125782 
1629	 1.08918818222593 
1630	 1.0887007318138 
1631	 1.08849174236954 
1632	 1.08776968803268 
1633	 1.08648693134639 
1634	 1.08579713380168 
1635	 1.08528862565698 
1636	 1.08451701565294 
1637	 1.08375353348586 
1638	 1.08323734053205 
1639	 1.08264020676152 
1640	 1.08206927515777 
1641	 1.08179074460641 
1642	 1.08151550215868 
1643	 1.08113377212453 
1644	 1.08058971498277 
1645	 1.08015399315089 
1646	 1.07985924505692 
1647	 1.07930946011898 
1648	 1.07901518421427 
1649	 1.07908329051007 
1650	 1.07913966277903 
1651	 1.07914576277279 
1652	 1.07911546251742 
1653	 1.07945777235218 
1654	 1.0792903540937 
1655	 1.0786464399804 
1656	 1.07824625633226 
1657	 1.07778666936831 
1658	 1.07702502959549 
1659	 1.07697370852994 
1660	 1.07760861520208 
1661	 1.07799585338058 
1662	 1.07842764901777 
1663	 1.0785679985775 
1664	 1.07790105255062 
1665	 1.07737791902884 
1666	 1.07725606345937 
1667	 1.07740015792052 
1668	 1.07768050270406 
1669	 1.07794250765771 
1670	 1.07834845595145 
1671	 1.07851202141553 
1672	 1.07807252432921 
1673	 1.07784736168243 
1674	 1.07780848287009 
1675	 1.07749631107262 
1676	 1.07765968113955 
1677	 1.07775277370661 
1678	 1.0773576663973 
1679	 1.07722533002529 
1680	 1.07721943344339 
1681	 1.07751850771116 
1682	 1.07810482387791 
1683	 1.07845552184029 
1684	 1.07891802073294 
1685	 1.07959221268287 
1686	 1.08011017433409 
1687	 1.08042642215362 
1688	 1.08084909699853 
1689	 1.08123957503488 
1690	 1.08153593114688 
1691	 1.08202563124927 
1692	 1.08282328236423 
1693	 1.08314249528314 
1694	 1.08310698130259 
1695	 1.08320950027283 
1696	 1.08282532554579 
1697	 1.08305545731444 
1698	 1.08380605414963 
1699	 1.08464636846309 
1700	 1.08626493983441 
1701	 1.08702147896692 
1702	 1.08749544540784 
1703	 1.08785117410425 
1704	 1.08716363231208 
1705	 1.087254167862 
1706	 1.08753743141043 
1707	 1.08817121647868 
1708	 1.08973322788081 
1709	 1.09072998974883 
1710	 1.09185651566875 
1711	 1.09247182335168 
1712	 1.09243934220055 
1713	 1.0925052165506 
1714	 1.09211907360758 
1715	 1.09248112947421 
1716	 1.09344409018207 
1717	 1.09394800823206 
1718	 1.09431881167003 
1719	 1.09488537757606 
1720	 1.09531484864967 
1721	 1.09586676573623 
1722	 1.09728084448245 
1723	 1.09776731900164 
1724	 1.09760510004584 
1725	 1.09730975772723 
1726	 1.09619081443569 
1727	 1.09602173813528 
1728	 1.09617338986871 
1729	 1.09627756710208 
1730	 1.09705398276104 
1731	 1.09685476343883 
1732	 1.09644892800133 
1733	 1.09636424402537 
1734	 1.0961303042967 
1735	 1.09557100598128 
1736	 1.09528170062292 
1737	 1.09513339101722 
1738	 1.09512007827812 
1739	 1.09551385875759 
1740	 1.09548325529559 
1741	 1.0951865202718 
1742	 1.09529276072107 
1743	 1.09573712417386 
1744	 1.09673722056051 
1745	 1.09739208602541 
1746	 1.09714242667116 
1747	 1.09679432972318 
1748	 1.09700818623814 
1749	 1.09786206597973 
1750	 1.09929949953025 
1751	 1.10092784979592 
1752	 1.10142288647812 
1753	 1.10136148480403 
1754	 1.10132839210026 
1755	 1.10087345864827 
1756	 1.10118221146835 
1757	 1.1019834817873 
1758	 1.10234862512843 
1759	 1.10296060247539 
1760	 1.10334991512268 
1761	 1.10342903787049 
1762	 1.10347201954716 
1763	 1.10339244589995 
1764	 1.1031521829044 
1765	 1.10269663902168 
1766	 1.10253496504699 
1767	 1.10266625455391 
1768	 1.10232195441167 
1769	 1.10105744909456 
1770	 1.10107676092497 
1771	 1.10200593197528 
1772	 1.10168840196203 
1773	 1.10198164412665 
1774	 1.10045355334721 
1775	 1.09878587424795 
1776	 1.09780662816118 
1777	 1.09712770382538 
1778	 1.09653623913308 
1779	 1.09559459029307 
1780	 1.09544524648395 
1781	 1.09511178445903 
1782	 1.09476034846466 
1783	 1.09530223653764 
1784	 1.09403992257839 
1785	 1.0927738011773 
1786	 1.09271265977463 
1787	 1.09036121266746 
1788	 1.08756853671311 
1789	 1.08616507208622 
1790	 1.08402368312703 
1791	 1.08226694626722 
1792	 1.08194844562042 
1793	 1.08070445001237 
1794	 1.07768587064588 
1795	 1.07445172910734 
1796	 1.07196818128987 
1797	 1.06986496812941 
1798	 1.06668005802183 
1799	 1.06445323734205 
1800	 1.06291861560275 
1801	 1.04790481150001 
1802	 1.04094703253213 
1803	 1.03686375503572 
1804	 1.03069223631903 
1805	 1.0263181138809 
1806	 1.02683759229434 
1807	 1.02420240970638 
1808	 1.01945726021642 
1809	 1.0145121819907 
1810	 1.01030736392239 
1811	 1.00451852213539 
1812	 1.00218962708872 
1813	 1.00434686400533 
1814	 1.00257704600251 
1815	 1.00164251412131 
1816	 1.00005518022692 
1817	 0.994472287034859 
1818	 0.990099804111081 
1819	 0.98617759918032 
1820	 0.983215339793096 
1821	 0.982192539626562 
1822	 0.98463770034743 
1823	 0.983093330838799 
1824	 0.981767184450072 
1825	 0.981570733001638 
1826	 0.973772230191207 
1827	 0.972303328013037 
1828	 0.975629186259224 
1829	 0.995787251539693 
1830	 1.00208108123046 
1831	 1.00479962316232 
1832	 1.01342194356113 
1833	 1.02960776797633 
1834	 1.0188149081454 
1835	 0.956846252800834 
1836	 0.941756436803032 
1837	 0.903638294543837 
1838	 0.904027958668218 
1839	 0.94631259021327 
1840	 1.1306834379782 
1841	 1.20016347137985 
1842	 1.28482196742896 
1843	 1.24186073295769 
1844	 1.03830739265292 
1845	 0.985117853589568 
1846	 0.915231845353185 
1847	 0.860199764467238 
1848	 0.834866425020615 
1849	 0.892997923453237 
1850	 0.921701612653133 
1851	 0.941992599137344 
1852	 0.954842531057491 
1853	 1.01383321079752 
1854	 1.01750865510943 
1855	 0.965277290260421 
1856	 0.939786567187493 
1857	 0.907268309933007 
1858	 0.889465920593927 
1859	 0.885994751056131 
1860	 0.8728714965832 
1861	 0.886544290523112 
1862	 0.9399036694364 
1863	 0.969559323729031 
1864	 1.02247475706716 
1865	 1.05022550976063 
1866	 1.13469063755314 
1867	 1.05048403148565 
1868	 0.998525963863749 
1869	 0.970907133957175 
1870	 0.982674917176774 
1871	 1.07684414632481 
1872	 1.08490859904388 
1873	 1.10071816622579 
1874	 1.07304285174613 
1875	 0.91376504723275 
1876	 0.902052301317873 
1877	 0.929332368154449 
1878	 1.0053266791404 
1879	 1.02506303882374 
1880	 1.10411822241425 
1881	 1.10934784309353 
1882	 1.05055608797072 
1883	 1.03708365004819 
1884	 1.01769964081059 
1885	 1.01948528157614 
1886	 1.02207908644096 
1887	 1.07478460100506 
1888	 1.0944465603256 
1889	 1.08444175761822 
1890	 1.10567593110789 
1891	 1.12805119722349 
1892	 1.13769247107397 
1893	 1.19015121053075 
1894	 1.19958241074461 
1895	 1.12190104575554 
1896	 1.12048303074266 
1897	 1.15645389013126 
1898	 1.18906129172175 
1899	 1.25953333499569 
1900	 1.34073128283998 
1901	 1.3857340434574 
1902	 1.29570107322164 
1903	 1.31563747965268 
1904	 1.39388974253219 
1905	 1.43692530337174 
1906	 1.49192594297548 
1907	 1.58821418545262 
1908	 1.54028559527966 
1909	 1.43897116852227 
1910	 1.30788869641693 
1911	 1.25903770924385 
1912	 1.27751697311266 
1913	 1.33671487029038 
1914	 1.34104253754148 
1915	 1.38383958644757 
1916	 1.38847162599537 
1917	 1.33943778340367 
1918	 1.34167091208947 
1919	 1.38721417519086 
1920	 1.38463797328922 
1921	 1.38395378815189 
1922	 1.4012406456051 
1923	 1.41032865470591 
1924	 1.40225944569357 
1925	 1.41219552038814 
1926	 1.44283140242022 
1927	 1.45608875538469 
1928	 1.46504791954829 
1929	 1.47581481834578 
1930	 1.48164452104301 
1931	 1.48151411356461 
1932	 1.47733910891983 
1933	 1.47468305469272 
1934	 1.47455270467441 
1935	 1.47029492061239 
1936	 1.47416555087541 
1937	 1.48631641285181 
1938	 1.49180859165956 
1939	 1.50153596265482 
1940	 1.49951112233316 
1941	 1.48994435134542 
1942	 1.48604132006414 
1943	 1.49004532192961 
1944	 1.49635628662479 
1945	 1.50756199798272 
1946	 1.51359541121464 
1947	 1.51872007240596 
1948	 1.523606477016 
1949	 1.52504021793241 
1950	 1.523820569076 
1951	 1.52387261307259 
1952	 1.52048587058878 
1953	 1.50433496702858 
1954	 1.49769559480201 
1955	 1.50402720480334 
1956	 1.50307152493785 
1957	 1.50533354576306 
1958	 1.50686350362672 
1959	 1.50319478382388 
1960	 1.50222827158504 
1961	 1.50444832782059 
1962	 1.50702716995351 
1963	 1.50360938122101 
1964	 1.50144685500193 
1965	 1.49783738987643 
1966	 1.49259968981476 
1967	 1.49162960275895 
1968	 1.49067934095088 
1969	 1.48942160490927 
1970	 1.49002855783449 
1971	 1.48896027165254 
1972	 1.4867444211352 
1973	 1.48348137498588 
1974	 1.48466661447462 
1975	 1.48294234112976 
1976	 1.47936456907791 
1977	 1.47735803800066 
1978	 1.4696273106033 
1979	 1.46405025462547 
1980	 1.4621899378207 
1981	 1.45956316589598 
1982	 1.45752658175558 
1983	 1.45775898978035 
1984	 1.45482151308392 
1985	 1.45246329789828 
1986	 1.45204428074982 
1987	 1.45002040627375 
1988	 1.44786415888324 
1989	 1.44436728223537 
1990	 1.43929476612512 
1991	 1.43426671505772 
1992	 1.43174692466435 
1993	 1.42986124353371 
1994	 1.42704881094703 
1995	 1.42545375240683 
1996	 1.42607678892959 
1997	 1.42501347524229 
1998	 1.42189695350844 
1999	 1.41881374496337 
2000	 1.41573524764387 
2001	 1.41438372468954 
2002	 1.41317788551249 
2003	 1.41506325574538 
2004	 1.41653186305832 
2005	 1.41320194918958 
2006	 1.41078705689369 
2007	 1.40845593612962 
2008	 1.40559242434193 
2009	 1.40216841578132 
2010	 1.40280596580173 
2011	 1.40087708858326 
2012	 1.39567894711598 
2013	 1.39023393802934 
2014	 1.38482788939103 
2015	 1.38451716500737 
2016	 1.38740894465694 
2017	 1.39115735965584 
2018	 1.39139592232969 
2019	 1.39045803781631 
2020	 1.38635724450941 
2021	 1.38541472653762 
2022	 1.38669398371888 
2023	 1.3883403695356 
2024	 1.39192437297445 
2025	 1.39381239683613 
2026	 1.39249178149014 
2027	 1.39187875088394 
2028	 1.39274074558077 
2029	 1.39458094077857 
2030	 1.3944269072091 
2031	 1.39406772199217 
2032	 1.39390363413571 
2033	 1.39317194150374 
2034	 1.38985458711963 
2035	 1.39013837162685 
2036	 1.39310775098254 
2037	 1.39377517768505 
2038	 1.39421416976304 
2039	 1.39472363703334 
2040	 1.39426871160811 
2041	 1.39490881457723 
2042	 1.39672046500065 
2043	 1.39662151721021 
2044	 1.39655163368555 
2045	 1.39730924885152 
2046	 1.3978763482585 
2047	 1.39742674014835 
2048	 1.40080085682345 
2049	 1.40380454965807 
2050	 1.40330634157326 
2051	 1.40693196058545 
2052	 1.40949925704589 
2053	 1.40954513035597 
2054	 1.41070565321005 
2055	 1.40871938547389 
2056	 1.40780826065525 
2057	 1.40928002439304 
2058	 1.41011174498728 
2059	 1.41050050281459 
2060	 1.41184697214402 
2061	 1.41223810716418 
2062	 1.41102240746025 
2063	 1.40912988275512 
2064	 1.40919113192615 
2065	 1.40826565349183 
2066	 1.40601277304314 
2067	 1.4057592712943 
2068	 1.40448899836977 
2069	 1.40371702745015 
2070	 1.40579942601069 
2071	 1.40752217620517 
2072	 1.40898249357133 
2073	 1.41167403924256 
2074	 1.4132481675847 
2075	 1.41056667873764 
2076	 1.40770751459293 
2077	 1.40578881939897 
2078	 1.40459454155812 
2079	 1.40623966786014 
2080	 1.40947391368116 
2081	 1.41176206575192 
2082	 1.4115314998203 
2083	 1.40947425563272 
2084	 1.40724151162056 
2085	 1.40452518377252 
2086	 1.40429494867578 
2087	 1.40435778785024 
2088	 1.4060369425988 
2089	 1.40689861935992 
2090	 1.40717871970014 
2091	 1.40547317832048 
2092	 1.40569962529356 
2093	 1.40451095864052 
2094	 1.40248165469164 
2095	 1.40328013908734 
2096	 1.40077639772992 
2097	 1.39820884258465 
2098	 1.39867895778515 
2099	 1.39840231560554 
2100	 1.39843063616221 
2101	 1.39956294783149 
2102	 1.39930795838767 
2103	 1.39807196071597 
2104	 1.39660226310275 
2105	 1.39619450683984 
2106	 1.39428608579191 
2107	 1.39417540923303 
2108	 1.39482102829504 
2109	 1.39292802581846 
2110	 1.39239351392339 
2111	 1.39134781747165 
2112	 1.38746605471728 
2113	 1.38349197279137 
2114	 1.38177011415271 
2115	 1.38093424421921 
2116	 1.38126498843549 
2117	 1.38122518203186 
2118	 1.38189402277025 
2119	 1.38150164860146 
2120	 1.38052566188561 
2121	 1.37966012858191 
2122	 1.37891209490796 
2123	 1.37805253526362 
2124	 1.37478686396855 
2125	 1.37388217868554 
2126	 1.37426706869237 
2127	 1.37541420590643 
2128	 1.37783077871872 
2129	 1.37651678365486 
2130	 1.37324538407875 
2131	 1.37062518862423 
2132	 1.36858860212306 
2133	 1.36806161949255 
2134	 1.3679266959961 
2135	 1.36953727850764 
2136	 1.36897842956969 
2137	 1.36679275472354 
2138	 1.36509652338538 
2139	 1.3613634827462 
2140	 1.35920365652981 
2141	 1.35903509296347 
2142	 1.35740112521434 
2143	 1.35676087365759 
2144	 1.35662076082218 
2145	 1.35575499648025 
2146	 1.35542033245272 
2147	 1.35429341013559 
2148	 1.3499639310903 
2149	 1.34509676629969 
2150	 1.34228116274786 
2151	 1.34059820733443 
2152	 1.34082603025645 
2153	 1.3410490277964 
2154	 1.34357655996726 
2155	 1.34310194755648 
2156	 1.34004984799648 
2157	 1.33730212836649 
2158	 1.33241449065255 
2159	 1.32767406766421 
2160	 1.32805463138347 
2161	 1.32874707979304 
2162	 1.32918593450658 
2163	 1.32959308013062 
2164	 1.32742992774568 
2165	 1.32635147317517 
2166	 1.32516186254636 
2167	 1.3235005666686 
2168	 1.32206123086615 
2169	 1.32010226115913 
2170	 1.31758091803475 
2171	 1.31410625115692 
2172	 1.31362977123593 
2173	 1.31267967328524 
2174	 1.31187897796333 
2175	 1.31260353372023 
2176	 1.31199700507578 
2177	 1.31025262558105 
2178	 1.30800143600675 
2179	 1.30421398940682 
2180	 1.30089929624274 
2181	 1.29914996173699 
2182	 1.29868998980925 
2183	 1.29954367898199 
2184	 1.2979905188899 
2185	 1.29492765899175 
2186	 1.29386188438432 
2187	 1.29264250568203 
2188	 1.29194794471893 
2189	 1.29075862305983 
2190	 1.29071938918972 
2191	 1.28709129061662 
2192	 1.28308180714775 
2193	 1.28170776952834 
2194	 1.27978557428796 
2195	 1.27945306600563 
2196	 1.27885761351993 
2197	 1.27509016891302 
2198	 1.27292912681644 
2199	 1.27198535703946 
2200	 1.27271765539461 
2201	 1.27478872227124 
2202	 1.27484505305088 
2203	 1.2721815358998 
2204	 1.27023363451729 
2205	 1.26937206229796 
2206	 1.26678059920239 
2207	 1.26763744970181 
2208	 1.26875882712926 
2209	 1.26904501114542 
2210	 1.2683897682781 
2211	 1.26918737840094 
2212	 1.2706954174899 
2213	 1.26623619853338 
2214	 1.26503225622222 
2215	 1.26561649059412 
2216	 1.26109862505341 
2217	 1.25878762091975 
2218	 1.25907428421579 
2219	 1.25874063984334 
2220	 1.25971220446846 
2221	 1.26270743605211 
2222	 1.26250024736048 
2223	 1.25864193449711 
2224	 1.25745542806792 
2225	 1.25478320443461 
2226	 1.25409018742054 
2227	 1.25796729204707 
2228	 1.26107562117792 
2229	 1.26615891335679 
2230	 1.26951249577158 
2231	 1.27215971490027 
2232	 1.27517424715617 
2233	 1.27607443235635 
2234	 1.2741212210736 
2235	 1.27459273554796 
2236	 1.27479802391886 
2237	 1.27441070916274 
2238	 1.27826728478723 
2239	 1.28172856620138 
2240	 1.28544561121179 
2241	 1.290304502505 
2242	 1.29462787139556 
2243	 1.2992658680041 
2244	 1.30103381308169 
2245	 1.30136222356825 
2246	 1.30237361358486 
2247	 1.30411603612375 
2248	 1.30883818002993 
2249	 1.3151601373152 
2250	 1.31924069917994 
2251	 1.32198615652167 
2252	 1.32583231133283 
2253	 1.32952223456586 
2254	 1.33511306415714 
2255	 1.34313171682216 
2256	 1.34821887178645 
2257	 1.35191001690167 
2258	 1.35401946322528 
2259	 1.35468617393064 
2260	 1.35333224073268 
2261	 1.35249842689299 
2262	 1.35325605646736 
2263	 1.35736887628253 
2264	 1.36261419310976 
2265	 1.36564179346628 
2266	 1.36943549629007 
2267	 1.37284554402194 
2268	 1.37513925560153 
2269	 1.38046503712521 
2270	 1.383719538282 
2271	 1.38626576649873 
2272	 1.38894979360046 
2273	 1.38978989824713 
2274	 1.39433410247508 
2275	 1.39668927515691 
2276	 1.39537994675373 
2277	 1.39563509806101 
2278	 1.39265781258246 
2279	 1.38803953858632 
2280	 1.38626081055228 
2281	 1.38295544822453 
2282	 1.3843563063616 
2283	 1.39082443957078 
2284	 1.39417438251116 
2285	 1.39448147647496 
2286	 1.39576727249334 
2287	 1.39512005311902 
2288	 1.3942430702085 
2289	 1.39437125778948 
2290	 1.40297447225312 
2291	 1.40952047743999 
2292	 1.40648663957599 
2293	 1.40737572744104 
2294	 1.40661939591244 
2295	 1.40361221316613 
2296	 1.4089051131418 
2297	 1.41248287658014 
2298	 1.41344538705744 
2299	 1.4155179399399 
2300	 1.41577592493974 
2301	 1.42147452629646 
2302	 1.42558625012369 
2303	 1.42734568653743 
2304	 1.42765651443177 
2305	 1.42259981994971 
2306	 1.4210287985535 
2307	 1.42331764793998 
2308	 1.43331371259596 
2309	 1.44547408939783 
2310	 1.44914812636805 
2311	 1.45014255548799 
2312	 1.44697777273701 
2313	 1.44417511583587 
2314	 1.4467821297534 
2315	 1.4410572884112 
2316	 1.4352881022302 
2317	 1.43861805526038 
2318	 1.43948310064748 
2319	 1.44245854163746 
2320	 1.45054431368779 
2321	 1.45795976230622 
2322	 1.46231023757413 
2323	 1.46439667901292 
2324	 1.46859963999325 
2325	 1.47128173729308 
2326	 1.46722653752541 
2327	 1.46649355980941 
2328	 1.47107214340782 
2329	 1.47748421996082 
2330	 1.47835839532882 
2331	 1.47462662108038 
2332	 1.47556448372903 
2333	 1.4708622909016 
2334	 1.47114811819181 
2335	 1.48095099452442 
2336	 1.48735964953891 
2337	 1.49504964865716 
2338	 1.49579803215104 
2339	 1.49071552110346 
2340	 1.48537507068296 
2341	 1.47853287558402 
2342	 1.47034327194372 
2343	 1.4646372699638 
2344	 1.46375640338325 
2345	 1.46320267448766 
2346	 1.4723681149214 
2347	 1.48336033137452 
2348	 1.48981001704147 
2349	 1.49368760410486 
2350	 1.49920945303121 
2351	 1.50290674475644 
2352	 1.50021636494397 
2353	 1.50749472585445 
2354	 1.50333816341721 
2355	 1.49603549815945 
2356	 1.51243725307817 
2357	 1.51911591658829 
2358	 1.51406876841569 
2359	 1.51243190161222 
2360	 1.49576507232989 
2361	 1.48477063280357 
2362	 1.4906675817391 
2363	 1.48727053611798 
2364	 1.47935519697435 
2365	 1.46968685210823 
2366	 1.45606366366662 
2367	 1.462039846342 
2368	 1.48433090321035 
2369	 1.49809108793028 
2370	 1.51528825812241 
2371	 1.52217731573062 
2372	 1.51984738913645 
2373	 1.5004813646883 
2374	 1.4971463133317 
2375	 1.49339337305326 
2376	 1.49352717698962 
2377	 1.50218813824946 
2378	 1.49794868451683 
2379	 1.48240389179761 
2380	 1.47745716247368 
2381	 1.47879930226281 
2382	 1.48677209380768 
2383	 1.50473712064538 
2384	 1.51229100595005 
2385	 1.51651601426354 
2386	 1.50499668904496 
2387	 1.47912661993599 
2388	 1.47147563928601 
2389	 1.46613333149812 
2390	 1.46598947704118 
2391	 1.47259101133295 
2392	 1.48043263292449 
2393	 1.48300120467446 
2394	 1.49306182530231 
2395	 1.53142387806081 
2396	 1.54331977901141 
2397	 1.54466156107721 
2398	 1.54063304434052 
2399	 1.50814332890783 
2400	 1.49524554672906 
2401	 1.48460589088922 
2402	 1.48716418424245 
2403	 1.50463949786143 
2404	 1.50995675574617 
2405	 1.51568127457247 
2406	 1.5137971549109 
2407	 1.50351889617208 
2408	 1.51077946249394 
2409	 1.50857332593891 
2410	 1.50961305726987 
2411	 1.50780736938877 
2412	 1.49115698925962 
2413	 1.49768422327503 
2414	 1.49618567001139 
2415	 1.49829746390634 
2416	 1.53978890220509 
2417	 1.57279133623717 
2418	 1.59153932314175 
2419	 1.61337329638674 
2420	 1.60766848731733 
2421	 1.58129744995687 
2422	 1.58922356644384 
2423	 1.6032725906986 
2424	 1.58950411940883 
2425	 1.56301531117855 
2426	 1.54492022175401 
2427	 1.5460856746403 
2428	 1.54714029531731 
2429	 1.58341903069386 
2430	 1.62661831757385 
2431	 1.64532119080498 
2432	 1.68039385912803 
2433	 1.67346703514807 
2434	 1.66220293162755 
2435	 1.63903067069586 
2436	 1.62111566552984 
2437	 1.58164693167605 
2438	 1.58114893024871 
2439	 1.61174664787207 
2440	 1.62426117431168 
2441	 1.66819752932838 
2442	 1.68167200688881 
2443	 1.64553866059748 
2444	 1.64426921298854 
2445	 1.64402994103218 
2446	 1.65226497599233 
2447	 1.71650788465645 
2448	 1.73257713127573 
2449	 1.72397720404755 
2450	 1.71541215325033 
2451	 1.62664792772385 
2452	 1.62491896068391 
2453	 1.69743402210053 
2454	 1.71466667281413 
2455	 1.78240815540239 
2456	 1.79767248932655 
2457	 1.72606393152283 
2458	 1.69893197159792 
2459	 1.67520337593627 
2460	 1.66603342923314 
2461	 1.66187386395247 
2462	 1.65269640389892 
2463	 1.65427647145321 
2464	 1.66448443767737 
2465	 1.67500369003092 
2466	 1.70785637105424 
2467	 1.77624513760972 
2468	 1.81671407714582 
2469	 1.87584305176892 
2470	 1.90712818506119 
2471	 1.92297477101251 
2472	 1.92736851469815 
2473	 1.83037053449392 
2474	 1.80994310726268 
2475	 1.82369186082545 
2476	 1.86201431905676 
2477	 2.06323679732433 
2478	 2.12452998093881 
2479	 2.06134422488593 
2480	 1.99358308569829 
2481	 1.78526485610874 
2482	 1.71416760925285 
2483	 1.72814490569793 
2484	 1.78712477369324 
2485	 2.04482198174342 
2486	 1.94919760543705 
2487	 1.62127595509634 
2488	 1.54970680534804 
2489	 1.26574006282004 
2490	 1.33431649780055 
2491	 2.16177653940325 
2492	 2.06130592458941 
2493	 2.07878508958062 
2494	 2.30071068556302 
2495	 1.93574984741696 
2496	 2.07893672413857 
2497	 2.27985846029601 
2498	 1.87551996285129 
2499	 1.9953756610763 
2500	 2.09275587621053 
