Wavelength	ref00042.asd
350	 3.02385598137626E-02 
351	 3.03061485273152E-02 
352	 2.95530144535658E-02 
353	 3.08046690703184E-02 
354	 3.04864252119428E-02 
355	 2.99179742637787E-02 
356	 3.01848124913566E-02 
357	 3.00260736795339E-02 
358	 3.01350991938268E-02 
359	 0.030586635425825 
360	 0.03109416720203 
361	 3.06904031480855E-02 
362	 0.03070562256155 
363	 3.10220337336767E-02 
364	 3.07162013710433E-02 
365	 3.15003300522599E-02 
366	 3.19453913508906E-02 
367	 3.15041366817688E-02 
368	 3.13269222219209E-02 
369	 3.17802439045774E-02 
370	 3.20949029946189E-02 
371	 3.17490809566391E-02 
372	 3.18648797983556E-02 
373	 3.20114745904766E-02 
374	 3.20358586818903E-02 
375	 3.19781429527207E-02 
376	 3.21342353895115E-02 
377	 3.24026384614959E-02 
378	 0.032637838618229 
379	 3.26988452951695E-02 
380	 3.25272370975214E-02 
381	 3.29113839104624E-02 
382	 3.39640962726838E-02 
383	 3.34623849427492E-02 
384	 3.36196248137117E-02 
385	 3.41623054396262E-02 
386	 0.033993103664495 
387	 3.44705872671502E-02 
388	 0.034729136810238 
389	 3.46036799547944E-02 
390	 3.48001621710994E-02 
391	 3.53350319097739E-02 
392	 3.56453732079075E-02 
393	 3.55312427255637E-02 
394	 3.58078111881384E-02 
395	 3.63182276451457E-02 
396	 3.66741105029386E-02 
397	 3.65617903667092E-02 
398	 0.036490341496803 
399	 3.65290382771063E-02 
400	 3.68378401625892E-02 
401	 3.75882343188032E-02 
402	 3.77564535591396E-02 
403	 3.76403657924862E-02 
404	 3.77195214060992E-02 
405	 3.85196903713464E-02 
406	 3.85366312167004E-02 
407	 3.84000089382292E-02 
408	 3.91091681841468E-02 
409	 0.039444374746156 
410	 3.95774972886523E-02 
411	 3.97355082953263E-02 
412	 4.00947395945606E-02 
413	 4.01583443818664E-02 
414	 4.03030132370442E-02 
415	 4.06876554937848E-02 
416	 4.07028637575694E-02 
417	 4.10265456796921E-02 
418	 0.041388442384101 
419	 4.13729126515756E-02 
420	 4.15535577076737E-02 
421	 4.17872253999116E-02 
422	 0.041930421237553 
423	 4.19082864446393E-02 
424	 4.22806511556964E-02 
425	 4.27324698433838E-02 
426	 4.29420099357975E-02 
427	 4.28620269922987E-02 
428	 0.043102230965506 
429	 0.043393590075323 
430	 4.33277327706529E-02 
431	 4.35740863300346E-02 
432	 4.38311922115143E-02 
433	 4.39670285605297E-02 
434	 4.40504360355565E-02 
435	 4.42013843008725E-02 
436	 4.43376238895716E-02 
437	 4.44167751400126E-02 
438	 4.45558843883471E-02 
439	 4.46243396827748E-02 
440	 4.47544233045268E-02 
441	 4.50756805384702E-02 
442	 4.52002026799986E-02 
443	 4.52874010237309E-02 
444	 4.54383907481084E-02 
445	 4.56568115898528E-02 
446	 4.56996240880881E-02 
447	 4.57727183681027E-02 
448	 4.59850043068037E-02 
449	 4.59929428313179E-02 
450	 4.60900680562692E-02 
451	 4.62723254242597E-02 
452	 4.64190311117569E-02 
453	 4.65403527229007E-02 
454	 4.67249321388836E-02 
455	 4.69338350790485E-02 
456	 4.69783311934035E-02 
457	 4.69623184192689E-02 
458	 4.69630439203581E-02 
459	 4.70342021243276E-02 
460	 4.71970026431008E-02 
461	 4.72523384315922E-02 
462	 0.047280635133869 
463	 4.74725915952738E-02 
464	 4.74984291668567E-02 
465	 4.76222694213122E-02 
466	 4.78892972078181E-02 
467	 4.79298670609097E-02 
468	 4.79696247955755E-02 
469	 4.79883481687283E-02 
470	 4.79667532590756E-02 
471	 4.81422512942931E-02 
472	 4.83128651458734E-02 
473	 4.84126085103598E-02 
474	 4.84868632814682E-02 
475	 0.048597806284893 
476	 4.86963858831614E-02 
477	 0.048741481854409 
478	 4.87203781168725E-02 
479	 4.88993835885437E-02 
480	 4.91773408429593E-02 
481	 4.93446350163289E-02 
482	 4.93708295156151E-02 
483	 4.94449317015023E-02 
484	 4.96575803236325E-02 
485	 4.99733315315039E-02 
486	 5.01268185498774E-02 
487	 5.02087180666041E-02 
488	 5.03349190818408E-02 
489	 0.05047223659522 
490	 5.06642042926281E-02 
491	 5.08729594915921E-02 
492	 5.10483251496219E-02 
493	 5.12960204586562E-02 
494	 5.15568191374173E-02 
495	 5.18052738809878E-02 
496	 0.052073004299702 
497	 5.22965999150863E-02 
498	 5.25248736229114E-02 
499	 5.28139287570482E-02 
500	 5.31450559369157E-02 
501	 5.35467980246494E-02 
502	 5.39716728969469E-02 
503	 5.43281937439962E-02 
504	 5.45891189380114E-02 
505	 5.48678205232285E-02 
506	 5.52609591434875E-02 
507	 5.58157612956193E-02 
508	 5.63656871945894E-02 
509	 5.67919249278793E-02 
510	 0.05709842082869 
511	 5.77153299448805E-02 
512	 5.83718801765244E-02 
513	 5.89855383466816E-02 
514	 5.96512229396459E-02 
515	 6.02491179011319E-02 
516	 6.09416203306556E-02 
517	 6.18028327679315E-02 
518	 6.25972675404403E-02 
519	 6.33519809984961E-02 
520	 6.40578524020923E-02 
521	 6.47244926254312E-02 
522	 6.54709578263564E-02 
523	 6.62827661069622E-02 
524	 6.70891112813814E-02 
525	 6.77635101997587E-02 
526	 6.85251105490649E-02 
527	 6.93331558169196E-02 
528	 7.00615439634703E-02 
529	 7.04902251089577E-02 
530	 7.10773416439231E-02 
531	 7.17630485485549E-02 
532	 7.22389047458105E-02 
533	 7.28300580582765E-02 
534	 7.34042546317657E-02 
535	 7.38519290218834E-02 
536	 0.074185330474422 
537	 7.45519582224939E-02 
538	 7.49142807077695E-02 
539	 7.52191640913653E-02 
540	 7.56473846277724E-02 
541	 7.60283118354126E-02 
542	 7.62904963692647E-02 
543	 7.64776831692939E-02 
544	 0.076860760029098 
545	 7.72907892241304E-02 
546	 7.76188051921006E-02 
547	 7.78428121223427E-02 
548	 7.82091913560848E-02 
549	 7.85879250061637E-02 
550	 7.87571660195765E-02 
551	 7.90396672882872E-02 
552	 7.93021812865372E-02 
553	 7.94510162311566E-02 
554	 7.94821441489131E-02 
555	 7.95347313912961E-02 
556	 7.95989643319208E-02 
557	 7.96275660684593E-02 
558	 7.95859720077465E-02 
559	 7.95569381011727E-02 
560	 7.94519154702723E-02 
561	 7.91183489832352E-02 
562	 7.89312471241417E-02 
563	 7.88214742118505E-02 
564	 7.86745171983333E-02 
565	 7.83926275313161E-02 
566	 0.078268157800654 
567	 0.078157317547186 
568	 7.78596324994054E-02 
569	 7.76739213413989E-02 
570	 7.74229558486087E-02 
571	 7.71003864568513E-02 
572	 0.076864434153431 
573	 7.64984941641504E-02 
574	 7.61978755817859E-02 
575	 7.60739193465364E-02 
576	 7.58461444653687E-02 
577	 7.56290523125207E-02 
578	 7.53930499460825E-02 
579	 0.075097001082558 
580	 7.51008875643025E-02 
581	 7.50649478172734E-02 
582	 7.49000598814555E-02 
583	 0.074928610397127 
584	 7.49301990938937E-02 
585	 7.49757897046301E-02 
586	 7.51268260491355E-02 
587	 7.51271117062327E-02 
588	 7.51601518925556E-02 
589	 7.52323539370622E-02 
590	 7.52187444274638E-02 
591	 7.51370215770932E-02 
592	 7.51637744807554E-02 
593	 7.53295305359607E-02 
594	 7.53675419156429E-02 
595	 7.55005906826204E-02 
596	 7.56259182051391E-02 
597	 7.55995176884768E-02 
598	 7.56351502136154E-02 
599	 7.56647421863919E-02 
600	 7.57034295855571E-02 
601	 7.58527468312142E-02 
602	 7.59546338091345E-02 
603	 7.60148095971175E-02 
604	 7.60436098004933E-02 
605	 7.59405518048018E-02 
606	 7.59972336043088E-02 
607	 7.61297200910405E-02 
608	 7.61069071478721E-02 
609	 7.61689167699255E-02 
610	 7.62621343733075E-02 
611	 7.63336883281757E-02 
612	 7.63712844927947E-02 
613	 7.64897708521884E-02 
614	 0.07658112462595 
615	 7.65397021330307E-02 
616	 7.64970662612122E-02 
617	 7.65221309493456E-02 
618	 7.65639619892699E-02 
619	 7.65072533607721E-02 
620	 7.65103781861972E-02 
621	 7.66203145019199E-02 
622	 7.67922648098318E-02 
623	 7.68320175092188E-02 
624	 7.69017963590239E-02 
625	 7.69888028828418E-02 
626	 7.70489457854479E-02 
627	 7.72092014549529E-02 
628	 7.73514964705073E-02 
629	 7.74696069795925E-02 
630	 0.077667454521582 
631	 7.78232618186484E-02 
632	 7.79306718799709E-02 
633	 7.80032532870606E-02 
634	 7.80390269273159E-02 
635	 7.80743992088273E-02 
636	 0.078091642666626 
637	 7.80687993152273E-02 
638	 7.81441119536945E-02 
639	 7.81892585350214E-02 
640	 7.81609805261795E-02 
641	 7.81505172375635E-02 
642	 7.80070317645607E-02 
643	 7.79018008394077E-02 
644	 7.79491205615632E-02 
645	 7.78102509960607E-02 
646	 7.77560398690747E-02 
647	 7.77959872763555E-02 
648	 7.77852984421966E-02 
649	 7.77857431385287E-02 
650	 7.78588294587727E-02 
651	 7.79757439524759E-02 
652	 7.79621584930375E-02 
653	 7.82115136435657E-02 
654	 7.84849287642233E-02 
655	 7.85090086384424E-02 
656	 7.87333312319663E-02 
657	 7.89018431819476E-02 
658	 7.89147520773749E-02 
659	 7.88724254492944E-02 
660	 7.90057125950554E-02 
661	 7.91457910264286E-02 
662	 7.91973155209827E-02 
663	 7.93203232204873E-02 
664	 7.94692432356709E-02 
665	 7.95942328115191E-02 
666	 7.96838762128947E-02 
667	 7.99289344193526E-02 
668	 8.01839629099088E-02 
669	 0.080391409940307 
670	 8.05994836199101E-02 
671	 8.09090076462437E-02 
672	 8.13336388353442E-02 
673	 8.17988153237765E-02 
674	 8.20662852778428E-02 
675	 8.24946058540146E-02 
676	 8.30453394505524E-02 
677	 8.35324245590112E-02 
678	 8.39245681934463E-02 
679	 0.084423503337125 
680	 8.50569706825945E-02 
681	 8.56590686233287E-02 
682	 8.63313651312439E-02 
683	 0.087033724426645 
684	 8.77044086762835E-02 
685	 8.82403946056416E-02 
686	 8.91674093288766E-02 
687	 9.03867700274376E-02 
688	 0.091365049277063 
689	 9.20616853861804E-02 
690	 9.27406817054075E-02 
691	 9.36196741158723E-02 
692	 0.094756548216671 
693	 9.60027315349506E-02 
694	 0.097457033672711 
695	 9.91815581577874E-02 
696	 0.101036994803724 
697	 0.103045741411743 
698	 0.105277701978541 
699	 0.107755742326881 
700	 0.110074435750797 
701	 0.112630028349055 
702	 0.11547949212882 
703	 0.118191833795096 
704	 0.120845675017799 
705	 0.12349283286952 
706	 0.126237538353179 
707	 0.129243427182951 
708	 0.132306080605409 
709	 0.135318809432119 
710	 0.138256602226852 
711	 0.141410681274036 
712	 0.144668224951096 
713	 0.147952897304339 
714	 0.151279897570333 
715	 0.154776825862907 
716	 0.158465210565744 
717	 0.162425550079714 
718	 0.166612352393114 
719	 0.170797168000526 
720	 0.174737603347787 
721	 0.178400835184428 
722	 0.182166128626697 
723	 0.186225191261167 
724	 0.190700400758357 
725	 0.195110649541642 
726	 0.199309010274929 
727	 0.203559201768617 
728	 0.208112489491354 
729	 0.212598987529471 
730	 0.217011422573651 
731	 0.221286588907919 
732	 0.22540402438164 
733	 0.22940318450133 
734	 0.233424636805836 
735	 0.237526448924694 
736	 0.241589977526374 
737	 0.245637567552678 
738	 0.249482921313763 
739	 0.253115204630991 
740	 0.256788092835024 
741	 0.260177616803561 
742	 0.263308370421339 
743	 0.266288890058916 
744	 0.269142537231276 
745	 0.271831500882809 
746	 0.274306263314947 
747	 0.276523801971762 
748	 0.278627689717509 
749	 0.280686436265547 
750	 0.282642491127179 
751	 0.28424856609338 
752	 0.285749908584271 
753	 0.287115123795408 
754	 0.28830127583133 
755	 0.289489539328466 
756	 0.290669831836923 
757	 0.291825313798694 
758	 0.293057056291618 
759	 0.295406219395569 
760	 0.298620116256046 
761	 0.301513885362738 
762	 0.301517641897212 
763	 0.300734774100652 
764	 0.300006840104294 
765	 0.29943042774706 
766	 0.298595784292896 
767	 0.298148980499063 
768	 0.29807984693104 
769	 0.298186889565639 
770	 0.298195529261427 
771	 0.298353888650055 
772	 0.298646885731843 
773	 0.298834069874518 
774	 0.299032957673261 
775	 0.299234995788827 
776	 0.299432091229733 
777	 0.299647866436767 
778	 0.299822815515447 
779	 0.299953508661821 
780	 0.300079700803157 
781	 0.300329589814179 
782	 0.300553632642322 
783	 0.300756391024574 
784	 0.30101187505734 
785	 0.301236916348704 
786	 0.301433916293946 
787	 0.301631439336121 
788	 0.301873392937283 
789	 0.302150825059296 
790	 0.302394734042374 
791	 0.302595184027 
792	 0.302896258743845 
793	 0.303051609813129 
794	 0.303256341958149 
795	 0.30369610857763 
796	 0.303953588713168 
797	 0.304093171089351 
798	 0.304255584982014 
799	 0.304578567228057 
800	 0.304858135011142 
801	 0.305058283123986 
802	 0.305210747257952 
803	 0.30540916332392 
804	 0.305784854640402 
805	 0.306079896000854 
806	 0.306182326882152 
807	 0.306434596568603 
808	 0.306774004724424 
809	 0.306929619217285 
810	 0.306829314010041 
811	 0.307465032332949 
812	 0.307887201012265 
813	 0.308064465812159 
814	 0.308462229768012 
815	 0.30866759401322 
816	 0.308979252232073 
817	 0.309426935865483 
818	 0.309696803100448 
819	 0.309811986131904 
820	 0.309986697304091 
821	 0.310295589837717 
822	 0.310533033938683 
823	 0.310625057747505 
824	 0.310789032325532 
825	 0.311140406635902 
826	 0.311261310115499 
827	 0.311452296851967 
828	 0.311712236606552 
829	 0.311930906936865 
830	 0.312192146195616 
831	 0.312359909000683 
832	 0.312465715194784 
833	 0.312671743155705 
834	 0.313096325394718 
835	 0.313277780640184 
836	 0.313243464239054 
837	 0.313623585599954 
838	 0.313770651328279 
839	 0.31401845869585 
840	 0.31448396012219 
841	 0.314490709956023 
842	 0.314661823266904 
843	 0.314913735825082 
844	 0.315058555836908 
845	 0.315290762192675 
846	 0.315423320700439 
847	 0.315605379326149 
848	 0.316019937154686 
849	 0.316181382178982 
850	 0.316457293810762 
851	 0.316778613408231 
852	 0.316803548495718 
853	 0.317048821024051 
854	 0.317324159970129 
855	 0.317503149989232 
856	 0.317638716076641 
857	 0.318003505822395 
858	 0.318342078550568 
859	 0.318524387121691 
860	 0.318736574599842 
861	 0.31885953580726 
862	 0.319089316168951 
863	 0.319474968141301 
864	 0.319482355528698 
865	 0.31971858707729 
866	 0.320143341160611 
867	 0.320475817617919 
868	 0.320487058744704 
869	 0.320626414947262 
870	 0.320904072212192 
871	 0.321143619658448 
872	 0.321457054317135 
873	 0.321686645116767 
874	 0.321863090762607 
875	 0.322129572063766 
876	 0.322305951568064 
877	 0.322622942821628 
878	 0.322940651455537 
879	 0.322811080731528 
880	 0.323004818982275 
881	 0.323158025552651 
882	 0.323197597010835 
883	 0.323625165255755 
884	 0.323661036185848 
885	 0.323848943914975 
886	 0.324409619176369 
887	 0.324508580436375 
888	 0.32470031118774 
889	 0.324853775290373 
890	 0.324903058625895 
891	 0.325365367762001 
892	 0.326044717040966 
893	 0.326229807958182 
894	 0.325635713374914 
895	 0.326050518806456 
896	 0.326419563894151 
897	 0.32669044209479 
898	 0.327098513658003 
899	 0.327029111709757 
900	 0.327528207816011 
901	 0.327994754373754 
902	 0.327454640114344 
903	 0.327796598279676 
904	 0.328534909973491 
905	 0.328886246654247 
906	 0.32831817430789 
907	 0.328515077916493 
908	 0.328781909415482 
909	 0.328906030276958 
910	 0.329188053304356 
911	 0.329305618292305 
912	 0.32937103562672 
913	 0.329475872191495 
914	 0.329649026337455 
915	 0.330064209554683 
916	 0.330235237552173 
917	 0.330133180660368 
918	 0.330297934965952 
919	 0.330696201112099 
920	 0.330624570995782 
921	 0.33027782906438 
922	 0.330946257695302 
923	 0.330969976247445 
924	 0.331008615666829 
925	 0.331536404793114 
926	 0.332061750439554 
927	 0.331719346523434 
928	 0.331127573795711 
929	 0.330945023465603 
930	 0.331143454000217 
931	 0.331158181419179 
932	 0.330707134336768 
933	 0.329958147975795 
934	 0.329784780206387 
935	 0.32969999986949 
936	 0.330319397191297 
937	 0.331377765119466 
938	 0.330691092117289 
939	 0.331271508007336 
940	 0.331205040806893 
941	 0.329738833672288 
942	 0.330226744589161 
943	 0.33019348555938 
944	 0.329697909069978 
945	 0.329485028632416 
946	 0.33037364807805 
947	 0.329320628974743 
948	 0.327909706894225 
949	 0.327895670122399 
950	 0.328582448216904 
951	 0.328148275233757 
952	 0.327575009681649 
953	 0.327532771435022 
954	 0.326512134455984 
955	 0.32591106242922 
956	 0.325224473266493 
957	 0.324473552866296 
958	 0.325530666603552 
959	 0.324432872200335 
960	 0.324507385346372 
961	 0.326778485322789 
962	 0.32531668916071 
963	 0.324857700795766 
964	 0.324913693147616 
965	 0.324688776246331 
966	 0.324806995150651 
967	 0.324384582769073 
968	 0.324674357255175 
969	 0.325639424106102 
970	 0.324839769341653 
971	 0.32569643461549 
972	 0.325756377985606 
973	 0.324262830680413 
974	 0.324340756785969 
975	 0.324424261177923 
976	 0.325144182206895 
977	 0.326365775960228 
978	 0.326599316961332 
979	 0.324951396607011 
980	 0.325102160664323 
981	 0.326914952250196 
982	 0.326037030368012 
983	 0.325989971813027 
984	 0.325744450572224 
985	 0.325555422943203 
986	 0.326900831421992 
987	 0.32759136852198 
988	 0.327207719466477 
989	 0.326788607599702 
990	 0.327718686743687 
991	 0.327356259625821 
992	 0.327173510171456 
993	 0.327908550066858 
994	 0.329058198720845 
995	 0.327787890469348 
996	 0.327573206885573 
997	 0.328512867363817 
998	 0.328959367223608 
999	 0.328559063041054 
1000	 0.329614063487527 
1001	 0.336802143552517 
1002	 0.337072808589047 
1003	 0.337343743920106 
1004	 0.337528043310969 
1005	 0.337918791963602 
1006	 0.338447511973611 
1007	 0.338841585024953 
1008	 0.33934465412775 
1009	 0.339697996756517 
1010	 0.33983821537844 
1011	 0.340183485447484 
1012	 0.340493863238636 
1013	 0.34077240696666 
1014	 0.34109683898005 
1015	 0.341314033713614 
1016	 0.341629726529223 
1017	 0.34196465326276 
1018	 0.3422623709845 
1019	 0.342592989156814 
1020	 0.342891580527822 
1021	 0.343121396318922 
1022	 0.343372340346866 
1023	 0.34357693856912 
1024	 0.343915879906578 
1025	 0.344284858511429 
1026	 0.344626041003438 
1027	 0.34510062961635 
1028	 0.345374530343508 
1029	 0.345592874759478 
1030	 0.346098462608177 
1031	 0.34643854163143 
1032	 0.346757022833862 
1033	 0.347133568069313 
1034	 0.347531401961757 
1035	 0.347843957969633 
1036	 0.348123280729876 
1037	 0.34845706399322 
1038	 0.348827157856111 
1039	 0.349101416033614 
1040	 0.34926869831268 
1041	 0.34959614388613 
1042	 0.349759382913059 
1043	 0.349921231642343 
1044	 0.350344985717557 
1045	 0.350626186534891 
1046	 0.35086258319497 
1047	 0.351092823033477 
1048	 0.351166509304125 
1049	 0.351303234744733 
1050	 0.351488363641457 
1051	 0.351765167786718 
1052	 0.351958005904067 
1053	 0.352010738598608 
1054	 0.352093732991918 
1055	 0.352179373163297 
1056	 0.352290946096711 
1057	 0.352543441205284 
1058	 0.35259272459926 
1059	 0.352659615365387 
1060	 0.352923950686973 
1061	 0.352950614831911 
1062	 0.352968442925103 
1063	 0.353168168309897 
1064	 0.353147008358678 
1065	 0.353143658020567 
1066	 0.353148682084122 
1067	 0.353379201331239 
1068	 0.353323606794503 
1069	 0.353248555861332 
1070	 0.353394798195339 
1071	 0.353435911866396 
1072	 0.353461357898183 
1073	 0.3536031387765 
1074	 0.353552847854725 
1075	 0.353428281797181 
1076	 0.353523513201929 
1077	 0.353555765242959 
1078	 0.353498922151555 
1079	 0.353510875143182 
1080	 0.353428970867196 
1081	 0.353347826606805 
1082	 0.353169429211374 
1083	 0.353176029282048 
1084	 0.353147291292145 
1085	 0.353067982442624 
1086	 0.353139681239322 
1087	 0.353101863066475 
1088	 0.353070049214405 
1089	 0.353137740636165 
1090	 0.353069483510449 
1091	 0.353035193330786 
1092	 0.353104259461635 
1093	 0.353126021749831 
1094	 0.353154442035422 
1095	 0.353227507656631 
1096	 0.353268715687173 
1097	 0.353275349809085 
1098	 0.353260929199531 
1099	 0.353263047754314 
1100	 0.353173027846314 
1101	 0.353111055814894 
1102	 0.353173199787169 
1103	 0.353244795049086 
1104	 0.353403952534163 
1105	 0.353507446757048 
1106	 0.353498802669948 
1107	 0.353444134426148 
1108	 0.353466009323774 
1109	 0.353593586542613 
1110	 0.353584872319436 
1111	 0.353612824074599 
1112	 0.353763116817363 
1113	 0.353788448909907 
1114	 0.35364165121957 
1115	 0.353590657022343 
1116	 0.353605104531862 
1117	 0.353464724502316 
1118	 0.353298851669056 
1119	 0.353384326841699 
1120	 0.35331685669661 
1121	 0.35304416907974 
1122	 0.35274763725275 
1123	 0.352349673383593 
1124	 0.351965995348209 
1125	 0.351890456274626 
1126	 0.351567943680989 
1127	 0.351229232533263 
1128	 0.350703003954744 
1129	 0.350010414503787 
1130	 0.349344862213181 
1131	 0.348664648147636 
1132	 0.348050481846792 
1133	 0.347598122050951 
1134	 0.34676364444911 
1135	 0.345983375876954 
1136	 0.345248936984348 
1137	 0.344310987352032 
1138	 0.343542755532429 
1139	 0.342702369852896 
1140	 0.341704867155697 
1141	 0.340753032751976 
1142	 0.339715847877473 
1143	 0.338710752457595 
1144	 0.337711780970823 
1145	 0.336711693344822 
1146	 0.335795262139076 
1147	 0.334672786837924 
1148	 0.333407461082145 
1149	 0.332314280109075 
1150	 0.331132585353583 
1151	 0.330156920645613 
1152	 0.329430292178461 
1153	 0.328720182490007 
1154	 0.328012979577516 
1155	 0.32748854162779 
1156	 0.32703268669289 
1157	 0.326634925350928 
1158	 0.326223574357054 
1159	 0.325787144945807 
1160	 0.325424093041932 
1161	 0.325056201921733 
1162	 0.324734251163586 
1163	 0.324437759741844 
1164	 0.324228397800033 
1165	 0.324134065023137 
1166	 0.323916939362591 
1167	 0.323625732777426 
1168	 0.323463833756713 
1169	 0.323301575565972 
1170	 0.323102358155904 
1171	 0.323094753941321 
1172	 0.323119449807301 
1173	 0.323047816414778 
1174	 0.322970276235111 
1175	 0.322861486605894 
1176	 0.322811983910723 
1177	 0.322739684847358 
1178	 0.32266311476401 
1179	 0.32256977054303 
1180	 0.322472127170612 
1181	 0.322354927146387 
1182	 0.322217373398447 
1183	 0.322079037417832 
1184	 0.321928349409574 
1185	 0.321798035884883 
1186	 0.321640150411052 
1187	 0.321522287848151 
1188	 0.321400317358049 
1189	 0.321366826971322 
1190	 0.32135009849023 
1191	 0.321366624981941 
1192	 0.321386323217444 
1193	 0.321356808443004 
1194	 0.321315907156003 
1195	 0.321203430623552 
1196	 0.321191574848545 
1197	 0.321216348445803 
1198	 0.32122736372164 
1199	 0.321293256826319 
1200	 0.321326445254646 
1201	 0.321309177085482 
1202	 0.321354876048046 
1203	 0.321424839487773 
1204	 0.321512597531656 
1205	 0.321635579182508 
1206	 0.321749524474955 
1207	 0.321884548797104 
1208	 0.322004722446609 
1209	 0.322087089275321 
1210	 0.322238257791779 
1211	 0.322389357362586 
1212	 0.322504948513036 
1213	 0.322669519014696 
1214	 0.322883471108711 
1215	 0.323045130387408 
1216	 0.323178501376388 
1217	 0.323373410909411 
1218	 0.323585175553103 
1219	 0.3237725117519 
1220	 0.323958075094703 
1221	 0.324214242673684 
1222	 0.324501848504542 
1223	 0.324750536360261 
1224	 0.325062818624044 
1225	 0.32533504231873 
1226	 0.325523812086458 
1227	 0.325754630913645 
1228	 0.326015883529647 
1229	 0.326283363846159 
1230	 0.326539408731775 
1231	 0.32676520880345 
1232	 0.327018663923333 
1233	 0.327291757059373 
1234	 0.327533267696668 
1235	 0.327765167603745 
1236	 0.328005944751109 
1237	 0.32820112758325 
1238	 0.328477326457692 
1239	 0.328841023161976 
1240	 0.329122776692469 
1241	 0.329437642957372 
1242	 0.329678666632745 
1243	 0.329812771648547 
1244	 0.330000146215401 
1245	 0.330175340281512 
1246	 0.330363406906328 
1247	 0.330555020384366 
1248	 0.33077426217493 
1249	 0.331058033248353 
1250	 0.33127891915 
1251	 0.33150080209412 
1252	 0.331666412117243 
1253	 0.331892832661907 
1254	 0.332097595859309 
1255	 0.332300581145647 
1256	 0.332573600722687 
1257	 0.332760071382677 
1258	 0.332847540432564 
1259	 0.333012210563188 
1260	 0.333214457846085 
1261	 0.33337726635217 
1262	 0.333523056804049 
1263	 0.333696419888894 
1264	 0.33389644298958 
1265	 0.334029369486675 
1266	 0.334187004472966 
1267	 0.334265840927471 
1268	 0.334182636746316 
1269	 0.334195610180616 
1270	 0.33420633445443 
1271	 0.334250157186348 
1272	 0.334384791362784 
1273	 0.334475292678249 
1274	 0.334526121445695 
1275	 0.334575573172128 
1276	 0.334564180312057 
1277	 0.334493816143666 
1278	 0.334423402206839 
1279	 0.33431140123458 
1280	 0.334224265967997 
1281	 0.334118937551016 
1282	 0.33403563279701 
1283	 0.333990224598128 
1284	 0.333896798376168 
1285	 0.333807005146576 
1286	 0.333673718879398 
1287	 0.333518893690179 
1288	 0.333316239465618 
1289	 0.333035154011864 
1290	 0.332798068089879 
1291	 0.332540832593991 
1292	 0.332289400856975 
1293	 0.332104434456381 
1294	 0.331849126950218 
1295	 0.331602622170254 
1296	 0.331216814824385 
1297	 0.330884565977455 
1298	 0.330531968853934 
1299	 0.330128926809887 
1300	 0.329656553225406 
1301	 0.329300782495686 
1302	 0.328977063424493 
1303	 0.328579176920068 
1304	 0.328273204655575 
1305	 0.327826118796819 
1306	 0.327187386040519 
1307	 0.326664028997147 
1308	 0.326159187106977 
1309	 0.325642932153242 
1310	 0.325186819350873 
1311	 0.324634509168461 
1312	 0.32402581175834 
1313	 0.323412005763881 
1314	 0.322750533879282 
1315	 0.322069674061415 
1316	 0.321399316258494 
1317	 0.320671743261729 
1318	 0.319809045614418 
1319	 0.319044371518608 
1320	 0.318246958591194 
1321	 0.317587376483627 
1322	 0.316813665451173 
1323	 0.316082930605572 
1324	 0.315263446966001 
1325	 0.314306994581158 
1326	 0.313428793767438 
1327	 0.312561066963142 
1328	 0.311651397185576 
1329	 0.310770075575503 
1330	 0.309748267272654 
1331	 0.308566858339981 
1332	 0.307548706999793 
1333	 0.3064858083037 
1334	 0.305545444962635 
1335	 0.304894416625172 
1336	 0.304004750279931 
1337	 0.302915809170837 
1338	 0.302004541325771 
1339	 0.300955415402213 
1340	 0.300082726814924 
1341	 0.299365854204166 
1342	 0.298677599257316 
1343	 0.298059649466763 
1344	 0.297405078684586 
1345	 0.296700573328442 
1346	 0.296099001040951 
1347	 0.295425237568527 
1348	 0.294716278189713 
1349	 0.294049557104046 
1350	 0.293501590589888 
1351	 0.293021625863767 
1352	 0.292990225187539 
1353	 0.292570767338758 
1354	 0.292590633837178 
1355	 0.292363788305708 
1356	 0.291418015199813 
1357	 0.290668923197592 
1358	 0.291358049225792 
1359	 0.291150685634898 
1360	 0.290694324830444 
1361	 0.290350839526571 
1362	 0.293559047219678 
1363	 0.289924101581425 
1364	 0.271768962904878 
1365	 0.26800523208099 
1366	 0.274654329317904 
1367	 0.272585845817616 
1368	 0.283192064865787 
1369	 0.280088602730603 
1370	 0.261422772557091 
1371	 0.25691237047446 
1372	 0.254999610126139 
1373	 0.254858800999464 
1374	 0.259220088834478 
1375	 0.264293360364622 
1376	 0.262355167022669 
1377	 0.257684899717624 
1378	 0.257690458726458 
1379	 0.256988862391678 
1380	 0.254732055284215 
1381	 0.257483924669496 
1382	 0.253277180599448 
1383	 0.241635936169637 
1384	 0.237323160921998 
1385	 0.23677516024601 
1386	 0.231426314106997 
1387	 0.22623213362336 
1388	 0.221876492777127 
1389	 0.21391013662338 
1390	 0.21215546996606 
1391	 0.215085164590152 
1392	 0.214724755691723 
1393	 0.216498647206918 
1394	 0.214268423294592 
1395	 0.208843320796857 
1396	 0.204673956218037 
1397	 0.198671818815889 
1398	 0.194859318979344 
1399	 0.192209967313075 
1400	 0.189619215938095 
1401	 0.188400493991185 
1402	 0.186343938410709 
1403	 0.184588579807601 
1404	 0.18213578555811 
1405	 0.178731858434189 
1406	 0.175994735102462 
1407	 0.175647478207682 
1408	 0.173694505952227 
1409	 0.172024652676266 
1410	 0.172060627655037 
1411	 0.171128054614678 
1412	 0.169689510828336 
1413	 0.168622350907493 
1414	 0.16791753338353 
1415	 0.166891700607158 
1416	 0.165570618058735 
1417	 0.164731844317885 
1418	 0.164087475506512 
1419	 0.163442618794317 
1420	 0.163073169394713 
1421	 0.162314371457684 
1422	 0.161273785254125 
1423	 0.160536395524375 
1424	 0.159591550792817 
1425	 0.159120643383484 
1426	 0.158999009035107 
1427	 0.158844556118142 
1428	 0.159134285391217 
1429	 0.158734478463869 
1430	 0.157658592458854 
1431	 0.157311661207949 
1432	 0.156884623513149 
1433	 0.156731421658942 
1434	 0.157555215993524 
1435	 0.157581009415674 
1436	 0.157029111236076 
1437	 0.156731381348683 
1438	 0.156392656988447 
1439	 0.155950777971228 
1440	 0.155254701646412 
1441	 0.155083323556198 
1442	 0.155089485470058 
1443	 0.155161156937764 
1444	 0.155282695194075 
1445	 0.155423278157727 
1446	 0.155164185034819 
1447	 0.154711290403426 
1448	 0.15460750993599 
1449	 0.154623295618677 
1450	 0.154750451880506 
1451	 0.155056753517211 
1452	 0.155130373440119 
1453	 0.155254142173003 
1454	 0.155224116012439 
1455	 0.154967505137874 
1456	 0.154937851062052 
1457	 0.154941855835035 
1458	 0.154992032080667 
1459	 0.155146996904776 
1460	 0.155266565397377 
1461	 0.155428029420522 
1462	 0.155521702512951 
1463	 0.155544247766131 
1464	 0.155695670485351 
1465	 0.155838179708601 
1466	 0.156092965798031 
1467	 0.15652289269184 
1468	 0.156911943243524 
1469	 0.157338128923265 
1470	 0.157734502280988 
1471	 0.15819633707394 
1472	 0.158486238592516 
1473	 0.158495497609691 
1474	 0.158798703548483 
1475	 0.15913663748829 
1476	 0.159512867477573 
1477	 0.160117558303001 
1478	 0.160576655721677 
1479	 0.160795895091056 
1480	 0.161274570255881 
1481	 0.161976841222675 
1482	 0.16250804604103 
1483	 0.163082568781227 
1484	 0.163591911789175 
1485	 0.163878955980249 
1486	 0.164287717849733 
1487	 0.164700170223418 
1488	 0.165263410724527 
1489	 0.165761600829418 
1490	 0.166203410688639 
1491	 0.166753432238886 
1492	 0.167325555007625 
1493	 0.167875682551362 
1494	 0.168425523205405 
1495	 0.168981187976143 
1496	 0.169519984431531 
1497	 0.170022826869985 
1498	 0.170550394677528 
1499	 0.171081084308823 
1500	 0.17155260998256 
1501	 0.17210963433655 
1502	 0.172747396893618 
1503	 0.173339716107342 
1504	 0.173908586188985 
1505	 0.174549435161737 
1506	 0.175232773490675 
1507	 0.175891969964912 
1508	 0.176610359858253 
1509	 0.177218873227223 
1510	 0.177732866077088 
1511	 0.178325808915475 
1512	 0.178883839313335 
1513	 0.179533885085148 
1514	 0.180293479900051 
1515	 0.180980500376382 
1516	 0.181725271980892 
1517	 0.182345145580375 
1518	 0.182821377198745 
1519	 0.183454058492543 
1520	 0.184097585371074 
1521	 0.1847613007558 
1522	 0.185569394213292 
1523	 0.186261961267938 
1524	 0.186922692736096 
1525	 0.187497836667474 
1526	 0.187930017589847 
1527	 0.188524911184549 
1528	 0.189149497474056 
1529	 0.189751694179324 
1530	 0.190479258537528 
1531	 0.191120146598925 
1532	 0.191598505425192 
1533	 0.192221540757537 
1534	 0.192957695030068 
1535	 0.193638402825093 
1536	 0.194402526591578 
1537	 0.195051023921536 
1538	 0.195599092648696 
1539	 0.196163513968829 
1540	 0.196633683380392 
1541	 0.197185405157369 
1542	 0.197800130802649 
1543	 0.198388602572392 
1544	 0.199015611018893 
1545	 0.199616307813433 
1546	 0.200170787237954 
1547	 0.200750314964579 
1548	 0.201341310090656 
1549	 0.201926312632994 
1550	 0.202524001087939 
1551	 0.203121258839695 
1552	 0.203705192349902 
1553	 0.204305210796124 
1554	 0.204919584243455 
1555	 0.205531922466271 
1556	 0.206212430853432 
1557	 0.206797283008573 
1558	 0.207298834190658 
1559	 0.207825397388971 
1560	 0.208252267389867 
1561	 0.208761906461452 
1562	 0.209344615389343 
1563	 0.209942420625421 
1564	 0.210677851793972 
1565	 0.211296119148179 
1566	 0.211759489935268 
1567	 0.212264514426831 
1568	 0.212707336487286 
1569	 0.212968629410058 
1570	 0.213494859662823 
1571	 0.21415548631796 
1572	 0.214734525215167 
1573	 0.215417312960541 
1574	 0.215899647877296 
1575	 0.216229477210711 
1576	 0.216718622882604 
1577	 0.217163251607237 
1578	 0.217701673307666 
1579	 0.218386089645975 
1580	 0.218901188241206 
1581	 0.219355141146529 
1582	 0.219829435251433 
1583	 0.220247635695688 
1584	 0.220715783835523 
1585	 0.221228299764329 
1586	 0.221674402622631 
1587	 0.222073761333729 
1588	 0.222563285221243 
1589	 0.223081911162612 
1590	 0.223551424852843 
1591	 0.224061602471684 
1592	 0.224539386501023 
1593	 0.224968185020133 
1594	 0.225370950533317 
1595	 0.225758104463002 
1596	 0.22621655307762 
1597	 0.226635535754054 
1598	 0.227129678905553 
1599	 0.227774995185635 
1600	 0.228258051609117 
1601	 0.228642342018093 
1602	 0.22913009330394 
1603	 0.229635230796144 
1604	 0.23008745068342 
1605	 0.230593776273111 
1606	 0.230997320261006 
1607	 0.231256567143117 
1608	 0.231654940802367 
1609	 0.232100606830784 
1610	 0.232495261025601 
1611	 0.232903519629267 
1612	 0.233318349613931 
1613	 0.23368865699119 
1614	 0.234113954578705 
1615	 0.234629996165706 
1616	 0.235022923973205 
1617	 0.235377484123082 
1618	 0.235698816537774 
1619	 0.235896499550625 
1620	 0.236270480213671 
1621	 0.236733740724782 
1622	 0.237101305814876 
1623	 0.237514210656848 
1624	 0.237906207912654 
1625	 0.238222625823819 
1626	 0.238564589180416 
1627	 0.238992239332498 
1628	 0.239291577608645 
1629	 0.239457750708199 
1630	 0.239751423566409 
1631	 0.24009950759008 
1632	 0.240346910239042 
1633	 0.240608397750892 
1634	 0.24083231396255 
1635	 0.24091135629667 
1636	 0.241176324171042 
1637	 0.24154964480884 
1638	 0.241866372235849 
1639	 0.24226133154174 
1640	 0.242535977890831 
1641	 0.242733984941634 
1642	 0.242947456948043 
1643	 0.243090626498566 
1644	 0.243330724785216 
1645	 0.243617423403614 
1646	 0.243875985364946 
1647	 0.244164275342362 
1648	 0.244430882796205 
1649	 0.244715256734445 
1650	 0.244868734776873 
1651	 0.24499708355438 
1652	 0.245030792998786 
1653	 0.244859329180105 
1654	 0.244937847062695 
1655	 0.245088093031522 
1656	 0.245210695684447 
1657	 0.2454848532515 
1658	 0.245398736571334 
1659	 0.245371548906892 
1660	 0.245386211790108 
1661	 0.245342192837484 
1662	 0.245486215318602 
1663	 0.24570042640215 
1664	 0.245733509963142 
1665	 0.245664302117549 
1666	 0.245611467478364 
1667	 0.24551705371626 
1668	 0.24556528748659 
1669	 0.245855620422579 
1670	 0.24598180223017 
1671	 0.245971269614051 
1672	 0.245956078423388 
1673	 0.245848174404691 
1674	 0.245833822348936 
1675	 0.245790329175098 
1676	 0.245689028704952 
1677	 0.245636269963984 
1678	 0.245511039340182 
1679	 0.245452787979735 
1680	 0.245509547912796 
1681	 0.245472543525341 
1682	 0.24534348818246 
1683	 0.245260761224779 
1684	 0.245178291639363 
1685	 0.245034519153033 
1686	 0.244953540774022 
1687	 0.244934132730932 
1688	 0.244790230771453 
1689	 0.244750260868672 
1690	 0.244589328947922 
1691	 0.24445838171176 
1692	 0.244307189731185 
1693	 0.244117456927804 
1694	 0.244003373204789 
1695	 0.243851553928744 
1696	 0.243637087008026 
1697	 0.243404537313022 
1698	 0.243063427989319 
1699	 0.242839039376998 
1700	 0.242759231491178 
1701	 0.242527207800322 
1702	 0.242260254357889 
1703	 0.241998800088144 
1704	 0.241547727102796 
1705	 0.241238071745287 
1706	 0.241128460835028 
1707	 0.240862593039996 
1708	 0.24053272817872 
1709	 0.24026101426298 
1710	 0.239997591474774 
1711	 0.239644229286496 
1712	 0.239267370652389 
1713	 0.238901617736949 
1714	 0.238378908736143 
1715	 0.238006327367029 
1716	 0.237770787244867 
1717	 0.237507693852782 
1718	 0.237297293386204 
1719	 0.236984719961872 
1720	 0.236704294794724 
1721	 0.236338619641914 
1722	 0.235809396395218 
1723	 0.235403637421826 
1724	 0.235045421676582 
1725	 0.234635780158965 
1726	 0.234165221352901 
1727	 0.233832090327089 
1728	 0.233558239860573 
1729	 0.233231625409918 
1730	 0.232976122290306 
1731	 0.232677545870247 
1732	 0.232411917121249 
1733	 0.232368088940672 
1734	 0.232293094780015 
1735	 0.232262764642379 
1736	 0.232340273459045 
1737	 0.232153168314488 
1738	 0.232034293651192 
1739	 0.231948160342575 
1740	 0.23151518548756 
1741	 0.231220486743718 
1742	 0.23096355355604 
1743	 0.230626772618258 
1744	 0.230411153560794 
1745	 0.230086242679882 
1746	 0.229799947274173 
1747	 0.229623856390855 
1748	 0.229310376951357 
1749	 0.228882731138512 
1750	 0.228464721608187 
1751	 0.228048690221066 
1752	 0.22763841942005 
1753	 0.227364664268673 
1754	 0.227033581746013 
1755	 0.226583832871602 
1756	 0.22620708088008 
1757	 0.225901518152399 
1758	 0.225624414935179 
1759	 0.225386827092791 
1760	 0.225045448276187 
1761	 0.224630275117047 
1762	 0.224295466644528 
1763	 0.224012323714894 
1764	 0.223678260655467 
1765	 0.223415053419562 
1766	 0.22308815747964 
1767	 0.222501761738918 
1768	 0.222181690694095 
1769	 0.222052687731253 
1770	 0.221690100995736 
1771	 0.221371153226021 
1772	 0.221073117017799 
1773	 0.220494184648746 
1774	 0.220455131358811 
1775	 0.22060251298154 
1776	 0.220650425854925 
1777	 0.22090913827311 
1778	 0.221095053449569 
1779	 0.221048365219201 
1780	 0.220946301926281 
1781	 0.22071747083415 
1782	 0.220385188218844 
1783	 0.220060657987617 
1784	 0.219942924313647 
1785	 0.2200026170999 
1786	 0.219745390427395 
1787	 0.219317011224611 
1788	 0.219100657084418 
1789	 0.218936261119612 
1790	 0.218888655078512 
1791	 0.218986146203559 
1792	 0.21928833490671 
1793	 0.219242792314383 
1794	 0.219052922242735 
1795	 0.219502907305043 
1796	 0.219359680425156 
1797	 0.218794008010962 
1798	 0.219339165393045 
1799	 0.219841932648712 
1800	 0.219901933603157 
1801	 0.226556080959687 
1802	 0.226644884440105 
1803	 0.227238037949877 
1804	 0.229609043902891 
1805	 0.229807814483644 
1806	 0.228033665644568 
1807	 0.227658530600552 
1808	 0.226566578786251 
1809	 0.226050633087735 
1810	 0.225192605022511 
1811	 0.225442446850092 
1812	 0.225316710571929 
1813	 0.223558186648101 
1814	 0.223341886932879 
1815	 0.225873067842569 
1816	 0.22683497135926 
1817	 0.227755768993016 
1818	 0.228249828238851 
1819	 0.228188455076614 
1820	 0.226775517194454 
1821	 0.226076138652019 
1822	 0.223895149184196 
1823	 0.223837459354707 
1824	 0.227728745373845 
1825	 0.227555333390887 
1826	 0.224336877365978 
1827	 0.223555074414451 
1828	 0.222383365918207 
1829	 0.213142677733478 
1830	 0.215335333875745 
1831	 0.237599720075032 
1832	 0.248999234625757 
1833	 0.281120159645923 
1834	 0.28109819640731 
1835	 0.195746713384711 
1836	 0.154175012728451 
1837	 8.22587762795235E-02 
1838	 4.12001738604337E-02 
1839	 5.08776904909936E-02 
1840	 0.216681864449703 
1841	 0.246606470846995 
1842	 0.243658582776638 
1843	 0.244402236163276 
1844	 0.184947321083833 
1845	 0.178821915185892 
1846	 0.224503022476034 
1847	 0.22962009284912 
1848	 0.226343016786813 
1849	 0.22510530027272 
1850	 0.221628804653885 
1851	 0.181981930284055 
1852	 0.172414602823559 
1853	 0.174695342828296 
1854	 0.193818391296694 
1855	 0.238110720522475 
1856	 0.252812898932655 
1857	 0.278811062063391 
1858	 0.291954275499547 
1859	 0.279440120939422 
1860	 0.225340482577043 
1861	 0.218453839266124 
1862	 0.218809899292508 
1863	 0.219770779279656 
1864	 0.242032284701138 
1865	 0.253084456633116 
1866	 0.258694472865789 
1867	 0.257901655256925 
1868	 0.26585837398837 
1869	 0.289236824355445 
1870	 0.30204896475824 
1871	 0.313404333412945 
1872	 0.325092107835093 
1873	 0.352038003597792 
1874	 0.339084648202534 
1875	 0.330064379279084 
1876	 0.296100632680425 
1877	 0.244866349520136 
1878	 0.208288402009223 
1879	 0.169347292654104 
1880	 0.169635319736463 
1881	 0.163166012082886 
1882	 0.165705149502624 
1883	 0.160739277998868 
1884	 0.149234271999051 
1885	 0.145907409603652 
1886	 0.143032707822187 
1887	 0.14682495786364 
1888	 0.149452408067706 
1889	 0.155272718945108 
1890	 0.15743853929905 
1891	 0.155779435771817 
1892	 0.155862335805995 
1893	 0.159928014499517 
1894	 0.16012981453607 
1895	 0.157171719993475 
1896	 0.152820621215675 
1897	 0.148467735391813 
1898	 0.126744787021779 
1899	 0.116587361722998 
1900	 0.119659432690917 
1901	 0.124505452999476 
1902	 0.155907897298439 
1903	 0.163654988359655 
1904	 0.156593726987019 
1905	 0.161398278426359 
1906	 0.157946370732286 
1907	 0.170334908778935 
1908	 0.163385193434997 
1909	 0.142291953908118 
1910	 0.129820560804563 
1911	 0.101734820338035 
1912	 9.22488794153676E-02 
1913	 9.17270754985593E-02 
1914	 9.63982020768642E-02 
1915	 0.104746152196635 
1916	 0.106737953182009 
1917	 0.110405381622604 
1918	 0.112841425238761 
1919	 0.11000706101844 
1920	 0.110958990666222 
1921	 0.121425727944652 
1922	 0.125723920245005 
1923	 0.126012581763258 
1924	 0.125504488528478 
1925	 0.123670366392969 
1926	 0.114018709841577 
1927	 0.112805404503236 
1928	 0.116247872989637 
1929	 0.116581282172152 
1930	 0.117225331692829 
1931	 0.121618052723949 
1932	 0.122543289392331 
1933	 0.121228841808018 
1934	 0.120269347683976 
1935	 0.118796128608387 
1936	 0.117553822801198 
1937	 0.115752352971522 
1938	 0.11490135375688 
1939	 0.114318789086811 
1940	 0.114858614698926 
1941	 0.115049644333616 
1942	 0.114479379006395 
1943	 0.114684206314085 
1944	 0.115288145733796 
1945	 0.116055166624241 
1946	 0.117095781988791 
1947	 0.117990097088514 
1948	 0.11965472187432 
1949	 0.119761755985234 
1950	 0.118350101165465 
1951	 0.118620515008513 
1952	 0.119776938386915 
1953	 0.120683621726173 
1954	 0.121920790512791 
1955	 0.122337287476888 
1956	 0.121143820982439 
1957	 0.119897679335375 
1958	 0.119422614283079 
1959	 0.119479315454242 
1960	 0.119618605314048 
1961	 0.119977081293144 
1962	 0.120216522838044 
1963	 0.120916299443398 
1964	 0.121475435858953 
1965	 0.122219011628417 
1966	 0.122468207601346 
1967	 0.122484185580334 
1968	 0.122933770243831 
1969	 0.123258506544033 
1970	 0.123679569928426 
1971	 0.124010780869529 
1972	 0.124460885804136 
1973	 0.124385320265009 
1974	 0.124490100286009 
1975	 0.124789338337924 
1976	 0.125284563588339 
1977	 0.125836365316111 
1978	 0.126040571986582 
1979	 0.126375434952887 
1980	 0.126399308772253 
1981	 0.126184970551069 
1982	 0.126395167246036 
1983	 0.126860310245027 
1984	 0.127136438667641 
1985	 0.127754040543361 
1986	 0.128733601826965 
1987	 0.129411920239187 
1988	 0.129593262440915 
1989	 0.129339249895209 
1990	 0.12923814030453 
1991	 0.129375353982361 
1992	 0.129859358797442 
1993	 0.130796899448257 
1994	 0.131706571679665 
1995	 0.132279087212317 
1996	 0.132521297738236 
1997	 0.132617893751867 
1998	 0.132780777066496 
1999	 0.132834263007373 
2000	 0.132884071547991 
2001	 0.132771338805606 
2002	 0.132136490229543 
2003	 0.131654306489527 
2004	 0.132328133262861 
2005	 0.133465505529269 
2006	 0.13399690057149 
2007	 0.134785572865679 
2008	 0.135214982666264 
2009	 0.135414873585486 
2010	 0.13573737681358 
2011	 0.136276517011147 
2012	 0.137341117357681 
2013	 0.138276671287794 
2014	 0.138606074598683 
2015	 0.138313905423047 
2016	 0.138309767756811 
2017	 0.138618623029246 
2018	 0.138922948953418 
2019	 0.139247135798232 
2020	 0.140196128102192 
2021	 0.140520206762082 
2022	 0.140578448398873 
2023	 0.140913929664867 
2024	 0.141069942865708 
2025	 0.141488792017676 
2026	 0.141620868879301 
2027	 0.141264467292874 
2028	 0.141355325571074 
2029	 0.141622338327915 
2030	 0.141706955717228 
2031	 0.142106426591607 
2032	 0.14253634820259 
2033	 0.143057465771367 
2034	 0.143341085368212 
2035	 0.143516059646893 
2036	 0.143345616933857 
2037	 0.143037329879923 
2038	 0.143139668086847 
2039	 0.143605591203152 
2040	 0.1444487741202 
2041	 0.145174722546044 
2042	 0.14559650588128 
2043	 0.146116802810691 
2044	 0.146300927794155 
2045	 0.146379648463433 
2046	 0.146269514643348 
2047	 0.146207129098656 
2048	 0.14612364043553 
2049	 0.146227571457178 
2050	 0.146721379600935 
2051	 0.147266016537514 
2052	 0.147298615152631 
2053	 0.147790813349523 
2054	 0.148294040817759 
2055	 0.148582493148958 
2056	 0.149403724025643 
2057	 0.149849301801029 
2058	 0.149877619977363 
2059	 0.149959655173899 
2060	 0.149949728888242 
2061	 0.149759118439083 
2062	 0.149789497516167 
2063	 0.150461348272432 
2064	 0.150950971720366 
2065	 0.151142013764378 
2066	 0.151196693312705 
2067	 0.150819867270953 
2068	 0.150654559763581 
2069	 0.150632693344003 
2070	 0.150701974994737 
2071	 0.151082362057272 
2072	 0.151534452530283 
2073	 0.152020898081745 
2074	 0.152734977128626 
2075	 0.153376425429288 
2076	 0.153569247499221 
2077	 0.15352497396163 
2078	 0.153737136756313 
2079	 0.154113745301863 
2080	 0.154458765395291 
2081	 0.154915698196859 
2082	 0.155520272601077 
2083	 0.155874852254355 
2084	 0.155949240349403 
2085	 0.15629402158533 
2086	 0.156340874834964 
2087	 0.15630677979564 
2088	 0.1560424949524 
2089	 0.156278947841813 
2090	 0.156545610883249 
2091	 0.156553463254291 
2092	 0.156830964190621 
2093	 0.157581143794645 
2094	 0.158319121509801 
2095	 0.158911760018113 
2096	 0.159545222353414 
2097	 0.159980612035174 
2098	 0.159649165631481 
2099	 0.159664129867068 
2100	 0.160151792780159 
2101	 0.160543464596336 
2102	 0.160849341177564 
2103	 0.161450338373455 
2104	 0.161472037096377 
2105	 0.161432191076248 
2106	 0.161373993733098 
2107	 0.161254083466426 
2108	 0.161822840279947 
2109	 0.162012997710514 
2110	 0.162081483251552 
2111	 0.162309627992184 
2112	 0.162199672016442 
2113	 0.162420302995952 
2114	 0.16280190015651 
2115	 0.162885245447704 
2116	 0.163233049277629 
2117	 0.16373153017551 
2118	 0.164338082750152 
2119	 0.164728702770062 
2120	 0.165295271567891 
2121	 0.165745866617222 
2122	 0.165599621735818 
2123	 0.165626219941041 
2124	 0.165809331580986 
2125	 0.166077815781902 
2126	 0.166227261248632 
2127	 0.166523462173577 
2128	 0.167180099720442 
2129	 0.167527244599872 
2130	 0.167861921342208 
2131	 0.168167085844531 
2132	 0.168410326325241 
2133	 0.168746859083388 
2134	 0.16915297972201 
2135	 0.16989656259333 
2136	 0.170453554265156 
2137	 0.170478426180596 
2138	 0.170760582169552 
2139	 0.171087033037515 
2140	 0.171227856900576 
2141	 0.17138700424657 
2142	 0.1712384385358 
2143	 0.170832361009839 
2144	 0.170828604367904 
2145	 0.170909364269523 
2146	 0.171121981988098 
2147	 0.171756521546224 
2148	 0.17206642015269 
2149	 0.17217469578982 
2150	 0.172298187467289 
2151	 0.172473161891197 
2152	 0.172466323685636 
2153	 0.172437016627582 
2154	 0.172467453102628 
2155	 0.172676560961095 
2156	 0.172729110732616 
2157	 0.172700722514481 
2158	 0.172799343127803 
2159	 0.173160980625774 
2160	 0.17333961066904 
2161	 0.173374329319006 
2162	 0.173812082602337 
2163	 0.173433782340062 
2164	 0.172514241885046 
2165	 0.172362196856472 
2166	 0.172435322223492 
2167	 0.172877273168568 
2168	 0.173182315783905 
2169	 0.173783498431956 
2170	 0.174159965527909 
2171	 0.174360041533205 
2172	 0.17438435396428 
2173	 0.174742701928405 
2174	 0.175068977126513 
2175	 0.174646703045841 
2176	 0.174079386863758 
2177	 0.174283721881426 
2178	 0.174369184499313 
2179	 0.174246704005558 
2180	 0.17451587252418 
2181	 0.174006269440575 
2182	 0.173328669119819 
2183	 0.173073647876891 
2184	 0.173132469486026 
2185	 0.173594283293689 
2186	 0.174127305701604 
2187	 0.174663704496664 
2188	 0.175698069337358 
2189	 0.176023562095099 
2190	 0.176161306587161 
2191	 0.175656384418189 
2192	 0.174897784245798 
2193	 0.174480715228107 
2194	 0.174528460752728 
2195	 0.174766411954136 
2196	 0.175028858324948 
2197	 0.174933793347042 
2198	 0.174743898539356 
2199	 0.175186028839522 
2200	 0.17551189873938 
2201	 0.17578904620295 
2202	 0.175506317707808 
2203	 0.174818096559616 
2204	 0.174662642864709 
2205	 0.17453719557235 
2206	 0.174563837998042 
2207	 0.174919977965024 
2208	 0.175154483705596 
2209	 0.175158638183057 
2210	 0.175307756074625 
2211	 0.175689327378322 
2212	 0.175856729336706 
2213	 0.17586012442029 
2214	 0.176245754762919 
2215	 0.175936653854865 
2216	 0.176034961911133 
2217	 0.176053181539207 
2218	 0.175798869431875 
2219	 0.17630074672444 
2220	 0.176828271893741 
2221	 0.177020216043076 
2222	 0.177217067120565 
2223	 0.177496240604589 
2224	 0.177153556934318 
2225	 0.176852743069411 
2226	 0.176939928920276 
2227	 0.17673895116795 
2228	 0.176427534454534 
2229	 0.176197212268867 
2230	 0.176314258588251 
2231	 0.176384795660547 
2232	 0.176826829769513 
2233	 0.176522812156076 
2234	 0.175827221945936 
2235	 0.175432443266288 
2236	 0.174655256984206 
2237	 0.174219443610021 
2238	 0.174665521209516 
2239	 0.174349955260662 
2240	 0.173505883008955 
2241	 0.173389561153531 
2242	 0.173188213562997 
2243	 0.172434065080983 
2244	 0.172455509510304 
2245	 0.172334567920006 
2246	 0.172010540405561 
2247	 0.172558109514632 
2248	 0.172503329257436 
2249	 0.172329445079219 
2250	 0.1721664880537 
2251	 0.171269288231425 
2252	 0.170689419327147 
2253	 0.169903389902419 
2254	 0.169355890373278 
2255	 0.170135540778335 
2256	 0.16998296175325 
2257	 0.169606889734848 
2258	 0.16910826985359 
2259	 0.168526226011625 
2260	 0.166559157978649 
2261	 0.165869733715634 
2262	 0.166109293608907 
2263	 0.165846118623545 
2264	 0.165909681421286 
2265	 0.1655726803553 
2266	 0.165249532932746 
2267	 0.165685434531754 
2268	 0.165709443778307 
2269	 0.165396614429497 
2270	 0.165347333518706 
2271	 0.164780270704013 
2272	 0.164010630048151 
2273	 0.163868336764535 
2274	 0.163747414535171 
2275	 0.163196575428662 
2276	 0.162979398755643 
2277	 0.162303498241878 
2278	 0.161771300187517 
2279	 0.162133408577477 
2280	 0.162289521827485 
2281	 0.162618988344373 
2282	 0.162769690412897 
2283	 0.163179279066481 
2284	 0.162867089629607 
2285	 0.162104861357648 
2286	 0.161842199166873 
2287	 0.161946678204623 
2288	 0.160529783937852 
2289	 0.159628134842013 
2290	 0.159371732323954 
2291	 0.158475650079467 
2292	 0.157825119734891 
2293	 0.156976278537746 
2294	 0.15699403054888 
2295	 0.157440937887692 
2296	 0.156893431012303 
2297	 0.157164751039758 
2298	 0.157693561293152 
2299	 0.156818232611216 
2300	 0.156265400640822 
2301	 0.155661309996955 
2302	 0.153899508068329 
2303	 0.153044811737035 
2304	 0.15309560707241 
2305	 0.153191252992073 
2306	 0.153925648049528 
2307	 0.154582866791097 
2308	 0.154515518230826 
2309	 0.153603399729879 
2310	 0.153003619709871 
2311	 0.152517595164161 
2312	 0.151143412966061 
2313	 0.150738236051838 
2314	 0.151070884216277 
2315	 0.151014202410242 
2316	 0.151691877985362 
2317	 0.152119860113689 
2318	 0.151365725150677 
2319	 0.151580549486184 
2320	 0.152294600659797 
2321	 0.152629161776441 
2322	 0.153801248120591 
2323	 0.154167613601984 
2324	 0.154084379558878 
2325	 0.152898844508892 
2326	 0.151054790358368 
2327	 0.150562942342477 
2328	 0.149376988414687 
2329	 0.148449601812524 
2330	 0.14984236140799 
2331	 0.150287502127515 
2332	 0.15122379266215 
2333	 0.15269324136899 
2334	 0.153470238864672 
2335	 0.153673937249688 
2336	 0.152333667041198 
2337	 0.150593430699682 
2338	 0.1481050737062 
2339	 0.145971906260079 
2340	 0.146063764929784 
2341	 0.146573154076313 
2342	 0.1456106519168 
2343	 0.144828889049438 
2344	 0.144416653600522 
2345	 0.143083944059998 
2346	 0.142840837851899 
2347	 0.143646675311937 
2348	 0.145065266652224 
2349	 0.145245565806014 
2350	 0.144047955741796 
2351	 0.143607876836596 
2352	 0.142061150036478 
2353	 0.141712664496637 
2354	 0.142493455373346 
2355	 0.143413707273526 
2356	 0.144203808091252 
2357	 0.142102584068018 
2358	 0.141374583162407 
2359	 0.142060199133445 
2360	 0.142128054696159 
2361	 0.142428325865523 
2362	 0.142192017694194 
2363	 0.14261131218907 
2364	 0.142813112697197 
2365	 0.143552137639697 
2366	 0.144043780414871 
2367	 0.142002963829696 
2368	 0.140512164723888 
2369	 0.139708131968095 
2370	 0.139234698993097 
2371	 0.140527082525374 
2372	 0.14086993819548 
2373	 0.139997781939801 
2374	 0.139845466942154 
2375	 0.140585842436374 
2376	 0.139746666748533 
2377	 0.138839547831199 
2378	 0.137655380740881 
2379	 0.134224572125661 
2380	 0.133043556518604 
2381	 0.13230923272753 
2382	 0.132409918233078 
2383	 0.135154443267771 
2384	 0.136702317586994 
2385	 0.137844703411632 
2386	 0.138343869051681 
2387	 0.138337020804536 
2388	 0.138148050220036 
2389	 0.137305610058008 
2390	 0.138668545834484 
2391	 0.141581523370654 
2392	 0.141327663199232 
2393	 0.139678226691641 
2394	 0.139507049412042 
2395	 0.139191952022554 
2396	 0.13863515832371 
2397	 0.139568683612477 
2398	 0.139517825756214 
2399	 0.137038826376036 
2400	 0.13560408512238 
2401	 0.13480264945812 
2402	 0.13425060620135 
2403	 0.133865350791477 
2404	 0.133119182235353 
2405	 0.131010093666629 
2406	 0.130891509595188 
2407	 0.131335711133383 
2408	 0.129340696535637 
2409	 0.13273244235583 
2410	 0.134619118289149 
2411	 0.132028380212427 
2412	 0.131853588973462 
2413	 0.127091117206621 
2414	 0.123796419780611 
2415	 0.124672378473367 
2416	 0.125220060059849 
2417	 0.127049130036671 
2418	 0.127616992122702 
2419	 0.129657443077375 
2420	 0.12962469180241 
2421	 0.128803667848415 
2422	 0.126350617802051 
2423	 0.121125836234506 
2424	 0.119833625516816 
2425	 0.120049036291935 
2426	 0.121940766827504 
2427	 0.123243147352002 
2428	 0.122406285372132 
2429	 0.122608856195789 
2430	 0.125100992862709 
2431	 0.128485898980117 
2432	 0.130018358489448 
2433	 0.126543555908547 
2434	 0.125727608953093 
2435	 0.125035741840437 
2436	 0.124169187375837 
2437	 0.126802748309168 
2438	 0.125349762121306 
2439	 0.119188176327537 
2440	 0.117340909812959 
2441	 0.114370395503738 
2442	 0.112962114615148 
2443	 0.117102937390596 
2444	 0.11758535326932 
2445	 0.116919042378958 
2446	 0.117286085286115 
2447	 0.112756649185036 
2448	 0.113451169703606 
2449	 0.118784693069035 
2450	 0.120571072141984 
2451	 0.125198868894898 
2452	 0.131002504128351 
2453	 0.139974813475825 
2454	 0.13669561928259 
2455	 0.128156294163051 
2456	 0.121602277398736 
2457	 0.102622699426193 
2458	 9.78041600291155E-02 
2459	 0.102690828711906 
2460	 0.102347665538373 
2461	 0.102827889773281 
2462	 0.103869789175709 
2463	 0.105430605250447 
2464	 0.110075624422968 
2465	 0.122384404419289 
2466	 0.123877282098279 
2467	 0.120701790607909 
2468	 0.115832107261408 
2469	 9.76457125868738E-02 
2470	 0.094836967844716 
2471	 0.101790210359149 
2472	 0.10525803290893 
2473	 0.113556540107404 
2474	 0.12008486692743 
2475	 0.124586445322714 
2476	 0.127739973955268 
2477	 0.13915774313803 
2478	 0.141871441581456 
2479	 0.133484510287967 
2480	 0.123863102980182 
2481	 0.102839057418723 
2482	 9.41131566590154E-02 
2483	 8.99479186247156E-02 
2484	 7.84037662314002E-02 
2485	 6.92873121131214E-02 
2486	 5.90847212323943E-02 
2487	 4.71302319749517E-02 
2488	 5.54579282849603E-02 
2489	 9.73119957057406E-02 
2490	 0.10166314684768 
2491	 0.11093198563957 
2492	 0.119695249410278 
2493	 9.29600151589844E-02 
2494	 8.95752568881825E-02 
2495	 7.62194160554222E-02 
2496	 9.24094582018414E-02 
2497	 0.109818270174565 
2498	 0.090544379359545 
2499	 0.135297665877205 
2500	 0.158886715928397 
