Wavelength	ref00103.asd
350	 7.0760453945491E-03 
351	 6.91898106268437E-03 
352	 6.55062250330294E-03 
353	 7.13602979643601E-03 
354	 7.22144582018605E-03 
355	 7.13014801075956E-03 
356	 7.18757090753226E-03 
357	 7.01173134860393E-03 
358	 7.06445765224679E-03 
359	 7.06713458471052E-03 
360	 6.75341071777469E-03 
361	 6.86146926564327E-03 
362	 7.34233340109496E-03 
363	 7.62147220016282E-03 
364	 7.0239149327475E-03 
365	 7.09748701256974E-03 
366	 7.1384173308068E-03 
367	 6.78821172699831E-03 
368	 6.54434237084692E-03 
369	 6.50733046613852E-03 
370	 6.52285254852797E-03 
371	 6.48101721866021E-03 
372	 6.65810175350314E-03 
373	 6.77769211415431E-03 
374	 6.63011450316467E-03 
375	 6.17216765933589E-03 
376	 6.17800972844647E-03 
377	 6.41628985957799E-03 
378	 6.58506600103551E-03 
379	 6.44149352148607E-03 
380	 6.49797078432939E-03 
381	 6.61219533494265E-03 
382	 6.61967525387368E-03 
383	 6.71674971990413E-03 
384	 6.72406983617433E-03 
385	 6.61782800490186E-03 
386	 6.4763702775894E-03 
387	 0.006479835134944 
388	 6.74946974965229E-03 
389	 7.02971226151568E-03 
390	 6.7584478361853E-03 
391	 7.03486094715903E-03 
392	 7.0825514675871E-03 
393	 6.52544996499405E-03 
394	 6.64651899645526E-03 
395	 6.80757664621156E-03 
396	 6.81097187079694E-03 
397	 6.70221980734395E-03 
398	 6.99324069163051E-03 
399	 6.96801257251104E-03 
400	 6.69228344630355E-03 
401	 6.85682237095056E-03 
402	 6.79928375940809E-03 
403	 6.8231054546355E-03 
404	 7.04896775999439E-03 
405	 6.92506124515545E-03 
406	 6.96740414673185E-03 
407	 7.08417238630308E-03 
408	 7.03410339190502E-03 
409	 6.92258216658168E-03 
410	 6.9725186159369E-03 
411	 7.14422379286393E-03 
412	 7.17814854811428E-03 
413	 7.14974345181338E-03 
414	 7.22203785342995E-03 
415	 7.42155808580195E-03 
416	 7.47289661485825E-03 
417	 7.48898512878421E-03 
418	 7.44754317064361E-03 
419	 7.33707967354159E-03 
420	 7.37165226091246E-03 
421	 7.59055806748945E-03 
422	 7.81404760215581E-03 
423	 7.71829453021625E-03 
424	 7.66665526435204E-03 
425	 7.69953739160593E-03 
426	 7.76572315212498E-03 
427	 7.7388677134042E-03 
428	 7.7643837293051E-03 
429	 7.80261075459361E-03 
430	 7.79176623817319E-03 
431	 7.91560449797155E-03 
432	 8.01939074617359E-03 
433	 8.03117504425225E-03 
434	 7.98179715027646E-03 
435	 8.11252770214867E-03 
436	 8.17197543652311E-03 
437	 8.05115478676314E-03 
438	 8.0954619891256E-03 
439	 8.13966349839243E-03 
440	 8.18688684926066E-03 
441	 8.27054001042137E-03 
442	 8.28506752600248E-03 
443	 8.28608861547955E-03 
444	 8.29974268715333E-03 
445	 8.31647920034508E-03 
446	 0.008416478734715 
447	 8.43294914090689E-03 
448	 8.31826032922294E-03 
449	 8.42561199491357E-03 
450	 8.48005982262037E-03 
451	 8.49075936192219E-03 
452	 8.56745767018209E-03 
453	 8.64183020170677E-03 
454	 8.66270275201549E-03 
455	 8.65490301279725E-03 
456	 8.72632064784739E-03 
457	 8.75170660983712E-03 
458	 8.78083129582666E-03 
459	 8.83986581871106E-03 
460	 8.74715861264233E-03 
461	 8.76547374156953E-03 
462	 8.84132262977502E-03 
463	 8.78188084722057E-03 
464	 8.82772776733695E-03 
465	 8.91957806731102E-03 
466	 8.9897000572212E-03 
467	 9.00669339785446E-03 
468	 9.03334616288097E-03 
469	 9.01709710227902E-03 
470	 8.93336451234317E-03 
471	 8.98950928393883E-03 
472	 0.009006784954183 
473	 8.99594899859388E-03 
474	 9.0917448623349E-03 
475	 9.17542223979009E-03 
476	 9.17081816479437E-03 
477	 9.09357027844339E-03 
478	 9.11250737221926E-03 
479	 9.1739681739666E-03 
480	 9.26083123713279E-03 
481	 9.3413999033074E-03 
482	 9.27114338126732E-03 
483	 9.23647868346434E-03 
484	 9.29900013858851E-03 
485	 9.37553046195165E-03 
486	 9.36273057631099E-03 
487	 9.37746105227326E-03 
488	 9.47844854136509E-03 
489	 9.4385531236241E-03 
490	 9.53023889070693E-03 
491	 9.68067920958589E-03 
492	 9.70556704427824E-03 
493	 9.73110435355676E-03 
494	 9.85977011766421E-03 
495	 0.010051828249976 
496	 1.01007449295421E-02 
497	 0.010154045523663 
498	 1.02761758206837E-02 
499	 1.04766508501234E-02 
500	 1.06512993977462E-02 
501	 1.08622064361655E-02 
502	 1.11125793024013E-02 
503	 1.13625637125541E-02 
504	 1.15331069765068E-02 
505	 1.17626063183561E-02 
506	 1.21026653956833E-02 
507	 1.24224882343328E-02 
508	 1.27942304608627E-02 
509	 1.31865796604441E-02 
510	 1.35658487047226E-02 
511	 1.40070022908387E-02 
512	 1.46221243225457E-02 
513	 1.52933559238254E-02 
514	 1.57363304966605E-02 
515	 1.63299397536172E-02 
516	 1.70153826389801E-02 
517	 0.017738555683142 
518	 0.018693106545287 
519	 1.94398904202117E-02 
520	 2.01139025338675E-02 
521	 2.10137396499168E-02 
522	 2.18853158855451E-02 
523	 2.27193642845214E-02 
524	 2.35262837911748E-02 
525	 2.43108721284164E-02 
526	 2.51296187640907E-02 
527	 2.59758096613324E-02 
528	 2.68050763622961E-02 
529	 2.75066252848438E-02 
530	 2.81912246601597E-02 
531	 2.88657320049823E-02 
532	 2.94880185749282E-02 
533	 3.01163496609961E-02 
534	 3.07594704685325E-02 
535	 3.13559288315594E-02 
536	 3.17350761765787E-02 
537	 3.22848727680968E-02 
538	 3.28258899738985E-02 
539	 3.31207164933159E-02 
540	 3.35213144886269E-02 
541	 3.40036283433647E-02 
542	 3.44410056682465E-02 
543	 3.46596620860629E-02 
544	 3.49928699480608E-02 
545	 3.53258591434453E-02 
546	 3.55819014277104E-02 
547	 3.59605198653218E-02 
548	 3.62716116371711E-02 
549	 3.64967599849846E-02 
550	 3.66891294984478E-02 
551	 3.68599500000001E-02 
552	 3.70117423213716E-02 
553	 3.71103346277656E-02 
554	 3.70812948519011E-02 
555	 3.69932802236281E-02 
556	 3.69115857256654E-02 
557	 3.68535135872458E-02 
558	 3.66860738647517E-02 
559	 3.64769789662776E-02 
560	 3.62387538740365E-02 
561	 3.59515919571413E-02 
562	 3.56723641124876E-02 
563	 0.035342429044957 
564	 3.49299078944461E-02 
565	 3.44729603617236E-02 
566	 3.40603049978844E-02 
567	 3.36450871053744E-02 
568	 3.31572646469183E-02 
569	 3.26753838328221E-02 
570	 3.21163918701886E-02 
571	 0.031529124276707 
572	 3.10745266451491E-02 
573	 3.05534624427884E-02 
574	 0.030079821607299 
575	 2.97066925243362E-02 
576	 2.91827811372196E-02 
577	 2.87718207521138E-02 
578	 2.84665159748122E-02 
579	 2.81300589868031E-02 
580	 0.027728856563868 
581	 2.73974817392411E-02 
582	 2.71361076411339E-02 
583	 2.67473792046054E-02 
584	 0.026513482419008 
585	 2.63425363373369E-02 
586	 0.026095517652456 
587	 2.58417731372071E-02 
588	 2.56385604826769E-02 
589	 2.54738635417397E-02 
590	 2.52877362216029E-02 
591	 2.50890742493556E-02 
592	 2.49270465833272E-02 
593	 0.024825835447168 
594	 2.47751490604558E-02 
595	 2.46997940979486E-02 
596	 2.45499025548766E-02 
597	 2.43252801738703E-02 
598	 2.41921579081447E-02 
599	 2.40961008698008E-02 
600	 0.024001490346774 
601	 2.39011022832806E-02 
602	 2.37284168151066E-02 
603	 2.35558334951371E-02 
604	 2.34350561900322E-02 
605	 2.32923502608708E-02 
606	 2.30999444583311E-02 
607	 2.28495818262851E-02 
608	 2.25614502186014E-02 
609	 2.23422767938864E-02 
610	 2.21412898787122E-02 
611	 2.19205614546899E-02 
612	 2.16818278226452E-02 
613	 2.14926368922757E-02 
614	 2.12669136233543E-02 
615	 2.09474562058048E-02 
616	 2.07423271306341E-02 
617	 2.05194827712571E-02 
618	 2.02788136287789E-02 
619	 2.01079317006033E-02 
620	 1.99893708841757E-02 
621	 1.98686666991873E-02 
622	 1.97335214804563E-02 
623	 1.96687183698539E-02 
624	 1.95365837346208E-02 
625	 0.019405559561283 
626	 1.93861188760284E-02 
627	 1.93937362489682E-02 
628	 1.93827433358241E-02 
629	 1.93371292638633E-02 
630	 0.019272520045345 
631	 1.92649781933299E-02 
632	 1.92398984801582E-02 
633	 0.019130775617188 
634	 1.89617299996465E-02 
635	 1.88136268617808E-02 
636	 1.86614863240975E-02 
637	 1.84399717131295E-02 
638	 1.81892885386571E-02 
639	 1.78952949074754E-02 
640	 1.75830196731016E-02 
641	 1.73386788262729E-02 
642	 1.70109104857832E-02 
643	 1.66609272512826E-02 
644	 1.63622765210512E-02 
645	 1.60520695593353E-02 
646	 1.57948763728174E-02 
647	 1.55503281081839E-02 
648	 1.52345558275743E-02 
649	 1.50094585428074E-02 
650	 1.48687339892575E-02 
651	 1.47509722184384E-02 
652	 1.45349066992214E-02 
653	 1.44266227502315E-02 
654	 1.43678619768065E-02 
655	 0.014251896922471 
656	 0.014142750199236 
657	 1.40297094062515E-02 
658	 1.38912205474728E-02 
659	 1.36911768129686E-02 
660	 1.35319949893947E-02 
661	 1.32909503376202E-02 
662	 1.29614082784872E-02 
663	 1.28024273030951E-02 
664	 1.26967425049855E-02 
665	 1.24987446573543E-02 
666	 1.21507045492052E-02 
667	 1.20897869770181E-02 
668	 1.20155587302072E-02 
669	 1.18596882602616E-02 
670	 1.17870136370749E-02 
671	 1.16750152639593E-02 
672	 1.16303409777637E-02 
673	 1.16887531087846E-02 
674	 1.16154930065313E-02 
675	 1.16752481231333E-02 
676	 1.17737566778399E-02 
677	 1.17418477228952E-02 
678	 1.18610721442618E-02 
679	 1.19284923641486E-02 
680	 1.19454791167502E-02 
681	 1.21455379567305E-02 
682	 1.24070033506051E-02 
683	 1.27109149788217E-02 
684	 0.01304817053878 
685	 0.013363316225471 
686	 1.38687315334975E-02 
687	 1.46349773537574E-02 
688	 1.55610024749237E-02 
689	 0.016447869572467 
690	 1.75056702560189E-02 
691	 1.88401569070879E-02 
692	 0.020336453979373 
693	 2.22241082291024E-02 
694	 0.024304258750829 
695	 2.64169108411588E-02 
696	 2.88058160512656E-02 
697	 3.13415569580065E-02 
698	 3.40155590982103E-02 
699	 3.68467285678168E-02 
700	 3.97947234869002E-02 
701	 4.28217344073807E-02 
702	 4.58843841518303E-02 
703	 4.89206700836996E-02 
704	 5.19664025471347E-02 
705	 5.49559550965035E-02 
706	 5.79284259951689E-02 
707	 6.11921702721253E-02 
708	 6.43383827204668E-02 
709	 6.73673258877928E-02 
710	 7.04642041670798E-02 
711	 7.37371319929773E-02 
712	 0.077029075363393 
713	 8.02594095410693E-02 
714	 0.083466228971056 
715	 8.67632547462246E-02 
716	 9.01217025424487E-02 
717	 9.36174633197873E-02 
718	 9.74280320271432E-02 
719	 0.101205688037536 
720	 0.104733752709184 
721	 0.108023977386111 
722	 0.111230930324664 
723	 0.11450431072912 
724	 0.117989302381187 
725	 0.121418829359454 
726	 0.124552381765076 
727	 0.127572818462071 
728	 0.130707540058768 
729	 0.133816825973515 
730	 0.136719989344179 
731	 0.139395692086186 
732	 0.141906675037654 
733	 0.144166307539488 
734	 0.146453192918757 
735	 0.148793994107539 
736	 0.150933864789011 
737	 0.153074532804105 
738	 0.155079252124954 
739	 0.156856079381729 
740	 0.158419909785556 
741	 0.159967282554933 
742	 0.161471857167736 
743	 0.162848282744485 
744	 0.164212476250882 
745	 0.165418189577611 
746	 0.166461930920814 
747	 0.16745174078944 
748	 0.16842233317128 
749	 0.169290931953391 
750	 0.170052484339415 
751	 0.170866451630341 
752	 0.171433359108336 
753	 0.171905775035946 
754	 0.172482988391466 
755	 0.173061049988805 
756	 0.173499319181491 
757	 0.173754452802036 
758	 0.173918588250142 
759	 0.174676045771786 
760	 0.175614054946585 
761	 0.176121506965732 
762	 0.175910739450859 
763	 0.17608123894027 
764	 0.176251439081696 
765	 0.176138477418749 
766	 0.176217186986313 
767	 0.176297474054429 
768	 0.176455631442424 
769	 0.176762468670297 
770	 0.176919192665008 
771	 0.176995466292955 
772	 0.177067276214371 
773	 0.177195048773691 
774	 0.177304549283115 
775	 0.177448973218877 
776	 0.177630001282301 
777	 0.177735391047875 
778	 0.177778190262792 
779	 0.177843078831375 
780	 0.177987860518048 
781	 0.178115479316079 
782	 0.178132018539803 
783	 0.178205635368187 
784	 0.178538163591077 
785	 0.178533363648847 
786	 0.178492913394816 
787	 0.178575887225135 
788	 0.178702320710678 
789	 0.178910685375977 
790	 0.179048619862515 
791	 0.179076835049697 
792	 0.179261107979056 
793	 0.179405058056004 
794	 0.179493352916525 
795	 0.179572518398657 
796	 0.17969797198955 
797	 0.17971385836545 
798	 0.179706795767804 
799	 0.179862665030512 
800	 0.179930871653696 
801	 0.179998769928719 
802	 0.180103088952482 
803	 0.180186957124204 
804	 0.18022464579937 
805	 0.180247995354312 
806	 0.180280657209266 
807	 0.180294091724118 
808	 0.180458762011599 
809	 0.180630961058719 
810	 0.180665555193051 
811	 0.180832948960593 
812	 0.181027051215924 
813	 0.181253202718789 
814	 0.181564952680849 
815	 0.181861198763655 
816	 0.182087069128522 
817	 0.182221262971273 
818	 0.182278716429122 
819	 0.182204522678052 
820	 0.182043988278714 
821	 0.181966654288805 
822	 0.182321242524943 
823	 0.182546108272588 
824	 0.182450517932496 
825	 0.182134241975357 
826	 0.182113853742959 
827	 0.182281811249586 
828	 0.182482425233896 
829	 0.182550441147242 
830	 0.182502042743687 
831	 0.182407568022814 
832	 0.182377309747293 
833	 0.182495498628679 
834	 0.182465631171336 
835	 0.182255589301867 
836	 0.182083218642704 
837	 0.182363963509958 
838	 0.182468106633671 
839	 0.182500594038172 
840	 0.182585329513716 
841	 0.182587500818282 
842	 0.182619248625117 
843	 0.182695242249964 
844	 0.182803974461956 
845	 0.182982540622835 
846	 0.182880968043082 
847	 0.182722103669755 
848	 0.182900851925452 
849	 0.18323860905956 
850	 0.183248607927591 
851	 0.18305455400272 
852	 0.183208005099313 
853	 0.183549813480889 
854	 0.183902989243407 
855	 0.184013998358258 
856	 0.183644563726408 
857	 0.183598346718998 
858	 0.183659442045346 
859	 0.183674485181279 
860	 0.183868792440991 
861	 0.1838911629355 
862	 0.183882193241376 
863	 0.184004733593163 
864	 0.18414012882091 
865	 0.184411639288802 
866	 0.184677832904907 
867	 0.184701309196463 
868	 0.184251274566192 
869	 0.183955288114946 
870	 0.184029721320752 
871	 0.184369767161463 
872	 0.184575144853122 
873	 0.184593123123244 
874	 0.184562214600428 
875	 0.184706377647913 
876	 0.184912243676209 
877	 0.184901645170678 
878	 0.184675644458992 
879	 0.184544509785185 
880	 0.184857224932349 
881	 0.185174997748193 
882	 0.185182188321297 
883	 0.184939903893164 
884	 0.185005197847638 
885	 0.185068236092743 
886	 0.184949318077606 
887	 0.185041337625593 
888	 0.185067004512264 
889	 0.184987009834212 
890	 0.184874280594136 
891	 0.184881119634228 
892	 0.18546329079427 
893	 0.185852890146788 
894	 0.18546335455716 
895	 0.185864026382107 
896	 0.186198241515269 
897	 0.186409257743242 
898	 0.186711478183054 
899	 0.186886108673444 
900	 0.186868462214398 
901	 0.186682279505979 
902	 0.186413756042109 
903	 0.18613993616011 
904	 0.185878175117245 
905	 0.185993247036479 
906	 0.18676953389962 
907	 0.186606016713826 
908	 0.186722770303736 
909	 0.187075703324422 
910	 0.186607992871306 
911	 0.186749167857146 
912	 0.186874668797595 
913	 0.186791358571066 
914	 0.186897822911367 
915	 0.186922761244063 
916	 0.186879990698365 
917	 0.186787924456419 
918	 0.186634628622802 
919	 0.186452740712903 
920	 0.186238031079648 
921	 0.18598765555878 
922	 0.185704872875179 
923	 0.185362103979578 
924	 0.185166387075502 
925	 0.185267112416624 
926	 0.185625297461744 
927	 0.185288964996905 
928	 0.185420392262807 
929	 0.186604640820986 
930	 0.187345864773157 
931	 0.187829376993805 
932	 0.188589870421713 
933	 0.189530921057539 
934	 0.188958424037254 
935	 0.187905840593583 
936	 0.187458679163671 
937	 0.187364898067664 
938	 0.185116578846845 
939	 0.184756286246855 
940	 0.184681488674394 
941	 0.18377214908451 
942	 0.184230772416483 
943	 0.184472770971681 
944	 0.183924006169293 
945	 0.1829543079325 
946	 0.183344130645603 
947	 0.182119289532736 
948	 0.181290016976073 
949	 0.181885443454381 
950	 0.180249157142074 
951	 0.179739592783024 
952	 0.179092889307036 
953	 0.177601670461963 
954	 0.17796972985505 
955	 0.177784494816544 
956	 0.176632946642945 
957	 0.175091478622224 
958	 0.17448107933136 
959	 0.173903899010001 
960	 0.173529307525515 
961	 0.173605094068852 
962	 0.174061635340982 
963	 0.1729645319875 
964	 0.171621853406414 
965	 0.171136013090091 
966	 0.17093041858907 
967	 0.170798131466723 
968	 0.170771595807481 
969	 0.17058710907789 
970	 0.169529305098658 
971	 0.168593702319729 
972	 0.168695307133018 
973	 0.16960545511678 
974	 0.16968664874185 
975	 0.170285697713104 
976	 0.17089593001334 
977	 0.170819460365742 
978	 0.169782362172266 
979	 0.169611470955909 
980	 0.169596972216913 
981	 0.169371257855813 
982	 0.169363723889245 
983	 0.169234979963334 
984	 0.168938653374028 
985	 0.169418442088405 
986	 0.171735666306144 
987	 0.171603660474497 
988	 0.170833297545722 
989	 0.171065634907837 
990	 0.172574869143946 
991	 0.172214969679443 
992	 0.170798994742907 
993	 0.170329310227184 
994	 0.171966498770073 
995	 0.170444967989807 
996	 0.169291729843642 
997	 0.169842646219747 
998	 0.171497995125145 
999	 0.172242130490643 
1000	 0.172289696579915 
1001	 0.180183637320355 
1002	 0.180321953134566 
1003	 0.180500115575429 
1004	 0.18066256416528 
1005	 0.1809711754884 
1006	 0.181358851423417 
1007	 0.181746679847941 
1008	 0.1823270100398 
1009	 0.182708258680662 
1010	 0.182985115710982 
1011	 0.183272576001348 
1012	 0.183464502087248 
1013	 0.183685369681358 
1014	 0.183906053543505 
1015	 0.184059206518479 
1016	 0.184306130693825 
1017	 0.184632333206684 
1018	 0.184934611373797 
1019	 0.18529371197337 
1020	 0.18558844708066 
1021	 0.185853840951917 
1022	 0.186138991599679 
1023	 0.186404230253381 
1024	 0.186697642572872 
1025	 0.187004870813062 
1026	 0.187241536642385 
1027	 0.187447610027973 
1028	 0.187696811498257 
1029	 0.187982576484644 
1030	 0.188304269272522 
1031	 0.18857587178959 
1032	 0.18871501839516 
1033	 0.188927021955043 
1034	 0.189138716308568 
1035	 0.189308334484023 
1036	 0.189492833773808 
1037	 0.189712630490283 
1038	 0.189912804593139 
1039	 0.190100380633466 
1040	 0.190343630178386 
1041	 0.190517476723591 
1042	 0.190654091658602 
1043	 0.190718702091388 
1044	 0.190808056845686 
1045	 0.190953573946825 
1046	 0.191168047208732 
1047	 0.191526047959914 
1048	 0.191741423662184 
1049	 0.191767713043609 
1050	 0.191862429971439 
1051	 0.191902474358937 
1052	 0.191912011959872 
1053	 0.19213254670456 
1054	 0.192450530568698 
1055	 0.192674436485232 
1056	 0.192858025846359 
1057	 0.192905022003737 
1058	 0.193047076699262 
1059	 0.19329362831924 
1060	 0.193449946476692 
1061	 0.193604634998158 
1062	 0.193697173842081 
1063	 0.193736019719787 
1064	 0.193857921688435 
1065	 0.193997296239772 
1066	 0.194148179263868 
1067	 0.194324929269073 
1068	 0.194553846027042 
1069	 0.194706150908661 
1070	 0.194831530476704 
1071	 0.195010939237185 
1072	 0.195196678387893 
1073	 0.195354365142831 
1074	 0.195500731638878 
1075	 0.195608255820153 
1076	 0.195610685287393 
1077	 0.195589691154974 
1078	 0.195639829271142 
1079	 0.195693380447016 
1080	 0.195775292655874 
1081	 0.19585625234779 
1082	 0.195989690528028 
1083	 0.196068296197078 
1084	 0.196070000649045 
1085	 0.196071411686223 
1086	 0.196137533428772 
1087	 0.196076410955339 
1088	 0.196005828431624 
1089	 0.196000425313228 
1090	 0.196018848030838 
1091	 0.196180515570695 
1092	 0.196324106154951 
1093	 0.196377154095633 
1094	 0.196320274014144 
1095	 0.196226967290084 
1096	 0.196207923457213 
1097	 0.196242240182895 
1098	 0.196258433313623 
1099	 0.196315884756598 
1100	 0.196385767771158 
1101	 0.196282569460434 
1102	 0.196265626687322 
1103	 0.196326851227779 
1104	 0.19627510564267 
1105	 0.196308698460325 
1106	 0.196308500666263 
1107	 0.196351103853991 
1108	 0.196459219133587 
1109	 0.196617447216201 
1110	 0.196886240796601 
1111	 0.197110646745988 
1112	 0.197331839081865 
1113	 0.19757045335765 
1114	 0.197858716576322 
1115	 0.198107235108655 
1116	 0.198384776286772 
1117	 0.198586033404934 
1118	 0.198639549770406 
1119	 0.198581949972198 
1120	 0.198551371541894 
1121	 0.198375854678338 
1122	 0.198091495755806 
1123	 0.197751010729703 
1124	 0.197224837227468 
1125	 0.196579709041126 
1126	 0.195938682647113 
1127	 0.195449738017931 
1128	 0.194630717346563 
1129	 0.193713856366988 
1130	 0.192619758574705 
1131	 0.191257414633208 
1132	 0.189992609074773 
1133	 0.188667037111505 
1134	 0.187466822871436 
1135	 0.186234626943131 
1136	 0.184945201856795 
1137	 0.183542178681444 
1138	 0.182080918061421 
1139	 0.180650311845183 
1140	 0.179197648692326 
1141	 0.177863457977023 
1142	 0.17661264159731 
1143	 0.175327687906794 
1144	 0.174150424304642 
1145	 0.172783204210842 
1146	 0.171336129101029 
1147	 0.169882138970076 
1148	 0.168322005933004 
1149	 0.166864139429708 
1150	 0.165493455605653 
1151	 0.164162770204884 
1152	 0.162883779022994 
1153	 0.161769053598011 
1154	 0.160675709865133 
1155	 0.159671612083354 
1156	 0.158806985543146 
1157	 0.157983210753427 
1158	 0.157257206495363 
1159	 0.156624406664504 
1160	 0.156053267375927 
1161	 0.155547963562451 
1162	 0.155075738488731 
1163	 0.154648111374378 
1164	 0.154250600894294 
1165	 0.153827310401696 
1166	 0.15351639693034 
1167	 0.15332175071021 
1168	 0.153076536379431 
1169	 0.152865537228557 
1170	 0.152651941532064 
1171	 0.152369711242376 
1172	 0.152124449989793 
1173	 0.151962394558264 
1174	 0.151847526969468 
1175	 0.151706088438776 
1176	 0.151554408910363 
1177	 0.151395162525698 
1178	 0.15119550395532 
1179	 0.15100190599382 
1180	 0.150819613684214 
1181	 0.150620676527873 
1182	 0.150398695692675 
1183	 0.15019351182121 
1184	 0.149993486955191 
1185	 0.149810792909783 
1186	 0.149610276649405 
1187	 0.149445382022894 
1188	 0.149325209237801 
1189	 0.149174964730138 
1190	 0.149047562414289 
1191	 0.148996978901532 
1192	 0.148934600751573 
1193	 0.148940433101786 
1194	 0.148910443945988 
1195	 0.148882412068487 
1196	 0.148871641956933 
1197	 0.14888833058444 
1198	 0.14883806495787 
1199	 0.148731649221353 
1200	 0.148725594189458 
1201	 0.148680148778955 
1202	 0.148728379694845 
1203	 0.148975452132044 
1204	 0.149087006141562 
1205	 0.149126094256003 
1206	 0.149207734448866 
1207	 0.149253592201099 
1208	 0.149318367487184 
1209	 0.149387964571009 
1210	 0.149526711880319 
1211	 0.14966946488062 
1212	 0.149831967704292 
1213	 0.150002977279378 
1214	 0.150232736464372 
1215	 0.150411904972653 
1216	 0.150553943515907 
1217	 0.150737156821276 
1218	 0.150903456758752 
1219	 0.151135292268928 
1220	 0.151445248720734 
1221	 0.15169479253201 
1222	 0.151997994312929 
1223	 0.152211349333576 
1224	 0.152287779902546 
1225	 0.152477861855949 
1226	 0.152684456341587 
1227	 0.15289880209255 
1228	 0.153189021309698 
1229	 0.15347106065021 
1230	 0.153657576766519 
1231	 0.153860934409879 
1232	 0.154022918131956 
1233	 0.154121517900638 
1234	 0.154304478722163 
1235	 0.15451764718951 
1236	 0.154689255065551 
1237	 0.154880684968696 
1238	 0.155067996292742 
1239	 0.155216533691638 
1240	 0.155387330524019 
1241	 0.155592613390177 
1242	 0.155785191690702 
1243	 0.155955917507318 
1244	 0.156137661211879 
1245	 0.156363561253034 
1246	 0.156543358845018 
1247	 0.156732216445117 
1248	 0.156852058760781 
1249	 0.156871828693396 
1250	 0.156940950427208 
1251	 0.156936246180799 
1252	 0.157014233890322 
1253	 0.157159896052184 
1254	 0.157428792133715 
1255	 0.157567819618174 
1256	 0.15773303106083 
1257	 0.157832355549018 
1258	 0.157812826448262 
1259	 0.157879720508156 
1260	 0.158008799427399 
1261	 0.158054319057943 
1262	 0.158074045326644 
1263	 0.158079813010629 
1264	 0.157980473221706 
1265	 0.157979350793311 
1266	 0.158056686494504 
1267	 0.158082705117955 
1268	 0.158136225711915 
1269	 0.158159621248204 
1270	 0.158106636379256 
1271	 0.158101373365441 
1272	 0.158114140677913 
1273	 0.158142398899469 
1274	 0.158164448041722 
1275	 0.15822703449402 
1276	 0.158197716286007 
1277	 0.158129821099428 
1278	 0.15806248487058 
1279	 0.157927735394751 
1280	 0.157856422862227 
1281	 0.157832006545133 
1282	 0.157752865563142 
1283	 0.157669076098819 
1284	 0.157571975129824 
1285	 0.157434722168527 
1286	 0.157315284148664 
1287	 0.157247838552855 
1288	 0.157090787542956 
1289	 0.156853521592766 
1290	 0.156665309402337 
1291	 0.156444497118598 
1292	 0.156235773899809 
1293	 0.156114575983359 
1294	 0.155907775935371 
1295	 0.155645524039474 
1296	 0.155361627191444 
1297	 0.15503589978955 
1298	 0.154623595401313 
1299	 0.154313239705015 
1300	 0.154020682929394 
1301	 0.15370583662903 
1302	 0.153484550776749 
1303	 0.153092660091027 
1304	 0.152573987201035 
1305	 0.15210661929994 
1306	 0.151584305579281 
1307	 0.151062260691149 
1308	 0.150566804793899 
1309	 0.150026033969332 
1310	 0.149435771084469 
1311	 0.148832078850075 
1312	 0.148228574835091 
1313	 0.147578829674584 
1314	 0.146876341368461 
1315	 0.14617362617519 
1316	 0.145456944912414 
1317	 0.14470885451459 
1318	 0.143914987209143 
1319	 0.14314393144921 
1320	 0.142362403648384 
1321	 0.141549944387123 
1322	 0.140763934535313 
1323	 0.139993768157075 
1324	 0.139192068211717 
1325	 0.138368765825021 
1326	 0.137527114948149 
1327	 0.136651638450587 
1328	 0.135770551558088 
1329	 0.134880221449785 
1330	 0.133928868400745 
1331	 0.132958676328062 
1332	 0.131954026268527 
1333	 0.130831053985682 
1334	 0.129849004786688 
1335	 0.128869216789856 
1336	 0.128011764950373 
1337	 0.127274485166793 
1338	 0.126558616349996 
1339	 0.125814104482364 
1340	 0.125246983929676 
1341	 0.124799295570387 
1342	 0.124376361471975 
1343	 0.124120866086634 
1344	 0.123877843292144 
1345	 0.12367661550166 
1346	 0.12344224852597 
1347	 0.123503741097093 
1348	 0.123519784300953 
1349	 0.123615151328804 
1350	 0.123945333398018 
1351	 0.124231616495377 
1352	 0.124598973527266 
1353	 0.125072477462957 
1354	 0.125738671722101 
1355	 0.126371765899159 
1356	 0.127066672483805 
1357	 0.127760206959879 
1358	 0.127268972800756 
1359	 0.126918966596912 
1360	 0.122860707074538 
1361	 0.122404248906064 
1362	 0.129385405717548 
1363	 0.132997432589897 
1364	 0.141545626368503 
1365	 0.145856457832216 
1366	 0.143855539577529 
1367	 0.136359463116115 
1368	 0.124705310546117 
1369	 0.118599727818764 
1370	 0.110120449342745 
1371	 0.106159248648687 
1372	 0.107160211743186 
1373	 0.106392036668826 
1374	 0.102674163569049 
1375	 0.103323220807297 
1376	 0.106634411079671 
1377	 0.108328460097703 
1378	 0.108154546084134 
1379	 0.108579726400955 
1380	 0.108261834276071 
1381	 0.106776401892438 
1382	 0.101513456558401 
1383	 0.095261880266508 
1384	 9.02159309857625E-02 
1385	 0.082346191602225 
1386	 7.68837917958546E-02 
1387	 7.49113788990373E-02 
1388	 7.18346954903815E-02 
1389	 6.62061862828948E-02 
1390	 6.45856845430833E-02 
1391	 6.71265174127965E-02 
1392	 6.54253331288666E-02 
1393	 0.062781796310497 
1394	 6.07523135678168E-02 
1395	 5.68046851516372E-02 
1396	 5.40820381056893E-02 
1397	 5.26460635700739E-02 
1398	 5.11297368326685E-02 
1399	 0.049385630843126 
1400	 4.78500814004078E-02 
1401	 4.74258205859574E-02 
1402	 4.58136625984553E-02 
1403	 4.36123130868754E-02 
1404	 4.16001071460862E-02 
1405	 3.92419873510455E-02 
1406	 3.73398905450563E-02 
1407	 3.51941329631433E-02 
1408	 3.34593431636423E-02 
1409	 3.21129830361366E-02 
1410	 3.13719971076161E-02 
1411	 3.07904405374096E-02 
1412	 3.07372608486343E-02 
1413	 3.04883171137866E-02 
1414	 3.02670660608354E-02 
1415	 2.98755126729152E-02 
1416	 2.97156707106387E-02 
1417	 2.90673172341716E-02 
1418	 2.80035318382502E-02 
1419	 2.74278644933143E-02 
1420	 2.68053300316385E-02 
1421	 2.63936475348886E-02 
1422	 2.63097699904362E-02 
1423	 2.59998089591591E-02 
1424	 2.54758759661848E-02 
1425	 2.52904603963021E-02 
1426	 2.52320589189937E-02 
1427	 2.51314954831568E-02 
1428	 2.53300172362695E-02 
1429	 0.025166439376268 
1430	 2.45803368228785E-02 
1431	 2.44091545309078E-02 
1432	 2.44232407734818E-02 
1433	 2.42272723308034E-02 
1434	 2.41442383721157E-02 
1435	 2.39900232623654E-02 
1436	 2.34419477236531E-02 
1437	 2.32638871724401E-02 
1438	 2.34511068836407E-02 
1439	 2.34636309087792E-02 
1440	 0.023650342335689 
1441	 2.35758545910077E-02 
1442	 0.023302377544024 
1443	 2.29299034959078E-02 
1444	 2.26888491537989E-02 
1445	 2.25503524836761E-02 
1446	 2.26434692400901E-02 
1447	 2.28470670587195E-02 
1448	 2.28372262574005E-02 
1449	 2.27746099849897E-02 
1450	 2.27698257882815E-02 
1451	 0.022707415884334 
1452	 2.26390267359199E-02 
1453	 2.26277759809541E-02 
1454	 2.25759092713675E-02 
1455	 2.23977090346072E-02 
1456	 2.24189329534112E-02 
1457	 2.25631573187115E-02 
1458	 2.26157263420732E-02 
1459	 2.27669477311267E-02 
1460	 2.27571733783567E-02 
1461	 2.25192891260956E-02 
1462	 2.25642582485554E-02 
1463	 2.26608417130942E-02 
1464	 2.28164617152787E-02 
1465	 2.33274740940679E-02 
1466	 2.35142692587232E-02 
1467	 0.023451233508858 
1468	 2.35437330472547E-02 
1469	 2.35552864962305E-02 
1470	 2.36300548462013E-02 
1471	 2.38306787621567E-02 
1472	 2.40055465724178E-02 
1473	 2.40973671278298E-02 
1474	 2.42806615342261E-02 
1475	 2.45657638183552E-02 
1476	 2.47795523617701E-02 
1477	 2.50187951100639E-02 
1478	 2.52008248157262E-02 
1479	 2.52468821563719E-02 
1480	 2.54212567436292E-02 
1481	 0.025648932211423 
1482	 0.02586278866504 
1483	 2.61825529849743E-02 
1484	 2.64121773318576E-02 
1485	 2.65190371967115E-02 
1486	 2.67082298492316E-02 
1487	 2.69157830712083E-02 
1488	 2.71151529817119E-02 
1489	 2.73384151039526E-02 
1490	 2.75753849823677E-02 
1491	 2.77628041994232E-02 
1492	 2.79567746953597E-02 
1493	 2.81845270513557E-02 
1494	 2.84739366765739E-02 
1495	 2.87615243319079E-02 
1496	 2.91300419420432E-02 
1497	 2.93329194516331E-02 
1498	 2.94519123669978E-02 
1499	 2.96882460590654E-02 
1500	 2.98840201194586E-02 
1501	 3.01347851098336E-02 
1502	 3.05031729406237E-02 
1503	 3.08103375475548E-02 
1504	 3.10611541358577E-02 
1505	 3.13633450887013E-02 
1506	 3.16955483667666E-02 
1507	 0.032053326576239 
1508	 3.24596093532563E-02 
1509	 0.03276955845791 
1510	 3.30805756459255E-02 
1511	 3.33567485060446E-02 
1512	 3.35093508741206E-02 
1513	 3.37907808304986E-02 
1514	 3.41395382363909E-02 
1515	 3.44716163022051E-02 
1516	 3.48585467034812E-02 
1517	 3.51926521642222E-02 
1518	 0.035502562833452 
1519	 3.58262360350409E-02 
1520	 3.61375244138477E-02 
1521	 3.64519568675889E-02 
1522	 0.036780686348405 
1523	 3.70947230729289E-02 
1524	 3.73769612045385E-02 
1525	 0.037706655679084 
1526	 3.80858354319485E-02 
1527	 3.84057865925863E-02 
1528	 3.86752912153398E-02 
1529	 3.90344624899137E-02 
1530	 3.94428861564426E-02 
1531	 3.97884286907768E-02 
1532	 0.040194770452067 
1533	 4.05418733869206E-02 
1534	 4.07484116052177E-02 
1535	 4.10453293786793E-02 
1536	 4.13932711164756E-02 
1537	 4.17395848583563E-02 
1538	 4.21769857604165E-02 
1539	 4.24900222217351E-02 
1540	 4.26917849312183E-02 
1541	 4.29757422743731E-02 
1542	 4.31566699304089E-02 
1543	 4.34726825849232E-02 
1544	 4.40195198757432E-02 
1545	 0.044408780488923 
1546	 4.47758620930226E-02 
1547	 4.51197702518765E-02 
1548	 4.52899297122274E-02 
1549	 4.56032414969702E-02 
1550	 0.046069005579272 
1551	 4.64266245472049E-02 
1552	 4.67869533168323E-02 
1553	 4.71405751395985E-02 
1554	 4.74135121392072E-02 
1555	 4.76998008403865E-02 
1556	 4.80032089514223E-02 
1557	 4.83208542659724E-02 
1558	 4.86593425733404E-02 
1559	 0.048948420344383 
1560	 4.91649266764235E-02 
1561	 0.049485607503762 
1562	 4.98645490351644E-02 
1563	 5.01910656800712E-02 
1564	 5.05658251626153E-02 
1565	 5.09743963127021E-02 
1566	 5.12345464016471E-02 
1567	 5.15131680146766E-02 
1568	 0.05183257208927 
1569	 5.21959142116114E-02 
1570	 5.25253980937592E-02 
1571	 5.28719732029766E-02 
1572	 5.31598428855626E-02 
1573	 5.34019699478781E-02 
1574	 5.36908868214394E-02 
1575	 0.053936173820193 
1576	 5.42932407339277E-02 
1577	 5.47509306997569E-02 
1578	 5.50723652047264E-02 
1579	 5.53928949858805E-02 
1580	 5.56758997144699E-02 
1581	 5.58579275458645E-02 
1582	 5.61156322628411E-02 
1583	 5.64066881464573E-02 
1584	 5.66906080359269E-02 
1585	 5.69647891263214E-02 
1586	 5.72651421352935E-02 
1587	 5.76003507092285E-02 
1588	 5.79005327532603E-02 
1589	 5.82165760477783E-02 
1590	 5.84668641817589E-02 
1591	 5.86509700457915E-02 
1592	 5.89238461757134E-02 
1593	 0.059211560590912 
1594	 0.059460612699238 
1595	 5.97532586633733E-02 
1596	 6.00030208580961E-02 
1597	 6.01735968112567E-02 
1598	 6.04118513858526E-02 
1599	 6.06676410187357E-02 
1600	 0.060985644604697 
1601	 6.13750152067404E-02 
1602	 6.16508063844447E-02 
1603	 6.19525197185549E-02 
1604	 0.062182158354774 
1605	 6.22282981912362E-02 
1606	 6.25168480814051E-02 
1607	 6.29615925613319E-02 
1608	 6.32300225015904E-02 
1609	 0.063527561037363 
1610	 0.063765868169095 
1611	 6.38607592587881E-02 
1612	 6.40295830157882E-02 
1613	 6.42135108262088E-02 
1614	 6.44676746924634E-02 
1615	 6.47367623901996E-02 
1616	 6.49985380672164E-02 
1617	 0.065374278305725 
1618	 6.56151488454742E-02 
1619	 0.065747028732945 
1620	 6.59393483524669E-02 
1621	 6.61019008002385E-02 
1622	 6.63289863710167E-02 
1623	 0.06663185995334 
1624	 6.68131874181634E-02 
1625	 6.69710979231231E-02 
1626	 6.71343377123594E-02 
1627	 6.71954519827375E-02 
1628	 6.73740413070315E-02 
1629	 6.76710833113207E-02 
1630	 6.78440334645337E-02 
1631	 6.79563450259944E-02 
1632	 6.81496822280293E-02 
1633	 6.83435573162517E-02 
1634	 6.85098438942824E-02 
1635	 6.87512005926457E-02 
1636	 6.89164865089791E-02 
1637	 6.89674673221494E-02 
1638	 6.91102799554912E-02 
1639	 6.92765854784569E-02 
1640	 6.94698492499792E-02 
1641	 6.97379674953985E-02 
1642	 6.98742604150224E-02 
1643	 6.99688677462911E-02 
1644	 7.00930890868593E-02 
1645	 7.01253980817253E-02 
1646	 0.070238142894355 
1647	 7.04622646439544E-02 
1648	 7.05530625305143E-02 
1649	 7.05865419581358E-02 
1650	 7.06161650011645E-02 
1651	 7.05760265030507E-02 
1652	 7.06328781050337E-02 
1653	 7.06850398454187E-02 
1654	 7.08234358520776E-02 
1655	 7.11125913526699E-02 
1656	 7.11616273147939E-02 
1657	 0.071138773288864 
1658	 7.11583090551459E-02 
1659	 7.10558420375875E-02 
1660	 7.11779700463233E-02 
1661	 7.14264127861767E-02 
1662	 0.071460991651792 
1663	 7.15081110520012E-02 
1664	 7.15076492825196E-02 
1665	 7.13565765788615E-02 
1666	 7.13258026514849E-02 
1667	 7.12926934456676E-02 
1668	 7.12820169538435E-02 
1669	 7.13628779188555E-02 
1670	 7.14073831924415E-02 
1671	 7.14322401920561E-02 
1672	 7.14636276433623E-02 
1673	 7.14530809821173E-02 
1674	 7.14377340923036E-02 
1675	 7.14519224475895E-02 
1676	 0.071354024367041 
1677	 7.13110685398525E-02 
1678	 7.13047962354633E-02 
1679	 7.11706012111453E-02 
1680	 7.11906848851702E-02 
1681	 0.071253003220855 
1682	 7.11464401943057E-02 
1683	 7.11214386337788E-02 
1684	 7.09997359199001E-02 
1685	 7.07038028165034E-02 
1686	 7.05093907553161E-02 
1687	 7.03472542625688E-02 
1688	 7.03217885779948E-02 
1689	 7.03155748371639E-02 
1690	 0.070361464795342 
1691	 7.02999988351599E-02 
1692	 7.00274325876654E-02 
1693	 6.98768541588374E-02 
1694	 6.97662606688911E-02 
1695	 6.96176628897773E-02 
1696	 6.96006580241525E-02 
1697	 6.94199786005329E-02 
1698	 6.90066248833757E-02 
1699	 6.87659886981885E-02 
1700	 6.85353158149812E-02 
1701	 6.83225974505089E-02 
1702	 6.82482285995015E-02 
1703	 6.81492482004957E-02 
1704	 6.80356632146583E-02 
1705	 6.78602055074546E-02 
1706	 6.76685846744212E-02 
1707	 6.74509630404103E-02 
1708	 6.71327160381033E-02 
1709	 0.066941509927585 
1710	 6.68614761235344E-02 
1711	 6.66949206330218E-02 
1712	 6.65121523233737E-02 
1713	 0.066309665946589 
1714	 6.60438776264496E-02 
1715	 6.58095300021468E-02 
1716	 6.56054503104166E-02 
1717	 6.54214090900134E-02 
1718	 6.51986001639335E-02 
1719	 6.51188645685279E-02 
1720	 6.51862547820149E-02 
1721	 6.50813279072082E-02 
1722	 6.49903401603701E-02 
1723	 6.48087795730116E-02 
1724	 6.44627524962494E-02 
1725	 6.42512243489257E-02 
1726	 6.40554096781392E-02 
1727	 6.39149439316136E-02 
1728	 6.38611238848727E-02 
1729	 6.36715486215922E-02 
1730	 6.34236586281844E-02 
1731	 6.32927123236914E-02 
1732	 6.31976594811923E-02 
1733	 6.31180043550378E-02 
1734	 6.29564514554788E-02 
1735	 6.25837411811767E-02 
1736	 6.22423717152226E-02 
1737	 6.19299121712034E-02 
1738	 0.06167905367848 
1739	 6.18163237282033E-02 
1740	 6.17810248054483E-02 
1741	 6.15280037054219E-02 
1742	 6.15187604270732E-02 
1743	 0.061162630636814 
1744	 6.06601554285064E-02 
1745	 6.05255506033581E-02 
1746	 6.02170560744164E-02 
1747	 5.98349738628566E-02 
1748	 5.97235585452324E-02 
1749	 5.94626464046494E-02 
1750	 5.91090790267534E-02 
1751	 5.88858256702781E-02 
1752	 5.86956217825354E-02 
1753	 5.85577314141204E-02 
1754	 5.83886331305287E-02 
1755	 5.81145007406691E-02 
1756	 0.057701885025685 
1757	 5.70556281826387E-02 
1758	 5.67488858294087E-02 
1759	 5.67165634067729E-02 
1760	 5.65894292503621E-02 
1761	 5.65924404587775E-02 
1762	 5.65689396797709E-02 
1763	 5.65224998270912E-02 
1764	 5.63346766574213E-02 
1765	 5.61178545793697E-02 
1766	 5.59451177797093E-02 
1767	 5.57050223260352E-02 
1768	 5.54330790717089E-02 
1769	 5.50705388872651E-02 
1770	 5.49071094217801E-02 
1771	 5.47203472313988E-02 
1772	 5.46928118948059E-02 
1773	 5.50784290727949E-02 
1774	 5.50158649177099E-02 
1775	 5.49157261759364E-02 
1776	 5.47006915914438E-02 
1777	 5.43205826123856E-02 
1778	 5.42362692878578E-02 
1779	 5.42387331306278E-02 
1780	 5.40677279223466E-02 
1781	 5.39766361823519E-02 
1782	 5.39119508609208E-02 
1783	 5.37669796300399E-02 
1784	 0.053840146903733 
1785	 5.41299800285572E-02 
1786	 5.40869522085928E-02 
1787	 5.39380310697517E-02 
1788	 5.41332099214444E-02 
1789	 5.41086661074444E-02 
1790	 5.41385777964742E-02 
1791	 5.42717487754369E-02 
1792	 5.40587783214946E-02 
1793	 5.41145247351934E-02 
1794	 5.42726890383792E-02 
1795	 5.45109143034832E-02 
1796	 0.054774628454933 
1797	 0.054590671303249 
1798	 5.44480516623253E-02 
1799	 0.054688784320616 
1800	 5.47193047637185E-02 
1801	 5.90748472100324E-02 
1802	 5.95228345448791E-02 
1803	 5.92671908999803E-02 
1804	 5.74780374540146E-02 
1805	 5.69417669069517E-02 
1806	 5.64789679190266E-02 
1807	 5.65948723967715E-02 
1808	 5.73233068721685E-02 
1809	 5.93474961533775E-02 
1810	 6.03483766558511E-02 
1811	 6.15332398250228E-02 
1812	 0.062515271811039 
1813	 6.34446135627107E-02 
1814	 6.35499798278464E-02 
1815	 6.25505522554153E-02 
1816	 6.24726377159405E-02 
1817	 6.18917114032983E-02 
1818	 6.11125752009844E-02 
1819	 6.04706604430904E-02 
1820	 6.02793816666801E-02 
1821	 6.14462312322217E-02 
1822	 0.063363941535946 
1823	 6.51967423601694E-02 
1824	 7.19769781535279E-02 
1825	 7.40025578348115E-02 
1826	 7.05359726110179E-02 
1827	 6.87128117242146E-02 
1828	 6.55923432996898E-02 
1829	 5.54777362862075E-02 
1830	 5.37403392687416E-02 
1831	 6.24354251893816E-02 
1832	 6.24400531334608E-02 
1833	 6.24942019300354E-02 
1834	 6.70097642549842E-02 
1835	 5.57778400168431E-02 
1836	 6.09901911923396E-02 
1837	 0.11104306496196 
1838	 0.13909450808299 
1839	 0.158664711070236 
1840	 0.167310568798115 
1841	 0.166483295162417 
1842	 0.151073558023729 
1843	 0.12523676492062 
1844	 6.89033152966953E-02 
1845	 5.45663447118232E-02 
1846	 4.65891583685136E-02 
1847	 4.10644980776516E-02 
1848	 4.47987417928125E-02 
1849	 8.36343882512121E-02 
1850	 0.093643798206098 
1851	 8.82995701509167E-02 
1852	 9.25131135488161E-02 
1853	 0.10118250254659 
1854	 9.89995753448742E-02 
1855	 8.21675288261435E-02 
1856	 8.10956578822204E-02 
1857	 7.59831585907127E-02 
1858	 8.50109832650596E-02 
1859	 8.97508595886536E-02 
1860	 0.111833787973776 
1861	 0.108912206231748 
1862	 8.11223518300365E-02 
1863	 8.19146379263658E-02 
1864	 9.25918609132438E-02 
1865	 9.69718638087603E-02 
1866	 0.114684853230152 
1867	 0.132399493158645 
1868	 0.154767660926099 
1869	 0.137151660505425 
1870	 0.138136682700848 
1871	 0.164746800199014 
1872	 0.151488066943706 
1873	 0.113516050450943 
1874	 0.092739235293267 
1875	 6.89462946934503E-02 
1876	 5.27144552580711E-02 
1877	 4.22371161804953E-02 
1878	 3.85609785928435E-02 
1879	 3.60312602397066E-02 
1880	 0.035299378938728 
1881	 3.37329751323279E-02 
1882	 3.56141312268535E-02 
1883	 3.28724170827285E-02 
1884	 2.52201260915168E-02 
1885	 2.27015373747935E-02 
1886	 1.85034062987821E-02 
1887	 2.04787233027259E-02 
1888	 2.75355023511764E-02 
1889	 3.04461160137316E-02 
1890	 0.027305564716798 
1891	 1.68623755534239E-02 
1892	 1.71944365624543E-02 
1893	 1.71967077287595E-02 
1894	 1.62481951005008E-02 
1895	 2.34226141766601E-02 
1896	 2.80548313095815E-02 
1897	 2.34765936972572E-02 
1898	 2.94957545084919E-02 
1899	 4.31181156082997E-02 
1900	 5.38366819650195E-02 
1901	 5.73583646923773E-02 
1902	 0.051818873698277 
1903	 4.36842419119651E-02 
1904	 2.00116605032317E-02 
1905	 5.29835169890389E-03 
1906	-9.71251307552929E-03 
1907	-2.06132965879198E-02 
1908	-1.49285216178344E-02 
1909	-2.29118015955182E-03 
1910	 3.01525659128711E-02 
1911	 4.84442656219756E-02 
1912	 4.92290095808492E-02 
1913	 4.47493330989583E-02 
1914	 4.02048369398648E-02 
1915	 2.90352834315849E-02 
1916	 2.26896356566743E-02 
1917	 1.60716733547224E-02 
1918	 1.48094995993512E-02 
1919	 1.44413306186273E-02 
1920	 9.40927395785812E-03 
1921	 1.05661340020057E-02 
1922	 1.40818314307495E-02 
1923	 1.55693203239113E-02 
1924	 1.84082087743441E-02 
1925	 1.83319132278503E-02 
1926	 1.60474954575316E-02 
1927	 1.47947458846672E-02 
1928	 1.30030201690092E-02 
1929	 1.11345721634155E-02 
1930	 7.79676087643123E-03 
1931	 8.77341963109098E-03 
1932	 1.02307369524835E-02 
1933	 9.69086449343951E-03 
1934	 9.53926961351866E-03 
1935	 9.52609985031651E-03 
1936	 1.01294580445464E-02 
1937	 1.08475088101592E-02 
1938	 0.011279329601719 
1939	 1.26835682330622E-02 
1940	 1.36390213004739E-02 
1941	 1.21158638649817E-02 
1942	 0.010948896478909 
1943	 0.011376238598549 
1944	 1.15960710219433E-02 
1945	 1.19088051069179E-02 
1946	 1.24351083400923E-02 
1947	 1.21740441391857E-02 
1948	 1.01218815545867E-02 
1949	 9.99143300999571E-03 
1950	 1.06273434357339E-02 
1951	 1.12052253031115E-02 
1952	 1.18473287267402E-02 
1953	 1.22128895694016E-02 
1954	 1.12417006947384E-02 
1955	 1.06040927725854E-02 
1956	 9.92663318182713E-03 
1957	 9.43542930397947E-03 
1958	 9.14293105745055E-03 
1959	 8.72269348445119E-03 
1960	 8.57830826996469E-03 
1961	 8.42552031130311E-03 
1962	 9.08234428958032E-03 
1963	 1.00104515453177E-02 
1964	 1.04940009652986E-02 
1965	 1.02202755644388E-02 
1966	 9.7847793155691E-03 
1967	 9.46763600758597E-03 
1968	 9.59516202104741E-03 
1969	 9.62339953235347E-03 
1970	 1.00740103143376E-02 
1971	 1.03070941806202E-02 
1972	 1.05311326046701E-02 
1973	 0.010178925192113 
1974	 1.00063778283753E-02 
1975	 9.99327606031147E-03 
1976	 9.86308918379102E-03 
1977	 9.63988305560546E-03 
1978	 9.60774368353408E-03 
1979	 9.94373270946157E-03 
1980	 9.83766305921798E-03 
1981	 1.01309311025922E-02 
1982	 1.03668441330258E-02 
1983	 1.08068978316588E-02 
1984	 1.07174702516789E-02 
1985	 1.09534528491416E-02 
1986	 1.09207502871993E-02 
1987	 1.08823623769572E-02 
1988	 1.10956669071053E-02 
1989	 1.09177641492952E-02 
1990	 1.09739985067251E-02 
1991	 1.13306874657245E-02 
1992	 1.15319879646231E-02 
1993	 1.17828301316817E-02 
1994	 1.18663406794908E-02 
1995	 1.18827111536254E-02 
1996	 1.14936043903973E-02 
1997	 1.12787371912218E-02 
1998	 1.14089017939578E-02 
1999	 1.16578583865453E-02 
2000	 1.17742881663518E-02 
2001	 0.012066404895581 
2002	 1.24680677313607E-02 
2003	 1.22978522941497E-02 
2004	 1.22255817704896E-02 
2005	 1.21046576354386E-02 
2006	 1.19143565262292E-02 
2007	 1.12609576555609E-02 
2008	 1.14436164791615E-02 
2009	 1.18458226246252E-02 
2010	 1.17500002909079E-02 
2011	 1.20387145349669E-02 
2012	 1.28912799661587E-02 
2013	 1.35262248357599E-02 
2014	 1.42568715843698E-02 
2015	 1.45598057758557E-02 
2016	 1.38989333426774E-02 
2017	 1.34988274880987E-02 
2018	 1.36594112888427E-02 
2019	 1.36604310922282E-02 
2020	 1.37518180875992E-02 
2021	 1.41383777044744E-02 
2022	 1.44556477570995E-02 
2023	 0.013819257199929 
2024	 1.35296132637213E-02 
2025	 1.37133831207256E-02 
2026	 1.35098066045967E-02 
2027	 1.38651176635736E-02 
2028	 1.43548650522889E-02 
2029	 1.41444612081777E-02 
2030	 1.39681580082273E-02 
2031	 1.38508767480281E-02 
2032	 1.37614461049883E-02 
2033	 1.35369163106715E-02 
2034	 1.38504557437929E-02 
2035	 1.40654409614998E-02 
2036	 1.41238233642847E-02 
2037	 1.44689663652795E-02 
2038	 1.44544309617434E-02 
2039	 0.014412577885443 
2040	 1.46270423515382E-02 
2041	 1.46678646183228E-02 
2042	 1.45572487217359E-02 
2043	 0.014505772202758 
2044	 1.44897093018034E-02 
2045	 1.43839140747073E-02 
2046	 1.40635056812352E-02 
2047	 1.41089000662209E-02 
2048	 1.46186667808273E-02 
2049	 1.46392198332146E-02 
2050	 1.48403329836594E-02 
2051	 0.015014362374783 
2052	 1.47706892000063E-02 
2053	 1.49122812346305E-02 
2054	 1.52161799008778E-02 
2055	 1.57205232335922E-02 
2056	 1.58102308390725E-02 
2057	 1.57013877549898E-02 
2058	 1.56456276225745E-02 
2059	 0.015679004132759 
2060	 1.56230062891746E-02 
2061	 0.015903106431562 
2062	 1.61452077459384E-02 
2063	 1.63973878873106E-02 
2064	 1.64199359266678E-02 
2065	 1.63387097746112E-02 
2066	 1.66055726819486E-02 
2067	 1.69973676056138E-02 
2068	 1.69773814078739E-02 
2069	 0.016679607597033 
2070	 1.65003047909992E-02 
2071	 0.016086639850357 
2072	 1.60142265954364E-02 
2073	 0.016142691065661 
2074	 0.016844322752327 
2075	 1.71733137164108E-02 
2076	 1.72817029748646E-02 
2077	 1.71507232642092E-02 
2078	 0.016825070638973 
2079	 0.01678236735435 
2080	 1.68789671203741E-02 
2081	 1.74022855993951E-02 
2082	 0.018100724672709 
2083	 1.84784315829921E-02 
2084	 1.85809198612089E-02 
2085	 1.84497145019667E-02 
2086	 1.83242093697725E-02 
2087	 0.018425969786044 
2088	 1.85694045438703E-02 
2089	 1.90056837105556E-02 
2090	 1.93312440256224E-02 
2091	 1.93390290154448E-02 
2092	 1.92448192400383E-02 
2093	 1.90176174094008E-02 
2094	 1.90468493655536E-02 
2095	 1.91722144167627E-02 
2096	 1.90811770261042E-02 
2097	 1.91163589552683E-02 
2098	 0.019010103837719 
2099	 1.91897517330322E-02 
2100	 1.93861809820722E-02 
2101	 1.91926204894981E-02 
2102	 1.92331582669191E-02 
2103	 1.93772573846785E-02 
2104	 0.019290929940101 
2105	 1.92483657796355E-02 
2106	 1.98901691739674E-02 
2107	 2.03391063366925E-02 
2108	 0.020421039123843 
2109	 2.08663981856631E-02 
2110	 0.020808025038951 
2111	 2.06534926686989E-02 
2112	 2.11363726835968E-02 
2113	 0.021486764767804 
2114	 0.021484388135857 
2115	 2.13819993165735E-02 
2116	 2.12900792940611E-02 
2117	 2.11599750097674E-02 
2118	 2.08613391046744E-02 
2119	 2.10040941912136E-02 
2120	 2.14995590456235E-02 
2121	 2.14384668973087E-02 
2122	 2.16943644340529E-02 
2123	 2.16142500558819E-02 
2124	 2.12294444785438E-02 
2125	 2.12923430163409E-02 
2126	 2.11740814774923E-02 
2127	 2.11120833829738E-02 
2128	 2.13510786689088E-02 
2129	 2.13779229108462E-02 
2130	 0.021209870809022 
2131	 2.14859208608797E-02 
2132	 2.17188457489968E-02 
2133	 2.18778394842989E-02 
2134	 2.20929064906598E-02 
2135	 2.25988389602197E-02 
2136	 0.022517473084736 
2137	 2.26959700008918E-02 
2138	 2.31044512014241E-02 
2139	 2.32086213379188E-02 
2140	 2.37646449564408E-02 
2141	 2.40514633006288E-02 
2142	 2.38070809008683E-02 
2143	 2.36439194036004E-02 
2144	 2.36223137253665E-02 
2145	 2.34939011617569E-02 
2146	 0.023223584239171 
2147	 0.023359147548502 
2148	 2.35071218071839E-02 
2149	 2.34821902241968E-02 
2150	 2.38760859393826E-02 
2151	 2.40740399837103E-02 
2152	 0.024079134641757 
2153	 2.42572301025002E-02 
2154	 2.45758588755277E-02 
2155	 2.46018316312004E-02 
2156	 2.48731033710839E-02 
2157	 2.46131966920327E-02 
2158	 2.41482230265807E-02 
2159	 0.024092606844194 
2160	 2.39639242987532E-02 
2161	 2.40505530790347E-02 
2162	 2.47034147410584E-02 
2163	 2.52654115409901E-02 
2164	 2.52929021002598E-02 
2165	 2.55746681417259E-02 
2166	 0.025363274549161 
2167	 2.48883691798217E-02 
2168	 2.48351637696823E-02 
2169	 2.49789897703258E-02 
2170	 2.50012347630807E-02 
2171	 2.52270791419171E-02 
2172	 2.55257062888118E-02 
2173	 2.52025219782402E-02 
2174	 2.52949509050311E-02 
2175	 2.53212590398418E-02 
2176	 2.51837457135169E-02 
2177	 2.53178812613356E-02 
2178	 2.54464124341684E-02 
2179	 2.57460225012484E-02 
2180	 2.57888945494399E-02 
2181	 2.58377388398862E-02 
2182	 2.59545691186689E-02 
2183	 2.57914341832706E-02 
2184	 2.60394378840474E-02 
2185	 2.60381540645098E-02 
2186	 2.54932209639633E-02 
2187	 2.54822353784776E-02 
2188	 2.56252419359275E-02 
2189	 2.57274356303297E-02 
2190	 2.59907397580642E-02 
2191	 2.66377848732568E-02 
2192	 2.69249655265987E-02 
2193	 2.68631335231389E-02 
2194	 2.71175893758695E-02 
2195	 2.75586389399763E-02 
2196	 2.77216767623244E-02 
2197	 2.80216941581629E-02 
2198	 2.79503440003523E-02 
2199	 2.74694556174867E-02 
2200	 2.71633820093999E-02 
2201	 2.71347638765995E-02 
2202	 2.72903520919759E-02 
2203	 0.027564786595192 
2204	 2.78536734201542E-02 
2205	 2.75684273296649E-02 
2206	 2.73937153237221E-02 
2207	 2.72504552030497E-02 
2208	 0.027134191505811 
2209	 2.74273453203644E-02 
2210	 2.74554701898698E-02 
2211	 2.72701502844486E-02 
2212	 2.69214363554572E-02 
2213	 2.70929653260417E-02 
2214	 2.67196073214811E-02 
2215	 0.026555631212071 
2216	 0.02702436950012 
2217	 2.68653675633737E-02 
2218	 2.65975845126695E-02 
2219	 0.027030535484471 
2220	 2.72507058880347E-02 
2221	 2.71668854861237E-02 
2222	 2.73062732502085E-02 
2223	 2.71180487158021E-02 
2224	 2.68220314258716E-02 
2225	 2.67967927113461E-02 
2226	 2.66020567589462E-02 
2227	 2.61841340436196E-02 
2228	 2.59250828206564E-02 
2229	 2.58539917443882E-02 
2230	 2.58500196402585E-02 
2231	 2.59394642194288E-02 
2232	 2.61758708012513E-02 
2233	 2.62841753855257E-02 
2234	 2.62716946922833E-02 
2235	 0.026753879322135 
2236	 2.71913194239629E-02 
2237	 2.71924340357542E-02 
2238	 2.70411202452633E-02 
2239	 2.64133049302824E-02 
2240	 2.52593975004385E-02 
2241	 2.51352628146539E-02 
2242	 2.56140280819834E-02 
2243	 2.57032372305464E-02 
2244	 2.61290787399439E-02 
2245	 2.60189618027383E-02 
2246	 2.51594671750698E-02 
2247	 2.49808962169639E-02 
2248	 2.51581757018005E-02 
2249	 2.49957268392059E-02 
2250	 2.49763148611707E-02 
2251	 2.46207668227117E-02 
2252	 2.38626617489902E-02 
2253	 2.36911575569471E-02 
2254	 2.35234160206716E-02 
2255	 2.34432717507003E-02 
2256	 2.36389442661465E-02 
2257	 2.42221547902968E-02 
2258	 2.44991842277421E-02 
2259	 2.46938539235368E-02 
2260	 2.45243349887429E-02 
2261	 2.40762737992719E-02 
2262	 0.023703633285325 
2263	 2.33278959310309E-02 
2264	 2.34866729182755E-02 
2265	 2.36579725209221E-02 
2266	 2.32602623213581E-02 
2267	 2.25711662005574E-02 
2268	 2.21038587159736E-02 
2269	 2.23067228748557E-02 
2270	 2.22393286503203E-02 
2271	 2.25812595912214E-02 
2272	 2.35582010701676E-02 
2273	 2.28093182608806E-02 
2274	 0.022359688609454 
2275	 2.22925369403003E-02 
2276	 2.08846791285473E-02 
2277	 2.04007726246861E-02 
2278	 2.00877978540574E-02 
2279	 1.97428977556109E-02 
2280	 2.00551107483533E-02 
2281	 2.04135614659104E-02 
2282	 2.02384685680869E-02 
2283	 1.97952761917483E-02 
2284	 1.96933972009791E-02 
2285	 1.91863313610678E-02 
2286	 1.93003620419027E-02 
2287	 2.02283390171933E-02 
2288	 2.09187211795974E-02 
2289	 2.07072836538973E-02 
2290	 2.11995468601037E-02 
2291	 2.07231935059628E-02 
2292	 2.03985497352618E-02 
2293	 2.11012154740188E-02 
2294	 2.06026350201676E-02 
2295	 2.00245377469627E-02 
2296	 1.98755320464528E-02 
2297	 1.87793570167576E-02 
2298	 1.87506276916447E-02 
2299	 1.90773877001757E-02 
2300	 1.89068508895998E-02 
2301	 1.98161587370769E-02 
2302	 1.99075333809705E-02 
2303	 1.96420969042887E-02 
2304	 0.020299082796225 
2305	 2.00852934534638E-02 
2306	 1.88355667705586E-02 
2307	 1.77910946004912E-02 
2308	 1.72636109069085E-02 
2309	 1.69426928995778E-02 
2310	 1.75043428421659E-02 
2311	 1.88249383526673E-02 
2312	 1.85128163236459E-02 
2313	 1.69589107933415E-02 
2314	 1.61547783282771E-02 
2315	 1.53967298148783E-02 
2316	 1.55048723447629E-02 
2317	 0.016552323437963 
2318	 1.70579521715164E-02 
2319	 1.77675796194241E-02 
2320	 0.018561997368931 
2321	 1.88155856623105E-02 
2322	 0.018795393316322 
2323	 1.87854261338534E-02 
2324	 1.86916972712856E-02 
2325	 1.74119354152181E-02 
2326	 1.62866916846862E-02 
2327	 0.01594762475145 
2328	 1.54279970516151E-02 
2329	 1.53317156579215E-02 
2330	 0.015667543553503 
2331	 1.62633244122369E-02 
2332	 1.55484554902776E-02 
2333	 1.44055488792788E-02 
2334	 1.39938892490665E-02 
2335	 1.26964540046875E-02 
2336	 1.20183929152046E-02 
2337	 0.012575343957627 
2338	 1.33448628016063E-02 
2339	 0.014834254727499 
2340	 1.48728488355789E-02 
2341	 1.40982438018323E-02 
2342	 1.39955430714331E-02 
2343	 1.23494520644903E-02 
2344	 1.22717854829404E-02 
2345	 0.013825774580607 
2346	 1.40534445380877E-02 
2347	 0.014833947263885 
2348	 0.016237775187041 
2349	 1.68389769433122E-02 
2350	 0.017354090636992 
2351	 1.83710146361225E-02 
2352	 1.86260482778344E-02 
2353	 1.79596306769737E-02 
2354	 1.59665291493529E-02 
2355	 1.34383983813523E-02 
2356	 0.011830348855755 
2357	 1.04432080762704E-02 
2358	 1.11347666977448E-02 
2359	 1.35210415024952E-02 
2360	 1.42482296554445E-02 
2361	 1.51703501831788E-02 
2362	 1.64853022895985E-02 
2363	 1.53498211719395E-02 
2364	 1.42111755557035E-02 
2365	 1.46902816857071E-02 
2366	 1.33248180759886E-02 
2367	 1.32064853345504E-02 
2368	 1.63740767031226E-02 
2369	 1.73643379853286E-02 
2370	 0.019018877904421 
2371	 2.05400218022651E-02 
2372	 2.05097402201892E-02 
2373	 1.79264974308769E-02 
2374	 1.68765505040746E-02 
2375	 1.58075009623525E-02 
2376	 1.53597066135101E-02 
2377	 1.49660315085874E-02 
2378	 1.47857917389052E-02 
2379	 1.48211209890758E-02 
2380	 1.42852369609538E-02 
2381	 1.40554793670168E-02 
2382	 1.32183282645397E-02 
2383	 1.21499562281902E-02 
2384	 1.22136103164906E-02 
2385	 1.29185997960588E-02 
2386	 0.011810849033411 
2387	 9.54045112850186E-03 
2388	 7.83635715857318E-03 
2389	 3.52470943950149E-03 
2390	 3.78477825301783E-03 
2391	 8.13890469004967E-03 
2392	 0.01089938431174 
2393	 1.71958055338238E-02 
2394	 1.88683401988132E-02 
2395	 1.63353585214364E-02 
2396	 1.65330521278813E-02 
2397	 1.44330762782156E-02 
2398	 1.36106831800809E-02 
2399	 0.016723380595563 
2400	 1.71113962527809E-02 
2401	 1.53277707270995E-02 
2402	 1.61690942811785E-02 
2403	 1.51316464905047E-02 
2404	 1.23308403354693E-02 
2405	 1.19928276572199E-02 
2406	 1.03153308771731E-02 
2407	 7.98779779232939E-03 
2408	 7.29513289122333E-03 
2409	 6.10905937097901E-03 
2410	 6.68876410502397E-03 
2411	 8.7655019594999E-03 
2412	 8.80003060779372E-03 
2413	 9.77776542640134E-03 
2414	 1.10762443533242E-02 
2415	 8.64362167550075E-03 
2416	 9.41535627192791E-03 
2417	 1.03873419325769E-02 
2418	 7.10813762493124E-03 
2419	 9.53764213264277E-03 
2420	 1.14592317959236E-02 
2421	 7.32689294549174E-03 
2422	 5.57702482811915E-03 
2423	 3.66299202308096E-03 
2424	 1.97148732569541E-03 
2425	 5.36348540790649E-03 
2426	 7.21126849626274E-03 
2427	 7.34439053091485E-03 
2428	 9.31934818263831E-03 
2429	 1.06013777579868E-02 
2430	 1.16580684250299E-02 
2431	 1.46068517220312E-02 
2432	 1.60382464084885E-02 
2433	 1.37154950760072E-02 
2434	 1.22806856407931E-02 
2435	 7.41789107086509E-03 
2436	 6.5438166736657E-03 
2437	 1.02349369143251E-02 
2438	 9.98987630153723E-03 
2439	 9.12664656202917E-03 
2440	 8.48915861746093E-03 
2441	 3.86238103803016E-03 
2442	 3.79276008650881E-03 
2443	 0.010673417945262 
2444	 1.23757369435762E-02 
2445	 1.15150249533752E-02 
2446	 1.24500420396983E-02 
2447	 1.08241652948434E-02 
2448	 9.36941130712208E-03 
2449	 9.84886233280521E-03 
2450	 1.15649318694954E-02 
2451	 1.20659393729626E-02 
2452	 1.20048219243381E-02 
2453	 1.57180938656189E-02 
2454	 1.44695054926677E-02 
2455	 7.82583932005805E-03 
2456	 8.5145376409351E-03 
2457	 0.011521995805335 
2458	 1.27289922096143E-02 
2459	 1.72531108658793E-02 
2460	 0.017066767313226 
2461	 1.32441937601314E-02 
2462	 1.08655306496299E-02 
2463	 6.24096734084386E-03 
2464	 5.47258547854602E-03 
2465	 5.07572389759719E-03 
2466	 4.81800174514005E-03 
2467	 9.65385208543208E-03 
2468	 1.04110882217309E-02 
2469	 1.11505105025271E-02 
2470	 8.45624092550689E-03 
2471	 1.19342630316662E-03 
2472	-4.79297869551069E-03 
2473	-1.88881767644715E-02 
2474	-2.07586032734714E-02 
2475	-1.22622773033337E-02 
2476	-1.20847723392499E-02 
2477	-9.6903738089669E-03 
2478	-5.15902251737831E-03 
2479	-1.49044252778269E-03 
2480	-2.41476690888326E-04 
2481	 9.74385593571645E-03 
2482	 1.00468944757487E-02 
2483	-1.18933954214728E-02 
2484	-0.015723564719603 
2485	-1.81454613041085E-02 
2486	 1.81979242930051E-02 
2487	 5.74394006114378E-02 
2488	 6.48715870547223E-02 
2489	 7.87876857441542E-02 
2490	 4.56915747303256E-02 
2491	-6.04403364424292E-04 
2492	 2.67438365914159E-02 
2493	 5.84703788915904E-02 
2494	 2.11700929770342E-02 
2495	-1.93578325948438E-02 
2496	-4.72694497415825E-02 
2497	-0.121272312527909 
2498	-0.135208970454266 
2499	-9.93101254299531E-02 
2500	-0.121934167752695 
