Wavelength	ref00095.asd
350	 0.596491077713135 
351	 0.595210007679309 
352	 0.593359517072227 
353	 0.593199413637956 
354	 0.592058561360082 
355	 0.590729135850842 
356	 0.589998318777439 
357	 0.589367580477178 
358	 0.588405006064425 
359	 0.587514638491181 
360	 0.587177470878273 
361	 0.587078560786646 
362	 0.586216947128811 
363	 0.5847717578094 
364	 0.583636091872672 
365	 0.582337294841906 
366	 0.581422656670572 
367	 0.581055793384224 
368	 0.580746856616157 
369	 0.580340155862388 
370	 0.579670360656998 
371	 0.578763633924087 
372	 0.578131993184336 
373	 0.577514285520363 
374	 0.57693567030572 
375	 0.5764864827644 
376	 0.575523506745534 
377	 0.574826696390501 
378	 0.574498598998095 
379	 0.57371280822439 
380	 0.573146928731654 
381	 0.573084939184011 
382	 0.573385115395721 
383	 0.573049974953804 
384	 0.572687216377204 
385	 0.572312762670478 
386	 0.571713036567484 
387	 0.570917135440082 
388	 0.570266819801882 
389	 0.569777546489878 
390	 0.569141107661494 
391	 0.569013606065972 
392	 0.569215783577573 
393	 0.569473363223195 
394	 0.569746841898535 
395	 0.569413059315729 
396	 0.568874928808005 
397	 0.568634455516311 
398	 0.567615676264259 
399	 0.566658276876329 
400	 0.566175759576548 
401	 0.566095788490639 
402	 0.565975226487328 
403	 0.56594217353176 
404	 0.56609541292154 
405	 0.566311761220971 
406	 0.56632502190441 
407	 0.566252017776926 
408	 0.566274318565239 
409	 0.56611560884635 
410	 0.565916492870941 
411	 0.565717611851173 
412	 0.565466052276233 
413	 0.565337729651528 
414	 0.56523423365266 
415	 0.565114189328885 
416	 0.565150710160972 
417	 0.565269887166584 
418	 0.565253812913512 
419	 0.564985585993068 
420	 0.565109638591641 
421	 0.565037005033944 
422	 0.564716809150708 
423	 0.564599645760045 
424	 0.564490503904285 
425	 0.564427932845025 
426	 0.564459035356755 
427	 0.564590960541599 
428	 0.564712930878499 
429	 0.564620562164307 
430	 0.564243531567031 
431	 0.564303034113787 
432	 0.564115594037178 
433	 0.563553855724853 
434	 0.563043755660584 
435	 0.562885325264875 
436	 0.562874017311494 
437	 0.562814470233445 
438	 0.562746207592271 
439	 0.562477095081004 
440	 0.562157811231433 
441	 0.561982791681682 
442	 0.561645113707779 
443	 0.561370191005025 
444	 0.561128533338955 
445	 0.56065001160182 
446	 0.56049231325054 
447	 0.560329709515652 
448	 0.559894985681372 
449	 0.559440909081554 
450	 0.559046178098017 
451	 0.558753397374507 
452	 0.558561500333853 
453	 0.558405315998321 
454	 0.558092915267936 
455	 0.557656197990118 
456	 0.557387308305067 
457	 0.557089090404229 
458	 0.556740506371262 
459	 0.556389451184659 
460	 0.556175546325929 
461	 0.555955979466079 
462	 0.555652358458127 
463	 0.555267450317516 
464	 0.555126197900184 
465	 0.555037459389095 
466	 0.554844967773873 
467	 0.554529615950466 
468	 0.554304118469199 
469	 0.554032954062419 
470	 0.553587535934681 
471	 0.553259995377647 
472	 0.552941001383708 
473	 0.552593827551364 
474	 0.552243672177692 
475	 0.55196330613486 
476	 0.551617139112001 
477	 0.551163596949707 
478	 0.550789241183209 
479	 0.550402062431185 
480	 0.550050216725301 
481	 0.549769033276345 
482	 0.549289422424774 
483	 0.54894135823833 
484	 0.548794433898462 
485	 0.548636003768945 
486	 0.548551190781128 
487	 0.548254583012001 
488	 0.54758964291267 
489	 0.546840937731588 
490	 0.546321222726778 
491	 0.546072152332954 
492	 0.545950030142892 
493	 0.545691290398464 
494	 0.545262890722189 
495	 0.54480787869385 
496	 0.544645213877729 
497	 0.544376464733527 
498	 0.544102053039661 
499	 0.543952672227715 
500	 0.543759292906896 
501	 0.543410797109338 
502	 0.542988937207125 
503	 0.542673160242593 
504	 0.542289960556236 
505	 0.541827729273169 
506	 0.541374638181794 
507	 0.541149775239661 
508	 0.540950303189165 
509	 0.540670253960421 
510	 0.540268628557896 
511	 0.539814706584639 
512	 0.539544084303901 
513	 0.539426354934773 
514	 0.539203614771887 
515	 0.538912765841963 
516	 0.538698840244729 
517	 0.538595953094559 
518	 0.538352846158449 
519	 0.53774685675023 
520	 0.537100166198346 
521	 0.536834689945321 
522	 0.536515026846521 
523	 0.53625436223655 
524	 0.53604480214964 
525	 0.535713916510094 
526	 0.535585947060449 
527	 0.535455954817837 
528	 0.53509087389754 
529	 0.534530313821871 
530	 0.534089917913062 
531	 0.533828516010377 
532	 0.533638699181138 
533	 0.533456743894708 
534	 0.533090643728468 
535	 0.53255802720083 
536	 0.532224161194469 
537	 0.531900297226024 
538	 0.531565204303708 
539	 0.531250720975497 
540	 0.531035121870535 
541	 0.5306630864262 
542	 0.53009717457092 
543	 0.529509678399264 
544	 0.529079702099761 
545	 0.52871389286814 
546	 0.52834853653876 
547	 0.528129781100507 
548	 0.527859383870441 
549	 0.527514646474897 
550	 0.527153152696472 
551	 0.52684014326276 
552	 0.526369906790565 
553	 0.52575311572552 
554	 0.525276903063502 
555	 0.524748904332821 
556	 0.524257424665556 
557	 0.523858920980006 
558	 0.52329012152077 
559	 0.522675520553757 
560	 0.52206725743643 
561	 0.521458818481212 
562	 0.520808636631447 
563	 0.520145225027548 
564	 0.519530480033246 
565	 0.519090635078092 
566	 0.518516380443182 
567	 0.517926687981753 
568	 0.517582608717493 
569	 0.517689726829255 
570	 0.517723908990094 
571	 0.51737806133939 
572	 0.516616152048947 
573	 0.515742702987928 
574	 0.514932070144208 
575	 0.514155237808418 
576	 0.512975861219469 
577	 0.511683268915554 
578	 0.51041891822971 
579	 0.509307477730374 
580	 0.508764225701598 
581	 0.508749293887628 
582	 0.50901097500212 
583	 0.509105305494285 
584	 0.509211974802366 
585	 0.509195089588263 
586	 0.508909732851102 
587	 0.508406152457426 
588	 0.508076842478828 
589	 0.50785615250299 
590	 0.507345495720298 
591	 0.506612417796273 
592	 0.505755138045719 
593	 0.50482135812916 
594	 0.503753606945774 
595	 0.503043749510582 
596	 0.502598663451775 
597	 0.502134729751897 
598	 0.50164083580405 
599	 0.501113168623305 
600	 0.500552558461882 
601	 0.499966125373021 
602	 0.499429548775184 
603	 0.498818481884054 
604	 0.498097687256888 
605	 0.497569637426595 
606	 0.496997694052696 
607	 0.496392224542797 
608	 0.49586385448529 
609	 0.495287247164597 
610	 0.494704860470797 
611	 0.49415019648423 
612	 0.493616322879857 
613	 0.493166857752243 
614	 0.492676062589665 
615	 0.492061048758387 
616	 0.491594802389271 
617	 0.49104799930746 
618	 0.490388056302277 
619	 0.489725530131838 
620	 0.489130688031234 
621	 0.488610778831324 
622	 0.488104483038249 
623	 0.487435104770695 
624	 0.486789656825295 
625	 0.486188259615522 
626	 0.485580897838873 
627	 0.484868706398431 
628	 0.484241787755156 
629	 0.483738924206419 
630	 0.483247312234899 
631	 0.482796106618632 
632	 0.482351317432432 
633	 0.481890753488381 
634	 0.481458526386708 
635	 0.480884970954674 
636	 0.480291435310101 
637	 0.479886900997365 
638	 0.479435732581912 
639	 0.479032064296691 
640	 0.478655295306287 
641	 0.478121104948289 
642	 0.477552449633738 
643	 0.476979047972226 
644	 0.476394280493925 
645	 0.475749511930902 
646	 0.475250243288995 
647	 0.474795743668679 
648	 0.474141976530746 
649	 0.473685502299545 
650	 0.473167840910715 
651	 0.472491388695532 
652	 0.471906360877071 
653	 0.471416408027004 
654	 0.470989483045448 
655	 0.470579960923531 
656	 0.470262217353782 
657	 0.469673829588943 
658	 0.468962025357056 
659	 0.468513418128537 
660	 0.468019779866891 
661	 0.467391312680411 
662	 0.466717239528965 
663	 0.466353007964668 
664	 0.465833345934692 
665	 0.465153399817676 
666	 0.464486348290554 
667	 0.464026209866414 
668	 0.46345815115453 
669	 0.462752183196418 
670	 0.462146800741196 
671	 0.461636941216036 
672	 0.461097788037168 
673	 0.46048551280252 
674	 0.459995223072904 
675	 0.459408822775565 
676	 0.458760994181323 
677	 0.458183116389614 
678	 0.457725294296842 
679	 0.457174480995685 
680	 0.456535207226927 
681	 0.456043986605186 
682	 0.455484687465244 
683	 0.454902894148162 
684	 0.454347862906142 
685	 0.453757883069891 
686	 0.453025831246655 
687	 0.45219387809892 
688	 0.451480778913848 
689	 0.45098660785064 
690	 0.450476062716293 
691	 0.449924951946304 
692	 0.449593717580419 
693	 0.449119559698474 
694	 0.448558685708211 
695	 0.448058965552701 
696	 0.447771144159366 
697	 0.447370236466337 
698	 0.446866438924336 
699	 0.446400778356275 
700	 0.445788616342633 
701	 0.445308245418165 
702	 0.444983395646758 
703	 0.444500478057594 
704	 0.443910107611794 
705	 0.44338019875134 
706	 0.442992955839687 
707	 0.442547636204238 
708	 0.442065123542315 
709	 0.441584316722954 
710	 0.441139385193301 
711	 0.440612004038325 
712	 0.440112131787972 
713	 0.439659655061721 
714	 0.439149467104004 
715	 0.438506422728964 
716	 0.437779920888842 
717	 0.437033301853168 
718	 0.43634795669365 
719	 0.435699884122214 
720	 0.435159930288559 
721	 0.434779946511716 
722	 0.43445174437628 
723	 0.433979188921336 
724	 0.433306784524766 
725	 0.432606839109478 
726	 0.432129484906679 
727	 0.431736850326714 
728	 0.431285891496087 
729	 0.430891033671907 
730	 0.430336635494707 
731	 0.429841959534121 
732	 0.429650141767178 
733	 0.429204156513091 
734	 0.428960120784922 
735	 0.428826823402366 
736	 0.42823903218739 
737	 0.42782133615116 
738	 0.427425353319672 
739	 0.426940479635026 
740	 0.426654528907786 
741	 0.426193967259346 
742	 0.42563196748859 
743	 0.42516814721794 
744	 0.424799553181811 
745	 0.424390517022074 
746	 0.423895574914928 
747	 0.423351114870617 
748	 0.422786412028568 
749	 0.422222682651133 
750	 0.421722650028421 
751	 0.421430223237042 
752	 0.420897667437913 
753	 0.420321182806055 
754	 0.419934390042528 
755	 0.419415245019068 
756	 0.418841901641137 
757	 0.418261830790158 
758	 0.417725109170935 
759	 0.417654130936018 
760	 0.417173435367423 
761	 0.415687054334953 
762	 0.414642240223126 
763	 0.414523991669362 
764	 0.414519644458901 
765	 0.414163510518292 
766	 0.413816884774988 
767	 0.413675292824215 
768	 0.413606313812496 
769	 0.413420678890953 
770	 0.413120755149693 
771	 0.412823302219099 
772	 0.412477448723716 
773	 0.41191950502356 
774	 0.411460116389127 
775	 0.41113855437868 
776	 0.410873895110989 
777	 0.410463525863963 
778	 0.41001138737118 
779	 0.409553923735934 
780	 0.409108807698749 
781	 0.40866815363801 
782	 0.408262635919217 
783	 0.407922210486603 
784	 0.407632280201175 
785	 0.407111717288296 
786	 0.406603889277806 
787	 0.406201934229301 
788	 0.405787358173321 
789	 0.405271492313987 
790	 0.40480084826961 
791	 0.404473640297872 
792	 0.404203375056301 
793	 0.403779897258995 
794	 0.403250849946088 
795	 0.402761977495037 
796	 0.40243828897375 
797	 0.402004453105597 
798	 0.401502596050155 
799	 0.401145788812632 
800	 0.400840730934023 
801	 0.400498493004867 
802	 0.400157338584916 
803	 0.399975786847462 
804	 0.399647204954365 
805	 0.3992289860866 
806	 0.39884307824591 
807	 0.398589621198218 
808	 0.398212591504907 
809	 0.397832529631929 
810	 0.397581508051611 
811	 0.39712840378391 
812	 0.396654311887716 
813	 0.396207457556878 
814	 0.395769128578131 
815	 0.395457528792706 
816	 0.395154972323329 
817	 0.394822021842692 
818	 0.394519816145328 
819	 0.394140333679002 
820	 0.39376906742601 
821	 0.393553943830228 
822	 0.393708408886783 
823	 0.39342933893285 
824	 0.392807093915352 
825	 0.39225534496871 
826	 0.392196613232882 
827	 0.392271818882601 
828	 0.392213595428747 
829	 0.391858268043793 
830	 0.391356145388239 
831	 0.391032281658156 
832	 0.390856841687373 
833	 0.390548067992681 
834	 0.390170335933708 
835	 0.389894586545279 
836	 0.389684829632951 
837	 0.389268824118345 
838	 0.388950951092378 
839	 0.38871007781301 
840	 0.388462838157929 
841	 0.388128554194927 
842	 0.387911917036043 
843	 0.387766307036216 
844	 0.387547727953362 
845	 0.387046388524814 
846	 0.386682556928136 
847	 0.386532241827626 
848	 0.386483940568166 
849	 0.386440477923819 
850	 0.386301142702963 
851	 0.386051405265782 
852	 0.385779402707518 
853	 0.385790426924981 
854	 0.385847604335553 
855	 0.385628924962085 
856	 0.384892376448994 
857	 0.384461080379964 
858	 0.38437537864245 
859	 0.384369959007039 
860	 0.383968550627522 
861	 0.38374961449961 
862	 0.383454000935927 
863	 0.382943070072174 
864	 0.382929046382538 
865	 0.38286666802544 
866	 0.38273129876876 
867	 0.382556785287707 
868	 0.381873566251798 
869	 0.381379365264843 
870	 0.3810675524577 
871	 0.38067476550844 
872	 0.380628753726128 
873	 0.380559438962413 
874	 0.380283590648333 
875	 0.379841837839937 
876	 0.379591737065997 
877	 0.379263559472631 
878	 0.378782259622578 
879	 0.378351668108191 
880	 0.378319427224169 
881	 0.378178163375052 
882	 0.377714210855269 
883	 0.3772977634369 
884	 0.377201209113444 
885	 0.37717298217226 
886	 0.376987219290941 
887	 0.376694412502644 
888	 0.376271953240577 
889	 0.376009152281781 
890	 0.375969149306802 
891	 0.375446340174397 
892	 0.375346925073265 
893	 0.375322394158665 
894	 0.374929164609315 
895	 0.374958070509744 
896	 0.374756990035974 
897	 0.37454354535176 
898	 0.374674089175217 
899	 0.374263991197837 
900	 0.374108031480809 
901	 0.373988673634819 
902	 0.373295214444635 
903	 0.372443053352852 
904	 0.371900177932699 
905	 0.371834014477839 
906	 0.372109069591506 
907	 0.372147965655173 
908	 0.372365541090847 
909	 0.372422904580938 
910	 0.371531183314395 
911	 0.370996488020087 
912	 0.37103869536532 
913	 0.37121534862467 
914	 0.370750895065816 
915	 0.370715593655449 
916	 0.37037640328524 
917	 0.369720948083778 
918	 0.369670543011644 
919	 0.369266908861247 
920	 0.368999055913326 
921	 0.369053240559615 
922	 0.368962759572445 
923	 0.368604654484442 
924	 0.368220114618864 
925	 0.367874560361174 
926	 0.367274134950022 
927	 0.367184140726635 
928	 0.367300236246714 
929	 0.367315012380801 
930	 0.367426620817328 
931	 0.368663287020957 
932	 0.369731037940924 
933	 0.369486259309197 
934	 0.368886735972543 
935	 0.368482894956116 
936	 0.367898161799259 
937	 0.366727908756494 
938	 0.365111631358963 
939	 0.364685421983207 
940	 0.364011094791433 
941	 0.362768372745394 
942	 0.363943908110624 
943	 0.364993122107383 
944	 0.365293042649011 
945	 0.36503279944833 
946	 0.365074514758784 
947	 0.363870712143988 
948	 0.362527693357392 
949	 0.36197574350121 
950	 0.361250117729031 
951	 0.361394815995402 
952	 0.361914345847362 
953	 0.362160285482416 
954	 0.362050203375656 
955	 0.361662014696575 
956	 0.361532859372093 
957	 0.361688729941796 
958	 0.36102049503017 
959	 0.360926487994951 
960	 0.360948880388875 
961	 0.360845421705334 
962	 0.361537100122531 
963	 0.360649008419454 
964	 0.359925706741527 
965	 0.360281768894421 
966	 0.359765433076979 
967	 0.359308347850692 
968	 0.359042123981763 
969	 0.358631844481047 
970	 0.357417297705164 
971	 0.358270236618188 
972	 0.358872770449948 
973	 0.358080162646439 
974	 0.357920351972453 
975	 0.35861613761484 
976	 0.359201062577122 
977	 0.359211631193273 
978	 0.359117205470406 
979	 0.35762116370681 
980	 0.356686989058918 
981	 0.356847246135881 
982	 0.356668787607818 
983	 0.357061588156153 
984	 0.357197074382074 
985	 0.356639504033343 
986	 0.355764142699613 
987	 0.356406826501961 
988	 0.356815783066281 
989	 0.356415989379012 
990	 0.355998720532576 
991	 0.356600947873266 
992	 0.355924565629919 
993	 0.354827283167157 
994	 0.355483672087433 
995	 0.355255769707782 
996	 0.354384618130826 
997	 0.354101003904458 
998	 0.355237698011335 
999	 0.355480867131676 
1000	 0.354834799921606 
1001	 0.345524830804446 
1002	 0.345165645938529 
1003	 0.344826371950721 
1004	 0.344351504824114 
1005	 0.344096816099653 
1006	 0.343968727797717 
1007	 0.343785565976611 
1008	 0.343705972701603 
1009	 0.343601920569647 
1010	 0.343470123183435 
1011	 0.343344883574165 
1012	 0.343230429200358 
1013	 0.343047895342799 
1014	 0.342675133658284 
1015	 0.342225247234667 
1016	 0.342068555964579 
1017	 0.342006039440861 
1018	 0.341832692042311 
1019	 0.341820823279206 
1020	 0.341648147330143 
1021	 0.341268438757378 
1022	 0.340912655893613 
1023	 0.340504924099719 
1024	 0.340208290874771 
1025	 0.339910395906831 
1026	 0.339657601174345 
1027	 0.339471646975672 
1028	 0.339287172038188 
1029	 0.339026822208658 
1030	 0.338655057900799 
1031	 0.338233346180374 
1032	 0.337880221072454 
1033	 0.337566364248693 
1034	 0.337229590469995 
1035	 0.337008844685914 
1036	 0.336873544920039 
1037	 0.33674956611856 
1038	 0.33673782180589 
1039	 0.336660271919415 
1040	 0.336397338796035 
1041	 0.336129915329121 
1042	 0.335749582488089 
1043	 0.335315917802042 
1044	 0.335002932443412 
1045	 0.334747311326133 
1046	 0.334586027888888 
1047	 0.334355664044751 
1048	 0.33400247900187 
1049	 0.333804121709058 
1050	 0.333578730470936 
1051	 0.333283803818881 
1052	 0.333016252862363 
1053	 0.33286020044621 
1054	 0.332586853862285 
1055	 0.332312843611534 
1056	 0.332113951415445 
1057	 0.332022215177503 
1058	 0.331920349001199 
1059	 0.331692615777588 
1060	 0.331529830659898 
1061	 0.331312565954736 
1062	 0.331082571869529 
1063	 0.331026641150395 
1064	 0.330893679452413 
1065	 0.330753173819412 
1066	 0.330631065140536 
1067	 0.330500079898323 
1068	 0.330272980610806 
1069	 0.330120422882155 
1070	 0.329942260631117 
1071	 0.329826043872923 
1072	 0.329805765118916 
1073	 0.329665214518705 
1074	 0.329515135122641 
1075	 0.329396572185789 
1076	 0.329139584677236 
1077	 0.328956199055165 
1078	 0.328887560854558 
1079	 0.328737495347066 
1080	 0.32862110297752 
1081	 0.328504407517882 
1082	 0.328410302383354 
1083	 0.328234704199552 
1084	 0.328042217895749 
1085	 0.327852405656244 
1086	 0.327620902452199 
1087	 0.327370032153871 
1088	 0.327184063836138 
1089	 0.326978258675514 
1090	 0.326745683279128 
1091	 0.326518701394414 
1092	 0.326346642295444 
1093	 0.326271005995856 
1094	 0.326085393457172 
1095	 0.32589096177973 
1096	 0.325748020474053 
1097	 0.325592060815673 
1098	 0.325375991664769 
1099	 0.325181292882704 
1100	 0.32501606657247 
1101	 0.324731531761775 
1102	 0.324455862889146 
1103	 0.324283076763348 
1104	 0.324072704357018 
1105	 0.323752541294328 
1106	 0.323434036255468 
1107	 0.323236925200573 
1108	 0.323059991218386 
1109	 0.322875331822277 
1110	 0.322770690215674 
1111	 0.322606750591746 
1112	 0.322288520061947 
1113	 0.322039050649828 
1114	 0.321843373339989 
1115	 0.321635032692257 
1116	 0.321373650455589 
1117	 0.321219521258725 
1118	 0.321100926538567 
1119	 0.320832160625628 
1120	 0.320531687947958 
1121	 0.320293622586339 
1122	 0.320064998390962 
1123	 0.319940556733651 
1124	 0.319851471568209 
1125	 0.319772612873866 
1126	 0.319647434278551 
1127	 0.319433512235611 
1128	 0.319375930235942 
1129	 0.31938441505393 
1130	 0.319392452891213 
1131	 0.319590610652282 
1132	 0.319571823483183 
1133	 0.319445215377845 
1134	 0.319284607590798 
1135	 0.319174825297058 
1136	 0.319120157477069 
1137	 0.319071796611565 
1138	 0.319063838747497 
1139	 0.318966554285565 
1140	 0.318835389277526 
1141	 0.318851065566956 
1142	 0.318891823525348 
1143	 0.318927606510857 
1144	 0.319021114866395 
1145	 0.319035060556091 
