Wavelength	ref00083.asd
350	 5.83617465089875E-02 
351	 5.94941271738567E-02 
352	 6.00788683305516E-02 
353	 0.060322566030603 
354	 6.11855192784957E-02 
355	 6.20099049398861E-02 
356	 6.24073167153449E-02 
357	 6.30658593091559E-02 
358	 6.48041767958231E-02 
359	 6.65591180960339E-02 
360	 6.72373091873674E-02 
361	 6.83426685897769E-02 
362	 6.88921491351899E-02 
363	 6.91229900750883E-02 
364	 0.069952652262093 
365	 0.070151134950221 
366	 7.08560713004917E-02 
367	 7.20244422446305E-02 
368	 7.16301799587768E-02 
369	 7.16044841715946E-02 
370	 7.22602079941333E-02 
371	 7.32725531644471E-02 
372	 0.073748547600584 
373	 7.38588077460587E-02 
374	 7.40765714683691E-02 
375	 7.48638676224056E-02 
376	 7.53999421209467E-02 
377	 7.59163325588242E-02 
378	 7.66147509461811E-02 
379	 7.75300956147687E-02 
380	 7.84383522661852E-02 
381	 7.92820147052969E-02 
382	 8.02384864759985E-02 
383	 8.20581276562681E-02 
384	 8.36384722901824E-02 
385	 8.49885121352635E-02 
386	 8.65953467924618E-02 
387	 8.84935250326517E-02 
388	 0.090477379707229 
389	 9.23052678716379E-02 
390	 9.37822719220327E-02 
391	 9.59511960136398E-02 
392	 9.81126134822947E-02 
393	 9.99631828617398E-02 
394	 0.102842607150855 
395	 0.105759709201876 
396	 0.108469973365016 
397	 0.11113366718991 
398	 0.114462799560454 
399	 0.11788779437772 
400	 0.121361021500238 
401	 0.125325596190404 
402	 0.12978116456821 
403	 0.135115347037526 
404	 0.141518130737914 
405	 0.148768435972509 
406	 0.157114562057645 
407	 0.16664295889678 
408	 0.177298010098666 
409	 0.188856841200387 
410	 0.201288074293553 
411	 0.214252788120987 
412	 0.22721279526669 
413	 0.241115171182597 
414	 0.255202277412479 
415	 0.268895480403695 
416	 0.282541279646639 
417	 0.296391426017697 
418	 0.309724402180224 
419	 0.321786764638447 
420	 0.333533860299483 
421	 0.344419405862215 
422	 0.35422031909547 
423	 0.36312653843309 
424	 0.371587185747917 
425	 0.379347410899766 
426	 0.386215289556096 
427	 0.392354956763312 
428	 0.398083895688388 
429	 0.403266222922896 
430	 0.407611463205441 
431	 0.41100958665535 
432	 0.413845113181388 
433	 0.416020551120675 
434	 0.417075108211187 
435	 0.417752728545679 
436	 0.418074701011627 
437	 0.41803405031756 
438	 0.417826038352459 
439	 0.417493838727325 
440	 0.416914771430862 
441	 0.415911526693647 
442	 0.414396759303877 
443	 0.412587733541186 
444	 0.410535452705257 
445	 0.408123523763334 
446	 0.405690584580466 
447	 0.403223083048652 
448	 0.400728755341889 
449	 0.398472586109323 
450	 0.396197111269557 
451	 0.393893814988316 
452	 0.391688232202313 
453	 0.389809469467614 
454	 0.388130877678705 
455	 0.38656877912759 
456	 0.385124282517467 
457	 0.383715762083979 
458	 0.382370818930125 
459	 0.381127392456847 
460	 0.379958394012264 
461	 0.37902374257531 
462	 0.378279084318956 
463	 0.37757298299458 
464	 0.376902297730784 
465	 0.376317122952452 
466	 0.375788366289871 
467	 0.375160557087934 
468	 0.374573571283362 
469	 0.373904102723314 
470	 0.373067219607094 
471	 0.372410445007616 
472	 0.371582413946481 
473	 0.370636848574271 
474	 0.369882146191551 
475	 0.368955289781255 
476	 0.367975723973727 
477	 0.367051752345771 
478	 0.366148175150487 
479	 0.365247454137102 
480	 0.364398575344824 
481	 0.363663292329541 
482	 0.363047505726237 
483	 0.362478134247218 
484	 0.361956030898916 
485	 0.361548215650445 
486	 0.361018420043338 
487	 0.360483853483062 
488	 0.359927649093654 
489	 0.358794780743842 
490	 0.357440699766889 
491	 0.3561887880357 
492	 0.355233707742634 
493	 0.354107876563965 
494	 0.353044436039542 
495	 0.352086019954126 
496	 0.350979161628142 
497	 0.349958073328277 
498	 0.348892066814933 
499	 0.347687858803041 
500	 0.346664988799004 
501	 0.345672070841583 
502	 0.344542931065782 
503	 0.343158866931605 
504	 0.341922998047814 
505	 0.340651311354633 
506	 0.339217418521024 
507	 0.337700687171688 
508	 0.336277375070899 
509	 0.334880942467018 
510	 0.333399365789724 
511	 0.33190921298997 
512	 0.330370130725594 
513	 0.328868803788968 
514	 0.327575383086778 
515	 0.326187464239714 
516	 0.324633254898952 
517	 0.322986241389374 
518	 0.321550232011991 
519	 0.319934554721235 
520	 0.318177996967365 
521	 0.3164800631236 
522	 0.314872947134136 
523	 0.313369830583998 
524	 0.311916237493645 
525	 0.310408679294833 
526	 0.308961153416632 
527	 0.307571208585487 
528	 0.306194309729327 
529	 0.304766294654897 
530	 0.303283914046045 
531	 0.301811985585875 
532	 0.300433095864252 
533	 0.299076301979462 
534	 0.297741806874554 
535	 0.296397020038468 
536	 0.294920477716656 
537	 0.293652283428179 
538	 0.292452456156781 
539	 0.291112443596145 
540	 0.289846554408547 
541	 0.288600873753765 
542	 0.287260018377805 
543	 0.285699899493835 
544	 0.284267409371673 
545	 0.282973058287628 
546	 0.2816995031479 
547	 0.28017646570456 
548	 0.278734287978963 
549	 0.277305160905584 
550	 0.275717105752072 
551	 0.274253188522568 
552	 0.272836579039568 
553	 0.271426771962467 
554	 0.270063228950344 
555	 0.268697229302227 
556	 0.267379176325518 
557	 0.26614791437303 
558	 0.2649300632483 
559	 0.263752942568449 
560	 0.262622481904219 
561	 0.261518380932793 
562	 0.260381899657635 
563	 0.259317502723402 
564	 0.258367188885904 
565	 0.257438049886998 
566	 0.256553330704894 
567	 0.255743664231352 
568	 0.255022108815988 
569	 0.254314958681658 
570	 0.25355905112345 
571	 0.25282449416974 
572	 0.25228435775191 
573	 0.251710574460347 
574	 0.251203400213648 
575	 0.250819549467084 
576	 0.250345141751773 
577	 0.250045919861462 
578	 0.249827335607275 
579	 0.249465275900192 
580	 0.249194867653691 
581	 0.248849398962704 
582	 0.248378260428173 
583	 0.247922762195226 
584	 0.247602178098439 
585	 0.247349563526788 
586	 0.247091645671773 
587	 0.246934959288481 
588	 0.246950419947527 
589	 0.247029130775073 
590	 0.246946567109555 
591	 0.246858809984236 
592	 0.246743262442563 
593	 0.246575840499276 
594	 0.246375958925214 
595	 0.246134960823421 
596	 0.245892646475531 
597	 0.245683401326793 
598	 0.245425399407961 
599	 0.245253911317044 
600	 0.245158274776811 
601	 0.244984408869455 
602	 0.244945510519182 
603	 0.244926853929872 
604	 0.244834703925886 
605	 0.244799686710817 
606	 0.244809967101564 
607	 0.24490411391551 
608	 0.245113597508261 
609	 0.245246351670298 
610	 0.245484258253423 
611	 0.245843765603116 
612	 0.246066336303607 
613	 0.246379898967508 
614	 0.246725465902196 
615	 0.247014671814059 
616	 0.247343168404374 
617	 0.247737796114139 
618	 0.24816433673867 
619	 0.248562743936123 
620	 0.249021308328373 
621	 0.24950815476499 
622	 0.25004266184643 
623	 0.250782300907637 
624	 0.251507224027791 
625	 0.252275371860503 
626	 0.253194708318116 
627	 0.25409408171875 
628	 0.25510715669051 
629	 0.256216293978453 
630	 0.257247802470237 
631	 0.258424030547735 
632	 0.259725552110256 
633	 0.261096805052711 
634	 0.262526445199582 
635	 0.264053217634885 
636	 0.265706810524163 
637	 0.26747441745042 
638	 0.269165928896769 
639	 0.270955329013626 
640	 0.272958361579661 
641	 0.275123322406223 
642	 0.277348342439026 
643	 0.279575540203908 
644	 0.281866838483879 
645	 0.284537519560485 
646	 0.287295856546266 
647	 0.290066260058101 
648	 0.292902689848248 
649	 0.295701311721993 
650	 0.29853166016782 
651	 0.30141991185963 
652	 0.304432662903797 
653	 0.307496550170554 
654	 0.31055761752197 
655	 0.313708341874948 
656	 0.317226203448577 
657	 0.320906030998024 
658	 0.324267610272409 
659	 0.327398126426779 
660	 0.330624623383767 
661	 0.334042174627158 
662	 0.337544151143843 
663	 0.340956587822453 
664	 0.344399841112402 
665	 0.34779215132902 
666	 0.351078342896979 
667	 0.354528982849104 
668	 0.357921295260692 
669	 0.361198521075996 
670	 0.364519981445187 
671	 0.367699479158789 
672	 0.370818779470856 
673	 0.373921959582006 
674	 0.376967314599419 
675	 0.379958018112663 
676	 0.382922411133055 
677	 0.385868255809077 
678	 0.388717724660327 
679	 0.39148036576031 
680	 0.394152522265425 
681	 0.396709591397808 
682	 0.399275397768036 
683	 0.401832574230623 
684	 0.404308772139411 
685	 0.406526415094965 
686	 0.408822805940267 
687	 0.411317689092464 
688	 0.413722344847087 
689	 0.415813180249691 
690	 0.417817607186668 
691	 0.419962726121123 
692	 0.422226423422721 
693	 0.42473019574751 
694	 0.427073902389203 
695	 0.428895781866155 
696	 0.430292283118394 
697	 0.431589085243625 
698	 0.433066443143925 
699	 0.434872867970496 
700	 0.436638482521065 
701	 0.438193732970108 
702	 0.439535065871088 
703	 0.440828422799153 
704	 0.441976708666226 
705	 0.443029580807987 
706	 0.444100190674817 
707	 0.445374636544109 
708	 0.446628417244011 
709	 0.447771834486952 
710	 0.448809835656569 
711	 0.449962025421972 
712	 0.451019265895178 
713	 0.452004258737393 
714	 0.453242323102658 
715	 0.454727085151342 
716	 0.456902979155739 
717	 0.459942976573254 
718	 0.462819201725236 
719	 0.464572430425447 
720	 0.46471980868014 
721	 0.463739490207044 
722	 0.463451368839144 
723	 0.464489134810271 
724	 0.466400415209403 
725	 0.467486397406467 
726	 0.468070781784848 
727	 0.468612761294237 
728	 0.469328722993555 
729	 0.469660605795553 
730	 0.470001254048927 
731	 0.470165463794246 
732	 0.469873328431713 
733	 0.46944041974668 
734	 0.469340506204995 
735	 0.469630096468541 
736	 0.469995730966988 
737	 0.470339029795502 
738	 0.47060256674997 
739	 0.470823571957049 
740	 0.471193605643454 
741	 0.471442292001492 
742	 0.47161338146612 
743	 0.471866241043979 
744	 0.472360911405344 
745	 0.472798441927617 
746	 0.473099488225975 
747	 0.473387071607174 
748	 0.473911772998321 
749	 0.474288465970862 
750	 0.474452020510756 
751	 0.475021147693935 
752	 0.47532306756915 
753	 0.475533605258781 
754	 0.475914747707533 
755	 0.476148574008271 
756	 0.476322256891542 
757	 0.476513686896866 
758	 0.476800918513861 
759	 0.477260408534615 
760	 0.478035397827197 
761	 0.479041452788768 
762	 0.479420073177647 
763	 0.479642406541471 
764	 0.479705803009668 
765	 0.47953846549108 
766	 0.479190380478948 
767	 0.479067090505736 
768	 0.479110827261953 
769	 0.479154171958396 
770	 0.479141647470064 
771	 0.479310294472543 
772	 0.479626569513579 
773	 0.47982357422243 
774	 0.479867955941959 
775	 0.479945433427139 
776	 0.48011365499212 
777	 0.480149297200547 
778	 0.480294252116487 
779	 0.480481842341558 
780	 0.480588381252997 
781	 0.480613443518394 
782	 0.480641714634739 
783	 0.480751898095932 
784	 0.480996926529164 
785	 0.481309698794089 
786	 0.481692093500276 
787	 0.482074691351739 
788	 0.482321192380378 
789	 0.482641412038534 
790	 0.482839429784652 
791	 0.482810820982314 
792	 0.482791246427078 
793	 0.482756574014085 
794	 0.482804744177123 
795	 0.483014808280906 
796	 0.483304270398016 
797	 0.483417955906414 
798	 0.483447478830805 
799	 0.483648702017413 
800	 0.483790720179452 
801	 0.483902663326709 
802	 0.484007220691912 
803	 0.484090565459036 
804	 0.484050962313677 
805	 0.484007430369992 
806	 0.484051483246309 
807	 0.48412287820258 
808	 0.484274854168977 
809	 0.484517593945498 
810	 0.484928309114042 
811	 0.485908375273448 
812	 0.48691586896994 
813	 0.488011789423253 
814	 0.489490112500555 
815	 0.490518904612862 
816	 0.49115865157842 
817	 0.49136430599919 
818	 0.490958814082183 
819	 0.490431902166424 
820	 0.489959271947383 
821	 0.489724140643244 
822	 0.490046098504151 
823	 0.490335261374444 
824	 0.490325351626857 
825	 0.489964490102856 
826	 0.489389597558387 
827	 0.489314656357114 
828	 0.489637015255992 
829	 0.489877358779756 
830	 0.489773248704375 
831	 0.489588878533033 
832	 0.489343366016303 
833	 0.488910123946772 
834	 0.488793271865218 
835	 0.488585547289678 
836	 0.488249974545551 
837	 0.488269043824992 
838	 0.48801066107729 
839	 0.487764726926249 
840	 0.487770474501353 
841	 0.48782557009844 
842	 0.487566565610732 
843	 0.487295056161543 
844	 0.487346998369155 
845	 0.487471674075092 
846	 0.487463455530833 
847	 0.487424065348837 
848	 0.487524283471454 
849	 0.487429971899792 
850	 0.48753873018802 
851	 0.487720012039076 
852	 0.48753690863209 
853	 0.487723625633335 
854	 0.487839663374921 
855	 0.487745429951396 
856	 0.48776737769733 
857	 0.487719441147512 
858	 0.487650873259109 
859	 0.487615425058265 
860	 0.487618941651229 
861	 0.487635778423891 
862	 0.487659647790038 
863	 0.487675995629491 
864	 0.487627399968783 
865	 0.487640898178787 
866	 0.487840991267277 
867	 0.488272158845183 
868	 0.488750531260761 
869	 0.489038823884568 
870	 0.489174914611507 
871	 0.489329030958019 
872	 0.489518421629111 
873	 0.489802163151628 
874	 0.490123539730758 
875	 0.490350722473147 
876	 0.49043772987925 
877	 0.49066107779414 
878	 0.490874966864502 
879	 0.490600019902187 
880	 0.490819126830778 
881	 0.491136995799994 
882	 0.491291236462056 
883	 0.491484171653078 
884	 0.491590780333439 
885	 0.491627740029998 
886	 0.491684759463839 
887	 0.491920095823731 
888	 0.492267690734101 
889	 0.492569188013089 
890	 0.492791670267897 
891	 0.493235962720964 
892	 0.494238836159044 
893	 0.495178342559859 
894	 0.495615922939733 
895	 0.497030397923021 
896	 0.497998864958608 
897	 0.498733321934381 
898	 0.499861853204758 
899	 0.50031368916263 
900	 0.500519574944642 
901	 0.500484617115772 
902	 0.500141799769014 
903	 0.500315570975626 
904	 0.500252681012778 
905	 0.500178099597779 
906	 0.500739401005218 
907	 0.500678944251531 
908	 0.501669624289267 
909	 0.503179709312425 
910	 0.503060806906757 
911	 0.503758945451045 
912	 0.504265342861126 
913	 0.504132567980565 
914	 0.503909363643111 
915	 0.504697135297718 
916	 0.50468497501194 
917	 0.503730692907308 
918	 0.503762696131033 
919	 0.503017322203178 
920	 0.502476580578103 
921	 0.502569663445547 
922	 0.502540533172531 
923	 0.502554353355585 
924	 0.503238753037421 
925	 0.504365176858823 
926	 0.504406232870748 
927	 0.506307595940725 
928	 0.5088251807332 
929	 0.510870177352004 
930	 0.513566477069087 
931	 0.516352167512944 
932	 0.519271422973435 
933	 0.522352146940931 
934	 0.525344862135579 
935	 0.526377758459392 
936	 0.526878015421896 
937	 0.527577394884756 
938	 0.526108951081493 
939	 0.524450773111914 
940	 0.524055385842516 
941	 0.524675526220917 
942	 0.523382298703524 
943	 0.523823256420747 
944	 0.524982024276074 
945	 0.525334191975467 
946	 0.524939529859109 
947	 0.525763864874757 
948	 0.526737364333542 
949	 0.526773648048672 
950	 0.526626088139946 
951	 0.525722979393211 
952	 0.525211371893977 
953	 0.525540760530559 
954	 0.524966833032511 
955	 0.523700244090396 
956	 0.523404729410465 
957	 0.524464554389103 
958	 0.524242399868534 
959	 0.521991603920427 
960	 0.520207989052012 
961	 0.520174022876122 
962	 0.519551067906747 
963	 0.519121835207832 
964	 0.518200361622071 
965	 0.516814266782149 
966	 0.516484596122871 
967	 0.515801987491844 
968	 0.514552267329374 
969	 0.51340397613885 
970	 0.51375155469094 
971	 0.512398006835153 
972	 0.511322601875063 
973	 0.511700290821774 
974	 0.512061528453442 
975	 0.512461876739446 
976	 0.512139963716506 
977	 0.5111929860308 
978	 0.510865485269878 
979	 0.51139236632591 
980	 0.510745267566768 
981	 0.508762063322589 
982	 0.507601480384723 
983	 0.507863550304969 
984	 0.508027682704771 
985	 0.507745637655066 
986	 0.507901694158865 
987	 0.50767598208398 
988	 0.506998741131594 
989	 0.506759459648888 
990	 0.50787154773639 
991	 0.507432440038502 
992	 0.506296616094803 
993	 0.506152772623743 
994	 0.507756251477404 
995	 0.506046202928691 
996	 0.504773343362573 
997	 0.505011943836824 
998	 0.505835726583561 
999	 0.505600661317905 
1000	 0.505438608210633 
1001	 0.504837435489742 
1002	 0.504755313075878 
1003	 0.504680420921216 
1004	 0.504560583065546 
1005	 0.504513667869468 
1006	 0.504585517060135 
1007	 0.50454341331285 
1008	 0.504457204136303 
1009	 0.504431925202581 
1010	 0.504398939242817 
1011	 0.50433654529029 
1012	 0.504360763575114 
1013	 0.504303846764532 
1014	 0.504166133665198 
1015	 0.504061427764215 
1016	 0.504082739185148 
1017	 0.504087604697242 
1018	 0.504064443196069 
1019	 0.504111910866594 
1020	 0.50410375911785 
1021	 0.504012851358271 
1022	 0.50395723349963 
1023	 0.503913638681692 
1024	 0.503818829336136 
1025	 0.50389348884458 
1026	 0.503960115488636 
1027	 0.504119208926594 
1028	 0.504280515930023 
1029	 0.504157818884289 
1030	 0.504192491462393 
1031	 0.504249920235437 
1032	 0.504233159335059 
1033	 0.504265093599632 
1034	 0.504349141255467 
1035	 0.504418674596831 
1036	 0.504460787257216 
1037	 0.504571211808108 
1038	 0.504786233727089 
1039	 0.504915942249893 
1040	 0.504989742516771 
1041	 0.505041368243631 
1042	 0.505036568881259 
1043	 0.50507551893213 
1044	 0.505106966620555 
1045	 0.505259034097586 
1046	 0.505481984055989 
1047	 0.5055300748318 
1048	 0.505607252864443 
1049	 0.505739262498182 
1050	 0.50577970190952 
1051	 0.505678323456436 
1052	 0.505759836414933 
1053	 0.506011757784584 
1054	 0.506076263383236 
1055	 0.506263818742767 
1056	 0.506558873033369 
1057	 0.506561161228082 
1058	 0.506674764077174 
1059	 0.506837144038118 
1060	 0.506891393370026 
1061	 0.507054202537214 
1062	 0.507029699532493 
1063	 0.506909361593699 
1064	 0.506876018769818 
1065	 0.506913496196631 
1066	 0.506965159817111 
1067	 0.507147998686425 
1068	 0.507362864204972 
1069	 0.507498821491936 
1070	 0.507659344008012 
1071	 0.507797987643223 
1072	 0.5078059715873 
1073	 0.507868278161228 
1074	 0.507852229450437 
1075	 0.50776615521382 
1076	 0.507887292253624 
1077	 0.508130094859818 
1078	 0.508357851244385 
1079	 0.508526884881564 
1080	 0.508654452076201 
1081	 0.508783806565562 
1082	 0.508815024301899 
1083	 0.508892925617106 
1084	 0.509123486022175 
1085	 0.509422363945099 
1086	 0.509690492602543 
1087	 0.509785895246378 
1088	 0.509930661445706 
1089	 0.510161434989437 
1090	 0.510332484624027 
1091	 0.510670186389272 
1092	 0.511036583293691 
1093	 0.511303266737416 
1094	 0.511667531525224 
1095	 0.512155881380565 
1096	 0.512600025250547 
1097	 0.513055223403904 
1098	 0.513505533903911 
1099	 0.513998437117766 
1100	 0.514391915878048 
1101	 0.514641882488711 
1102	 0.515052975135342 
1103	 0.51542679589938 
1104	 0.515709800239192 
1105	 0.516307711222708 
1106	 0.51699479998985 
1107	 0.51754779615012 
1108	 0.518350890169204 
1109	 0.519367906218962 
1110	 0.520284614128618 
1111	 0.521255723345863 
1112	 0.522435955775285 
1113	 0.523560528171545 
1114	 0.524689683200159 
1115	 0.525920943239962 
1116	 0.527309406476093 
1117	 0.528693348299147 
1118	 0.530022264625299 
1119	 0.530905521776859 
1120	 0.53166184550481 
1121	 0.532303473702601 
1122	 0.532423908758847 
1123	 0.532246494477766 
1124	 0.531975761357727 
1125	 0.531350741606795 
1126	 0.530598863086471 
1127	 0.529698745605015 
1128	 0.528854127268089 
1129	 0.527558789670227 
1130	 0.526947154729952 
1131	 0.5265936131027 
1132	 0.526515002491831 
1133	 0.526808774913012 
1134	 0.527143532344774 
1135	 0.527459389499014 
1136	 0.5278598520576 
1137	 0.52848604055465 
1138	 0.529133098047686 
1139	 0.529873555416063 
1140	 0.53060581038409 
1141	 0.531163308698497 
1142	 0.531821482513582 
1143	 0.532416387408622 
1144	 0.53327516146299 
1145	 0.533518787666095 
1146	 0.533565966894851 
1147	 0.533273664573025 
1148	 0.532638063957252 
1149	 0.531803784195672 
1150	 0.530967583574908 
1151	 0.529590230085097 
1152	 0.527863938678686 
1153	 0.525944813232188 
1154	 0.523896245753413 
1155	 0.521866838873964 
1156	 0.519993428583037 
1157	 0.518103327730009 
1158	 0.516242530099289 
1159	 0.514371009335147 
1160	 0.512709339940127 
1161	 0.511157771797494 
1162	 0.509685882865514 
1163	 0.508244440658053 
1164	 0.507005911933332 
1165	 0.505825621436854 
1166	 0.504747711702605 
1167	 0.503734305675379 
1168	 0.502891766228008 
1169	 0.502126784316902 
1170	 0.501475741163726 
1171	 0.501014058394681 
1172	 0.500680899330045 
1173	 0.500335695537121 
1174	 0.499942384393085 
1175	 0.499624285343239 
1176	 0.49941979715796 
1177	 0.49927930289249 
1178	 0.499272080103722 
1179	 0.49923881441518 
1180	 0.499286007060656 
1181	 0.499252932148384 
1182	 0.499190802329202 
1183	 0.499169730599396 
1184	 0.49912039994015 
1185	 0.499101976448421 
1186	 0.499151339681691 
1187	 0.4991576077181 
1188	 0.499173795219833 
1189	 0.499150061600934 
1190	 0.499076666602936 
1191	 0.498967634413066 
1192	 0.498761565903413 
1193	 0.498599019539703 
1194	 0.498473056603643 
1195	 0.498377024240392 
1196	 0.498235580441733 
1197	 0.498157102235033 
1198	 0.497930643503472 
1199	 0.497571603769647 
1200	 0.497302405235881 
1201	 0.496995313792045 
1202	 0.49672168809787 
1203	 0.496534990242713 
1204	 0.496256678580479 
1205	 0.495921337707845 
1206	 0.495595100557196 
1207	 0.495197041962604 
1208	 0.494888242861392 
1209	 0.494605028996554 
1210	 0.494366436343069 
1211	 0.494175840795904 
1212	 0.49396586696191 
1213	 0.493905351949821 
1214	 0.493900098018307 
1215	 0.493983202582371 
1216	 0.494178621429413 
1217	 0.494427263293945 
1218	 0.494719009172779 
1219	 0.495097985462823 
1220	 0.495604173196051 
1221	 0.496106108269501 
1222	 0.496658669347006 
1223	 0.49723144955066 
1224	 0.497816069510173 
1225	 0.498464869308581 
1226	 0.499264029793225 
1227	 0.499924194974554 
1228	 0.500538399890209 
1229	 0.501171540826103 
1230	 0.501757504093432 
1231	 0.502308235061778 
1232	 0.50281613639498 
1233	 0.503323507134627 
1234	 0.503833447580813 
1235	 0.50425617495098 
1236	 0.504758152732507 
1237	 0.505356619071634 
1238	 0.505876476105069 
1239	 0.506403162693194 
1240	 0.506842323857645 
1241	 0.507206117002192 
1242	 0.507608399095663 
1243	 0.507918352470488 
1244	 0.508314765792855 
1245	 0.508842135146701 
1246	 0.509262610553996 
1247	 0.509665664556021 
1248	 0.510047678780024 
1249	 0.510359344902535 
1250	 0.510667786575047 
1251	 0.510986795061771 
1252	 0.51127300592762 
1253	 0.511542842909308 
1254	 0.511785871084651 
1255	 0.512030531088761 
1256	 0.512249553694189 
1257	 0.512496501603185 
1258	 0.512761065879888 
1259	 0.512996560739383 
1260	 0.513222689909674 
1261	 0.51346782307429 
1262	 0.513681769883493 
1263	 0.513936989737568 
1264	 0.514246713846792 
1265	 0.514529764318378 
1266	 0.51482998342166 
1267	 0.515091760189072 
1268	 0.515356881458187 
1269	 0.515555080381647 
1270	 0.515649085688645 
1271	 0.515795080763678 
1272	 0.515914312193455 
1273	 0.516053050244502 
1274	 0.516185596136989 
1275	 0.5163521384416 
1276	 0.516494487404074 
1277	 0.516601300695953 
1278	 0.516750061292628 
1279	 0.516940970174525 
1280	 0.51708459762565 
1281	 0.517231470132028 
1282	 0.517343817064818 
1283	 0.517413372622409 
1284	 0.517500942948467 
1285	 0.517516547389624 
1286	 0.517657909349349 
1287	 0.517875015332901 
1288	 0.51807633907306 
1289	 0.518370129907621 
1290	 0.518612239444519 
1291	 0.518774089723312 
1292	 0.519013358783472 
1293	 0.519277983437492 
1294	 0.51957509265036 
1295	 0.519928696520472 
1296	 0.520331097782369 
1297	 0.520632130895182 
1298	 0.52090978516222 
1299	 0.521196672178187 
1300	 0.521396160909434 
1301	 0.521727042290867 
1302	 0.522150964270622 
1303	 0.522521309780245 
1304	 0.522896397054926 
1305	 0.523316457734961 
1306	 0.523734183755199 
1307	 0.524190565885803 
1308	 0.524795946742606 
1309	 0.525231013748207 
1310	 0.525535850064625 
1311	 0.525938121259681 
1312	 0.526307350952483 
1313	 0.526688598313832 
1314	 0.527177773127597 
1315	 0.527587717797388 
1316	 0.527831881565233 
1317	 0.52822434364289 
1318	 0.528693872364311 
1319	 0.529162536148011 
1320	 0.52967145938397 
1321	 0.530312103828067 
1322	 0.530840119096814 
1323	 0.531265966346259 
1324	 0.531932337228337 
1325	 0.532688994859001 
1326	 0.533484126482765 
1327	 0.534507486240124 
1328	 0.535395528801213 
1329	 0.536286365700555 
1330	 0.537105044265793 
1331	 0.537950787110845 
1332	 0.538608897151354 
1333	 0.539091143223171 
1334	 0.539555366540932 
1335	 0.539816003470459 
1336	 0.540189780758713 
1337	 0.540445796014904 
1338	 0.54094427533043 
1339	 0.541538493764376 
1340	 0.542349866731731 
1341	 0.543571992042589 
1342	 0.544840900650821 
1343	 0.546569937083726 
1344	 0.548338829171869 
1345	 0.550285605559377 
1346	 0.552849646630984 
1347	 0.556129201011464 
1348	 0.559911281155104 
1349	 0.563825641445218 
1350	 0.5688383227773 
1351	 0.574252002013279 
1352	 0.57949681947022 
1353	 0.586517136452511 
1354	 0.595025737816384 
1355	 0.605407685590402 
1356	 0.613199456777721 
1357	 0.627022192583746 
1358	 0.636942476746403 
1359	 0.657871840136077 
1360	 0.676350981459599 
1361	 0.707212479916799 
1362	 0.725307555726381 
1363	 0.75866478811238 
1364	 0.765394031633754 
1365	 0.768824252147462 
1366	 0.745270558331457 
1367	 0.740424921932393 
1368	 0.730652071521674 
1369	 0.729909210217514 
1370	 0.743795872595734 
1371	 0.746742383018302 
1372	 0.74139487665232 
1373	 0.742315744213859 
1374	 0.741255998829759 
1375	 0.750415627819177 
1376	 0.747569560241169 
1377	 0.741273184423266 
1378	 0.738711197935912 
1379	 0.72993456174363 
1380	 0.724977510635556 
1381	 0.726611182279267 
1382	 0.724770716249402 
1383	 0.720038191260213 
1384	 0.715598342660199 
1385	 0.713371952454441 
1386	 0.709307187437175 
1387	 0.7026133805 
1388	 0.699380725432504 
1389	 0.699358845266094 
1390	 0.69609777653112 
1391	 0.694660409351388 
1392	 0.687754402129569 
1393	 0.67588825554406 
1394	 0.668079762298614 
1395	 0.65765117848642 
1396	 0.651928445196593 
1397	 0.652031130566155 
1398	 0.647998111505159 
1399	 0.64301752345202 
1400	 0.638563911111647 
1401	 0.632844337747069 
1402	 0.627851792886564 
1403	 0.625359140212377 
1404	 0.620855273522483 
1405	 0.61628869186142 
1406	 0.610465985484754 
1407	 0.604923275065905 
1408	 0.599083828889496 
1409	 0.593130204507234 
1410	 0.587626462612502 
1411	 0.582319034054379 
1412	 0.577444797383812 
1413	 0.572108377653067 
1414	 0.566396352062628 
1415	 0.562604124530186 
1416	 0.559150792543357 
1417	 0.555896945890259 
1418	 0.5538758431875 
1419	 0.550984377540344 
1420	 0.547474677271537 
1421	 0.544696626023268 
1422	 0.542044194574984 
1423	 0.53975134842179 
1424	 0.537448758176998 
1425	 0.53573690210355 
1426	 0.534322260622569 
1427	 0.533088561716529 
1428	 0.532075839272922 
1429	 0.531195712417738 
1430	 0.530405589643919 
1431	 0.529785389019769 
1432	 0.529244462495997 
1433	 0.528968064473601 
1434	 0.528998647722777 
1435	 0.528901479858192 
1436	 0.529351521704188 
1437	 0.52911933241023 
1438	 0.528330863424483 
1439	 0.527693618506141 
1440	 0.526916196796608 
1441	 0.52599335891748 
1442	 0.525120230269609 
1443	 0.524281128673949 
1444	 0.523053139709711 
1445	 0.521624029176708 
1446	 0.519976056793188 
1447	 0.518501445180213 
1448	 0.517060717357358 
1449	 0.515616878770352 
1450	 0.514229676317766 
1451	 0.513014847748074 
1452	 0.511624131720009 
1453	 0.509997587000121 
1454	 0.50892960539258 
1455	 0.507896146708655 
1456	 0.507169423011121 
1457	 0.506776316201151 
1458	 0.506357115089052 
1459	 0.505856552599493 
1460	 0.505728177515936 
1461	 0.50584808432576 
1462	 0.506017970491415 
1463	 0.506623181459806 
1464	 0.506870495576971 
1465	 0.507166159345927 
1466	 0.507131492109468 
1467	 0.506902640542805 
1468	 0.506343612490204 
1469	 0.50559088450319 
1470	 0.504381771232237 
1471	 0.502896262947294 
1472	 0.501002700896025 
1473	 0.498646359590924 
1474	 0.496290014991761 
1475	 0.493671011117181 
1476	 0.491144167004442 
1477	 0.488629945242532 
1478	 0.486122532509376 
1479	 0.483390788988091 
1480	 0.481113231782517 
1481	 0.479191272391086 
1482	 0.477189785156618 
1483	 0.475391851431803 
1484	 0.473658951729327 
1485	 0.47162685295074 
1486	 0.470109292239253 
1487	 0.468920273901807 
1488	 0.467974719672802 
1489	 0.467157611419433 
1490	 0.466480233477418 
1491	 0.465718116612401 
1492	 0.46516388042199 
1493	 0.464896689024689 
1494	 0.464781327279055 
1495	 0.4649966955234 
1496	 0.465550353992558 
1497	 0.466040335621794 
1498	 0.466732909935949 
1499	 0.467373149514488 
1500	 0.467949434311901 
1501	 0.468817648373586 
1502	 0.469881988936992 
1503	 0.470868902952793 
1504	 0.47204596986783 
1505	 0.473048238414868 
1506	 0.473931917661628 
1507	 0.474861261534321 
1508	 0.47578969490314 
1509	 0.476687917923117 
1510	 0.477604330280734 
1511	 0.478412327286154 
1512	 0.47912377917477 
1513	 0.479928537242705 
1514	 0.480731012180301 
1515	 0.481483920310314 
1516	 0.482368779488662 
1517	 0.483027057919084 
1518	 0.483452087162759 
1519	 0.484035746650817 
1520	 0.484615903331125 
1521	 0.485168593854456 
1522	 0.485801194182682 
1523	 0.486345042375819 
1524	 0.48680217924544 
1525	 0.487267910003166 
1526	 0.487710945598832 
1527	 0.488161268196399 
1528	 0.488607657691455 
1529	 0.489018221200473 
1530	 0.489442998895631 
1531	 0.489828683951033 
1532	 0.490097393098539 
1533	 0.490479477453016 
1534	 0.490957193669306 
1535	 0.491334019520132 
1536	 0.491670453894394 
1537	 0.492088581428857 
1538	 0.492449711562341 
1539	 0.492889996774988 
1540	 0.49353063657651 
1541	 0.494025548978964 
1542	 0.494428810252513 
1543	 0.494869181641639 
1544	 0.495274787544147 
1545	 0.495687433086705 
1546	 0.49608142976056 
1547	 0.496548231083688 
1548	 0.497131636187727 
1549	 0.497571190144458 
1550	 0.497952787110599 
1551	 0.498387651905178 
1552	 0.498708004557759 
1553	 0.499089546507044 
1554	 0.499627435329026 
1555	 0.500083593629321 
1556	 0.500516675557912 
1557	 0.500896252326498 
1558	 0.501219894431847 
1559	 0.501533162453505 
1560	 0.501759483851663 
1561	 0.502029553497529 
1562	 0.502363232860744 
1563	 0.50262980092288 
1564	 0.50283015020365 
1565	 0.503097370271189 
1566	 0.503359484495187 
1567	 0.503609033925177 
1568	 0.503829075855428 
1569	 0.504086576069973 
1570	 0.504307063779689 
1571	 0.504447514258254 
1572	 0.504657707362077 
1573	 0.504948001296343 
1574	 0.505088694854329 
1575	 0.505169385684859 
1576	 0.505237134719178 
1577	 0.505167515752774 
1578	 0.505343590538511 
1579	 0.50560456999512 
1580	 0.505864809122593 
1581	 0.506341308118438 
1582	 0.506433994465761 
1583	 0.506300156040752 
1584	 0.506396629307053 
1585	 0.506391437811706 
1586	 0.5065141526733 
1587	 0.506847518780458 
1588	 0.507040961416379 
1589	 0.507161840261289 
1590	 0.507298379307544 
1591	 0.507517574736051 
1592	 0.507532265061994 
1593	 0.507397897941571 
1594	 0.507351648084203 
1595	 0.507268744322736 
1596	 0.507125313657487 
1597	 0.507016735202059 
1598	 0.506793680967137 
1599	 0.506406020885447 
1600	 0.506126042157593 
1601	 0.50591529421045 
1602	 0.505524421799314 
1603	 0.505099104374 
1604	 0.504567582915078 
1605	 0.503926712609966 
1606	 0.503159373895747 
1607	 0.502313289474503 
1608	 0.501377563830548 
1609	 0.500192180733491 
1610	 0.499262083304777 
1611	 0.498391253481793 
1612	 0.497520217377718 
1613	 0.496724729167132 
1614	 0.495968794913937 
1615	 0.49523427261177 
1616	 0.494486312639798 
1617	 0.493817687091167 
1618	 0.493091439509001 
1619	 0.492325088893281 
1620	 0.491515723453222 
1621	 0.490772872325786 
1622	 0.489805201584194 
1623	 0.488712909253412 
1624	 0.48751494212204 
1625	 0.48612933799137 
1626	 0.484812832986716 
1627	 0.483502105772002 
1628	 0.481966741562653 
1629	 0.480479456176383 
1630	 0.478503080035798 
1631	 0.476254967715951 
1632	 0.473572322405562 
1633	 0.47057504692795 
1634	 0.467005922106861 
1635	 0.462966211872296 
1636	 0.458447490528984 
1637	 0.453350661038886 
1638	 0.447930117047144 
1639	 0.442071808234479 
1640	 0.435795470691114 
1641	 0.429039043310427 
1642	 0.422148133708894 
1643	 0.414881284365572 
1644	 0.40750601984457 
1645	 0.399937358075105 
1646	 0.392260310896998 
1647	 0.384287380032881 
1648	 0.376536365042645 
1649	 0.368729298792632 
1650	 0.361182560980779 
1651	 0.353695164313626 
1652	 0.346552849666788 
1653	 0.339438728707153 
1654	 0.333207884140939 
1655	 0.327199232763338 
1656	 0.322491117898873 
1657	 0.318574947907721 
1658	 0.315696951353098 
1659	 0.313930892051096 
1660	 0.313398491605677 
1661	 0.313898421491253 
1662	 0.315576937295438 
1663	 0.318091369112694 
1664	 0.321454349118252 
1665	 0.325363277600827 
1666	 0.329449546860067 
1667	 0.333822375084908 
1668	 0.338082924567055 
1669	 0.342308153849482 
1670	 0.346443738836093 
1671	 0.350437430445568 
1672	 0.354127166385135 
1673	 0.357544712943439 
1674	 0.360910448878458 
1675	 0.364193322883076 
1676	 0.367261952935816 
1677	 0.370212061839407 
1678	 0.372934863582667 
1679	 0.375506648339631 
1680	 0.378270214281811 
1681	 0.381119417565765 
1682	 0.38393569359345 
1683	 0.386825796202925 
1684	 0.389608594567434 
1685	 0.39219134055739 
1686	 0.394796057860332 
1687	 0.397351517706719 
1688	 0.399832028138154 
1689	 0.402040578467865 
1690	 0.404107927960423 
1691	 0.405487186393342 
1692	 0.406261175799606 
1693	 0.406628417056776 
1694	 0.406356852214966 
1695	 0.405817078876687 
1696	 0.404871606528892 
1697	 0.403625979938262 
1698	 0.401736241105588 
1699	 0.400024862676408 
1700	 0.397981008957158 
1701	 0.396242365020942 
1702	 0.394624527699811 
1703	 0.393218671251341 
1704	 0.391852591109299 
1705	 0.390853245160024 
1706	 0.390299898868631 
1707	 0.389735549876636 
1708	 0.389511728879029 
1709	 0.389173366495124 
1710	 0.388639371893184 
1711	 0.388395672883112 
1712	 0.388407697350407 
1713	 0.388311151451277 
1714	 0.388425065487562 
1715	 0.388436487614078 
1716	 0.388323897254129 
1717	 0.388164451431406 
1718	 0.387950153489081 
1719	 0.387763176086081 
1720	 0.387370518498371 
1721	 0.3873683601193 
1722	 0.387637050544794 
1723	 0.387895456406784 
1724	 0.388302719137452 
1725	 0.388773167195598 
1726	 0.389245031010811 
1727	 0.389873923604129 
1728	 0.390681563221829 
1729	 0.391621132101606 
1730	 0.392575386348338 
1731	 0.393726090305444 
1732	 0.395265383636041 
1733	 0.397133397393951 
1734	 0.399238516683683 
1735	 0.40149466101437 
1736	 0.403675217559898 
1737	 0.405695634787557 
1738	 0.407830357616596 
1739	 0.40985832205417 
1740	 0.412018226568474 
1741	 0.414245773794147 
1742	 0.416121038634218 
1743	 0.418224117499733 
1744	 0.42013894201749 
1745	 0.421525873627384 
1746	 0.423112104336837 
1747	 0.424300414036634 
1748	 0.424921608242344 
1749	 0.425616809990246 
1750	 0.426171770470199 
1751	 0.426389514333785 
1752	 0.426851415644613 
1753	 0.427462538849317 
1754	 0.427850490060763 
1755	 0.428320985500399 
1756	 0.428735633031708 
1757	 0.429230740642468 
1758	 0.429679697395123 
1759	 0.430241554221184 
1760	 0.430862686303458 
1761	 0.431344170899266 
1762	 0.431904299064927 
1763	 0.432548305869442 
1764	 0.433402845896086 
1765	 0.434398159546854 
1766	 0.43533298175559 
1767	 0.4364108570223 
1768	 0.437605749976506 
1769	 0.438733087646747 
1770	 0.44005788372156 
1771	 0.441700785033937 
1772	 0.443278467326754 
1773	 0.444882411617041 
1774	 0.446634838672909 
1775	 0.448434040380337 
1776	 0.450012715049021 
1777	 0.451391943488155 
1778	 0.452890434720817 
1779	 0.454157331438028 
1780	 0.454982530527473 
1781	 0.455890306110832 
1782	 0.456512060446621 
1783	 0.457188167949243 
1784	 0.45798407872853 
1785	 0.458535229955994 
1786	 0.459266518702105 
1787	 0.459715961171405 
1788	 0.460113964745914 
1789	 0.460984611029581 
1790	 0.461868356400314 
1791	 0.462828252563085 
1792	 0.463700062152165 
1793	 0.464379046528557 
1794	 0.465116136308174 
1795	 0.466299054382876 
1796	 0.467859876512278 
1797	 0.469320521742077 
1798	 0.471290698909641 
1799	 0.472962965076357 
1800	 0.475168546681526 
1801	 0.471179821066882 
1802	 0.472237031502082 
1803	 0.475133863161205 
1804	 0.479291358470044 
1805	 0.482753790674062 
1806	 0.488519424146558 
1807	 0.492876168474538 
1808	 0.495867386935334 
1809	 0.497499740365942 
1810	 0.500397060341395 
1811	 0.50401146248088 
1812	 0.506989285582963 
1813	 0.508673846737169 
1814	 0.512010724816488 
1815	 0.516388994286199 
1816	 0.52042314059885 
1817	 0.526078299751494 
1818	 0.530984636708345 
1819	 0.53535802574821 
1820	 0.538571969303353 
1821	 0.540767128244335 
1822	 0.539252269099147 
1823	 0.542064625806431 
1824	 0.545038784529897 
1825	 0.549282145135918 
1826	 0.562387035315283 
1827	 0.571523345136356 
1828	 0.579770551129221 
1829	 0.586071823580113 
1830	 0.59106614141285 
1831	 0.583136478517836 
1832	 0.58882681716115 
1833	 0.602064608947273 
1834	 0.614251040394294 
1835	 0.653327335179055 
1836	 0.676028416030877 
1837	 0.656953709024035 
1838	 0.639583408870905 
1839	 0.610699742708866 
1840	 0.555815284021008 
1841	 0.534299228140616 
1842	 0.513806364642143 
1843	 0.5152942426426 
1844	 0.558654351122167 
1845	 0.564599496323082 
1846	 0.563672883441282 
1847	 0.563645938054955 
1848	 0.557281519829145 
1849	 0.51620624194913 
1850	 0.533209436780423 
1851	 0.589052289591944 
1852	 0.623470123178365 
1853	 0.695988367179753 
1854	 0.732708362785298 
1855	 0.732652493412732 
1856	 0.739994700708383 
1857	 0.715543961937809 
1858	 0.739521459368084 
1859	 0.735571723227587 
1860	 0.719085970301764 
1861	 0.719341465143975 
1862	 0.72048290927592 
1863	 0.729329974512041 
1864	 0.76364438852646 
1865	 0.773152392332921 
1866	 0.786056950989925 
1867	 0.774380668521348 
1868	 0.747785507807378 
1869	 0.738698899970499 
1870	 0.710050604085787 
1871	 0.664998098429987 
1872	 0.655352710629025 
1873	 0.649902640085608 
1874	 0.654185993635611 
1875	 0.701505287359232 
1876	 0.697661559133869 
1877	 0.668625392786611 
1878	 0.656125431421036 
1879	 0.647947053420089 
1880	 0.635272356945478 
1881	 0.63709243188078 
1882	 0.65494563988382 
1883	 0.657531966354697 
1884	 0.666525256315302 
1885	 0.662149743459344 
1886	 0.646026542654423 
1887	 0.63279930616649 
1888	 0.626386870742863 
1889	 0.611026521383129 
1890	 0.605192924521119 
1891	 0.611774520738182 
1892	 0.608001147313106 
1893	 0.597467106655412 
1894	 0.590152367241575 
1895	 0.578947626538139 
1896	 0.573238978758415 
1897	 0.563206718546986 
1898	 0.569658785403717 
1899	 0.603377860527448 
1900	 0.614439305975789 
1901	 0.615590686835321 
1902	 0.60113303415242 
1903	 0.607216567273099 
1904	 0.596705753321295 
1905	 0.59495082908186 
1906	 0.635286049117848 
1907	 0.645021327112208 
1908	 0.586273326107197 
1909	 0.567774389642821 
1910	 0.558063951495223 
1911	 0.525224561179243 
1912	 0.51597286095847 
1913	 0.519831731653984 
1914	 0.512296944322947 
1915	 0.507470725370173 
1916	 0.503073750851972 
1917	 0.499248337035775 
1918	 0.489150737819522 
1919	 0.48551937597847 
1920	 0.484848106677503 
1921	 0.480292069046429 
1922	 0.483260772865927 
1923	 0.481680411000929 
1924	 0.476370774448058 
1925	 0.473747850453537 
1926	 0.471528603358048 
1927	 0.468868588268665 
1928	 0.466847867135179 
1929	 0.467301561475067 
1930	 0.462480864708033 
1931	 0.457218591610617 
1932	 0.45091636108752 
1933	 0.445296099055799 
1934	 0.441303085944336 
1935	 0.439678834657503 
1936	 0.435624704722443 
1937	 0.431166938052656 
1938	 0.42704692121999 
1939	 0.422345379476667 
1940	 0.418244046121843 
1941	 0.414662817348867 
1942	 0.411747377371589 
1943	 0.408144978924453 
1944	 0.405510846496707 
1945	 0.402547248856005 
1946	 0.399832854439948 
1947	 0.397840941241774 
1948	 0.396108464938579 
1949	 0.394094836211276 
1950	 0.392536243088427 
1951	 0.390912643481259 
1952	 0.388609945485424 
1953	 0.387088213557763 
1954	 0.385599020034834 
1955	 0.384955914618781 
1956	 0.384846875489392 
1957	 0.383706021556045 
1958	 0.383456882607034 
1959	 0.384214245374931 
1960	 0.383968365892148 
1961	 0.383602999802519 
1962	 0.383486422252831 
1963	 0.381494785575408 
1964	 0.380221835186565 
1965	 0.379888497265358 
1966	 0.379113696958757 
1967	 0.379687732463596 
1968	 0.379910271130642 
1969	 0.379435118829544 
1970	 0.378324229804241 
1971	 0.377493803127398 
1972	 0.376345840387231 
1973	 0.375485064836373 
1974	 0.374992128529935 
1975	 0.374633981439622 
1976	 0.374661546754163 
1977	 0.374421182668677 
1978	 0.373937247321405 
1979	 0.373869950499007 
1980	 0.373266849023788 
1981	 0.372160161335021 
1982	 0.371132725991758 
1983	 0.369908613602368 
1984	 0.368403663672326 
1985	 0.367262354090094 
1986	 0.366654277258615 
1987	 0.365972944679332 
1988	 0.365220618565503 
1989	 0.364420230581514 
1990	 0.362917985792687 
1991	 0.361279039268673 
1992	 0.360073549933538 
1993	 0.35873685125824 
1994	 0.358018244484502 
1995	 0.357354835276483 
1996	 0.357340000817208 
1997	 0.356420797907862 
1998	 0.355431577343119 
1999	 0.354440528450029 
2000	 0.353223976963461 
2001	 0.3524746333821 
2002	 0.352262300807836 
2003	 0.351928778940571 
2004	 0.351752795146767 
2005	 0.35210720628813 
2006	 0.352130374154982 
2007	 0.352188940841157 
2008	 0.352061131493452 
2009	 0.351805321120336 
2010	 0.351712598540306 
2011	 0.351574365213893 
2012	 0.351191018504697 
2013	 0.351047485070424 
2014	 0.350328183838085 
2015	 0.349960741536166 
2016	 0.350337260512559 
2017	 0.349782815315987 
2018	 0.34922237417497 
2019	 0.348799103545126 
2020	 0.348140396321159 
2021	 0.347485518327917 
2022	 0.347611772600523 
2023	 0.347461556731915 
2024	 0.347473590984422 
2025	 0.347592414684271 
2026	 0.347222064749902 
2027	 0.347219277054228 
2028	 0.347224984977217 
2029	 0.347061114015675 
2030	 0.346904099425288 
2031	 0.346820992828048 
2032	 0.346789028532886 
2033	 0.346761614684021 
2034	 0.3464875159162 
2035	 0.346772887632647 
2036	 0.346971173725798 
2037	 0.346697115042566 
2038	 0.346795487674133 
2039	 0.346790369469725 
2040	 0.34668928266253 
2041	 0.346949639524454 
2042	 0.347385819849167 
2043	 0.347670862550445 
2044	 0.347706017062006 
2045	 0.347881766827695 
2046	 0.348082237151555 
2047	 0.348354042438415 
2048	 0.348709883023217 
2049	 0.349504505576531 
2050	 0.350192049417569 
2051	 0.350517722485249 
2052	 0.350799973983336 
2053	 0.350711284777899 
2054	 0.350535768261198 
2055	 0.350538091598467 
2056	 0.3503735014633 
2057	 0.350412508390314 
2058	 0.350316067706789 
2059	 0.349795730494475 
2060	 0.348987152457485 
2061	 0.347990282024702 
2062	 0.346692604620631 
2063	 0.345545599824215 
2064	 0.344605889758745 
2065	 0.343677286332782 
2066	 0.342963634434712 
2067	 0.341944151803921 
2068	 0.340642038079262 
2069	 0.339530440595446 
2070	 0.337641238667576 
2071	 0.335455500933778 
2072	 0.333753723146803 
2073	 0.3321656388828 
2074	 0.330513608431891 
2075	 0.329517642859023 
2076	 0.328756259207534 
2077	 0.327694447478624 
2078	 0.326829781197001 
2079	 0.325911780067364 
2080	 0.325136181086268 
2081	 0.325118500734787 
2082	 0.324753460523657 
2083	 0.324106925152598 
2084	 0.324000254660744 
2085	 0.323777898827123 
2086	 0.323992999214455 
2087	 0.324312499305087 
2088	 0.325039683749392 
2089	 0.325585317609111 
2090	 0.326538468932684 
2091	 0.327458647669748 
2092	 0.328340753649512 
2093	 0.329578888699535 
2094	 0.330358282847562 
2095	 0.33065153766093 
2096	 0.330889937101228 
2097	 0.330930551180774 
2098	 0.330904649014301 
2099	 0.330528576881902 
2100	 0.330051203079935 
2101	 0.329089887874208 
2102	 0.327615945625261 
2103	 0.325461216219518 
2104	 0.323214970951252 
2105	 0.320808418422874 
2106	 0.318644281961375 
2107	 0.316150608723569 
2108	 0.313297438627965 
2109	 0.310303286415467 
2110	 0.306473202579592 
2111	 0.303053237785342 
2112	 0.30019672874812 
2113	 0.297228764020831 
2114	 0.294361398208751 
2115	 0.291023948622135 
2116	 0.287402161580887 
2117	 0.283775866023767 
2118	 0.279758677225648 
2119	 0.275945410352111 
2120	 0.272100288962592 
2121	 0.268667819093527 
2122	 0.265465856576887 
2123	 0.262598044176369 
2124	 0.259748189262124 
2125	 0.256165285178323 
2126	 0.25241776100063 
2127	 0.248923771326864 
2128	 0.24575788080728 
2129	 0.243503260699836 
2130	 0.242063792184517 
2131	 0.24140812935806 
2132	 0.241830190644767 
2133	 0.243006248316992 
2134	 0.244828834714516 
2135	 0.24737476046709 
2136	 0.250729690502207 
2137	 0.254670411068693 
2138	 0.258737989369014 
2139	 0.262664806210027 
2140	 0.266264276980163 
2141	 0.268960520447819 
2142	 0.271728601175284 
2143	 0.274448324448909 
2144	 0.276045329212508 
2145	 0.277336928000144 
2146	 0.277867884245898 
2147	 0.27745890499526 
2148	 0.276606131092013 
2149	 0.275244473371996 
2150	 0.273139988559226 
2151	 0.271313826091114 
2152	 0.269181716455142 
2153	 0.267403301871495 
2154	 0.265537684045457 
2155	 0.26449460355024 
2156	 0.263773255140905 
2157	 0.263696921117395 
2158	 0.265217314186413 
2159	 0.267502609800544 
2160	 0.270355483138385 
2161	 0.274487921716762 
2162	 0.278676075460695 
2163	 0.282983495800107 
2164	 0.28717736320482 
2165	 0.290588618312795 
2166	 0.293638367849828 
2167	 0.296076656304478 
2168	 0.297927286143706 
2169	 0.299490525682831 
2170	 0.300065303326826 
2171	 0.299813469510012 
2172	 0.298834949759797 
2173	 0.297486654221237 
2174	 0.295597840501392 
2175	 0.293498020196299 
2176	 0.291427535468046 
2177	 0.289261303912569 
2178	 0.287479744213634 
2179	 0.285873980270893 
2180	 0.284701390505302 
2181	 0.284060789596493 
2182	 0.283965876929945 
2183	 0.284457785749674 
2184	 0.285424840506039 
2185	 0.286703411852223 
2186	 0.288173372817144 
2187	 0.28998974428728 
2188	 0.292308462313431 
2189	 0.294682202108749 
2190	 0.297425752439798 
2191	 0.299958797309197 
2192	 0.3022254130152 
2193	 0.304276334888823 
2194	 0.305693014712792 
2195	 0.306777378019977 
2196	 0.308003228186951 
2197	 0.308684682094966 
2198	 0.309185571447496 
2199	 0.309709498461168 
2200	 0.309740800340536 
2201	 0.308719147999126 
2202	 0.307136647328513 
2203	 0.306076691049249 
2204	 0.305017185130292 
2205	 0.304158537275076 
2206	 0.303565923392062 
2207	 0.302494896063244 
2208	 0.301150973359372 
2209	 0.299347323013298 
2210	 0.297585258454583 
2211	 0.295655242005474 
2212	 0.293756962841466 
2213	 0.291747653160649 
2214	 0.289403911606566 
2215	 0.286983449851054 
2216	 0.283833371160281 
2217	 0.279782377244568 
2218	 0.275118644851744 
2219	 0.270333783078306 
2220	 0.265900122196522 
2221	 0.261096569094347 
2222	 0.256420731815175 
2223	 0.251993507221844 
2224	 0.246394017004259 
2225	 0.241232780685818 
2226	 0.237173260690637 
2227	 0.232277143153596 
2228	 0.227143033892918 
2229	 0.22205035868905 
2230	 0.216874583309261 
2231	 0.211754715730576 
2232	 0.206815229149752 
2233	 0.201633505265017 
2234	 0.196460867489644 
2235	 0.191121421635957 
2236	 0.185446335292995 
2237	 0.180215940612801 
2238	 0.175086959082923 
2239	 0.169569432036232 
2240	 0.164207065799009 
2241	 0.159906964438383 
2242	 0.156443598501473 
2243	 0.152882365492302 
2244	 0.149478682629375 
2245	 0.146866590010351 
2246	 0.145067246659755 
2247	 0.144021700987855 
2248	 0.143331314424851 
2249	 0.142857793674316 
2250	 0.141896032890882 
2251	 0.140611399790654 
2252	 0.140283307963784 
2253	 0.140154615514726 
2254	 0.139931961731464 
2255	 0.139900650191538 
2256	 0.140327052134739 
2257	 0.140979045367835 
2258	 0.141791041581849 
2259	 0.143304385956731 
2260	 0.145889601136887 
2261	 0.148061511108439 
2262	 0.150415722273102 
2263	 0.152745835662049 
2264	 0.154700314529829 
2265	 0.156437289461423 
2266	 0.158124564763044 
2267	 0.160256378385214 
2268	 0.161421692185879 
2269	 0.162572795797605 
2270	 0.164058690465708 
2271	 0.165367085405719 
2272	 0.167814962487483 
2273	 0.17126947994611 
2274	 0.174373309339065 
2275	 0.176345309643018 
2276	 0.177379322307589 
2277	 0.177155026703461 
2278	 0.177263111990601 
2279	 0.178957852996771 
2280	 0.180020895490189 
2281	 0.180975680726957 
2282	 0.182558198187729 
2283	 0.183106234105104 
2284	 0.183559814069755 
2285	 0.185221251929724 
2286	 0.186058292417705 
2287	 0.18632364769863 
2288	 0.185859660807816 
2289	 0.185900984397438 
2290	 0.184751961461152 
2291	 0.183888722398414 
2292	 0.18466036089066 
2293	 0.185263871947521 
2294	 0.186219102830148 
2295	 0.185969783190462 
2296	 0.183486733822845 
2297	 0.181118223793895 
2298	 0.17903945408467 
2299	 0.177802252626006 
2300	 0.178384934964762 
2301	 0.179377063968563 
2302	 0.179766928036762 
2303	 0.180452242610522 
2304	 0.180185702403677 
2305	 0.178937640089323 
2306	 0.178100292098371 
2307	 0.177269759130795 
2308	 0.177623735458075 
2309	 0.178117829798229 
2310	 0.17750350448378 
2311	 0.176889007580834 
2312	 0.175490335708902 
2313	 0.173972001141886 
2314	 0.173500830128801 
2315	 0.173823995103139 
2316	 0.173802064159304 
2317	 0.172569370586792 
2318	 0.171548725970224 
2319	 0.169666716914028 
2320	 0.16761728920705 
2321	 0.165970837222466 
2322	 0.165183606262077 
2323	 0.163190353203631 
2324	 0.160799855122132 
2325	 0.158342802500242 
2326	 0.155549076505642 
2327	 0.155171468639388 
2328	 0.156702534290238 
2329	 0.157587004108913 
2330	 0.158717771443438 
2331	 0.159795265620083 
2332	 0.159339584703797 
2333	 0.159748224950014 
2334	 0.161264493811532 
2335	 0.161820905180772 
2336	 0.162838925535868 
2337	 0.163423338277017 
2338	 0.162633870724147 
2339	 0.163749415782464 
2340	 0.164880966751516 
2341	 0.164562447175208 
2342	 0.166932230750572 
2343	 0.169282206001988 
2344	 0.169938492493928 
2345	 0.172209947382279 
2346	 0.172357031214213 
2347	 0.171236992220881 
2348	 0.172020163006166 
2349	 0.172505694828032 
2350	 0.173648854655922 
2351	 0.174652849177167 
2352	 0.173653481620853 
2353	 0.172311116350073 
2354	 0.172008556604052 
2355	 0.172319104131855 
2356	 0.173403887006532 
2357	 0.174191893898274 
2358	 0.174421039475167 
2359	 0.1756074116008 
2360	 0.175231820356188 
2361	 0.174195931266863 
2362	 0.174402240797885 
2363	 0.17337667136317 
2364	 0.173219387160185 
2365	 0.173809094787153 
2366	 0.173581923857833 
2367	 0.174302682956544 
2368	 0.174089296015847 
2369	 0.174360484662428 
2370	 0.17712504789121 
2371	 0.177903735554564 
2372	 0.178639207637676 
2373	 0.180054971433454 
2374	 0.181375109272898 
2375	 0.1811810847583 
2376	 0.18257566370692 
2377	 0.1856950878437 
2378	 0.187697620077431 
2379	 0.18956392510405 
2380	 0.190314068339711 
2381	 0.190497789392129 
2382	 0.18938942610522 
2383	 0.186082236631335 
2384	 0.185147088955157 
2385	 0.185185970945109 
2386	 0.184982372251581 
2387	 0.186196408798105 
2388	 0.186197838828459 
2389	 0.184878151349983 
2390	 0.18258424108407 
2391	 0.177824546757687 
2392	 0.177243505250144 
2393	 0.179440244063828 
2394	 0.180217744483611 
2395	 0.183312264540136 
2396	 0.184630396347578 
2397	 0.182112436777484 
2398	 0.182057191412021 
2399	 0.183554855391205 
2400	 0.185510777328785 
2401	 0.188207831513724 
2402	 0.191979113706284 
2403	 0.194403438417941 
2404	 0.19474911431962 
2405	 0.19585228370242 
2406	 0.196317836999578 
2407	 0.195549955637338 
2408	 0.198024316542569 
2409	 0.198850854204039 
2410	 0.196487919460444 
2411	 0.198578728772306 
2412	 0.199505076990135 
2413	 0.193976529203242 
2414	 0.191514843496876 
2415	 0.189368534009954 
2416	 0.185044538817262 
2417	 0.185557629344403 
2418	 0.18802213402192 
2419	 0.187005881946219 
2420	 0.185982008955995 
2421	 0.184006467825984 
2422	 0.178275331907553 
2423	 0.17423120971122 
2424	 0.170971768477186 
2425	 0.170334016219632 
2426	 0.171989821770508 
2427	 0.173884269651725 
2428	 0.175712347588749 
2429	 0.175772577730843 
2430	 0.175865450183466 
2431	 0.169872098471516 
2432	 0.160448768955857 
2433	 0.150487146573999 
2434	 0.142077577530283 
2435	 0.135265532690385 
2436	 0.131545482912631 
2437	 0.132450146767974 
2438	 0.131744630320737 
2439	 0.131211401135028 
2440	 0.128831092829367 
2441	 0.119171573194439 
2442	 0.116700766138567 
2443	 0.124307079374393 
2444	 0.127544737580212 
2445	 0.132808645283839 
2446	 0.137761802519454 
2447	 0.13863996672786 
2448	 0.137598046294594 
2449	 0.136424125599163 
2450	 0.138279251167687 
2451	 0.136040498807999 
2452	 0.138751927184171 
2453	 0.150267916013543 
2454	 0.155480357803841 
2455	 0.156691278717988 
2456	 0.160099797803984 
2457	 0.164627365081763 
2458	 0.165455988794406 
2459	 0.165832392351385 
2460	 0.166114761104316 
2461	 0.159781288663151 
2462	 0.161576310746309 
2463	 0.173786819392037 
2464	 0.173560505068258 
2465	 0.168456112044982 
2466	 0.166907270179854 
2467	 0.156611666478107 
2468	 0.155572761297093 
2469	 0.167828986991878 
2470	 0.174381530253084 
2471	 0.176413874694407 
2472	 0.178809465297798 
2473	 0.184218896886183 
2474	 0.185643213258889 
2475	 0.185292399026736 
2476	 0.188323683084237 
2477	 0.188019981990047 
2478	 0.192779532145549 
2479	 0.206727213004167 
2480	 0.202552158974822 
2481	 0.186294745320371 
2482	 0.180452500633312 
2483	 0.15664178234723 
2484	 0.155934834692987 
2485	 0.192655615153287 
2486	 0.21065073327148 
2487	 0.235785256297918 
2488	 0.256787328239067 
2489	 0.248378537091203 
2490	 0.217583585712777 
2491	 0.219135130823666 
2492	 0.214363194360349 
2493	 0.229551881135325 
2494	 0.257078296975856 
2495	 0.23435723665154 
2496	 0.249339722018838 
2497	 0.271398246422629 
2498	 0.289695391513488 
2499	 0.32607161887866 
2500	 0.37999873218025 
