Wavelength	ref00054.asd
350	 3.72515715176393E-02 
351	 3.78962063211575E-02 
352	 3.77873952374991E-02 
353	 3.79326331037463E-02 
354	 3.75280498992948E-02 
355	 3.70249490622813E-02 
356	 3.68290161437118E-02 
357	 3.67656700173853E-02 
358	 3.72679238603976E-02 
359	 3.77808494158343E-02 
360	 0.037675505886751 
361	 3.72790770054821E-02 
362	 3.74857635124013E-02 
363	 3.76747316578731E-02 
364	 3.65595215341115E-02 
365	 3.66355533798364E-02 
366	 3.67801730490474E-02 
367	 0.036426636592549 
368	 0.036375583584462 
369	 3.70372939884529E-02 
370	 3.74359195498421E-02 
371	 3.69938472215042E-02 
372	 0.037445193662102 
373	 3.72998468251997E-02 
374	 3.66910637999492E-02 
375	 3.65288460078656E-02 
376	 3.65925340149164E-02 
377	 3.68033859318462E-02 
378	 3.70235515841836E-02 
379	 3.70527069961831E-02 
380	 3.70849608929976E-02 
381	 3.72046716361551E-02 
382	 3.74086801751214E-02 
383	 3.75247806024233E-02 
384	 3.78072651495161E-02 
385	 3.79771181520513E-02 
386	 3.76868914617516E-02 
387	 3.77412164417942E-02 
388	 3.79634553866583E-02 
389	 3.80276036413021E-02 
390	 3.76123744089565E-02 
391	 3.80856858438427E-02 
392	 3.84873084060458E-02 
393	 3.82153609090373E-02 
394	 3.83925534452713E-02 
395	 3.90715718127922E-02 
396	 3.94067594495972E-02 
397	 3.87305001482877E-02 
398	 3.89720323302425E-02 
399	 3.91947116756987E-02 
400	 3.91909047105772E-02 
401	 3.94485164492396E-02 
402	 3.96408700010334E-02 
403	 3.98282022996771E-02 
404	 4.00690641429434E-02 
405	 4.03085341119032E-02 
406	 4.05466816555154E-02 
407	 4.06591050797725E-02 
408	 4.05876598610396E-02 
409	 0.040797695221307 
410	 4.09841548029176E-02 
411	 4.11591828469959E-02 
412	 4.16033534692536E-02 
413	 4.18303723602396E-02 
414	 4.19842071669256E-02 
415	 4.22203596128554E-02 
416	 4.25120786552413E-02 
417	 4.26539004727104E-02 
418	 4.27505630462689E-02 
419	 4.29767790621685E-02 
420	 4.32465503701143E-02 
421	 4.34835784086187E-02 
422	 4.36954165494398E-02 
423	 4.39572493125226E-02 
424	 4.42028780320797E-02 
425	 0.044241764723383 
426	 4.41486695325524E-02 
427	 4.46313940165257E-02 
428	 4.49758502374309E-02 
429	 4.50885052300593E-02 
430	 4.51415399935424E-02 
431	 4.54093536587786E-02 
432	 4.55520798022677E-02 
433	 4.55474035266999E-02 
434	 4.56656951803694E-02 
435	 4.58841480395559E-02 
436	 4.60684706715639E-02 
437	 4.61527925258316E-02 
438	 4.62229577509728E-02 
439	 4.64748164004531E-02 
440	 4.67656128678699E-02 
441	 4.68805536577211E-02 
442	 4.69500686839733E-02 
443	 4.70653288024988E-02 
444	 0.047270581196475 
445	 4.75577963793814E-02 
446	 4.76559649580291E-02 
447	 4.78110373595288E-02 
448	 4.81485062541702E-02 
449	 4.82572341509018E-02 
450	 4.84337256443674E-02 
451	 4.86670593408357E-02 
452	 4.88477904096151E-02 
453	 4.91471271807622E-02 
454	 4.93350727001712E-02 
455	 4.93933727564288E-02 
456	 4.95800751770808E-02 
457	 0.04985266401741 
458	 4.99889578339262E-02 
459	 0.049916970154741 
460	 5.01457629048824E-02 
461	 5.02129126213411E-02 
462	 5.01670055665515E-02 
463	 5.02991178437116E-02 
464	 0.050355646079469 
465	 5.04745340134961E-02 
466	 5.06841332958085E-02 
467	 5.07955267589498E-02 
468	 5.07903423889969E-02 
469	 5.07968981290441E-02 
470	 0.05090984544692 
471	 5.09093915777896E-02 
472	 5.09319033423608E-02 
473	 5.10481413312639E-02 
474	 5.12525093883513E-02 
475	 5.13128743258405E-02 
476	 5.13139784422139E-02 
477	 5.13714737606324E-02 
478	 5.15778945550649E-02 
479	 5.17259281122023E-02 
480	 5.18235948049823E-02 
481	 5.19436056415652E-02 
482	 5.20690001536626E-02 
483	 5.21558999951676E-02 
484	 0.05226396692206 
485	 5.25408947099596E-02 
486	 5.27483118100656E-02 
487	 5.29029736780835E-02 
488	 0.0530564765169 
489	 5.31995190988968E-02 
490	 5.34043651874122E-02 
491	 5.36795434624179E-02 
492	 5.40063584486388E-02 
493	 5.43968824004967E-02 
494	 5.47812086338928E-02 
495	 5.51472212581314E-02 
496	 5.55610055246782E-02 
497	 5.61207731439522E-02 
498	 5.67535048009669E-02 
499	 5.73731494918758E-02 
500	 5.79976302615911E-02 
501	 0.058783562154711 
502	 5.96560618736324E-02 
503	 6.04230728683616E-02 
504	 6.12900065651739E-02 
505	 6.21980572955981E-02 
506	 6.31533239178798E-02 
507	 6.43164067918664E-02 
508	 6.56289617385045E-02 
509	 6.69581963078446E-02 
510	 6.82115993351424E-02 
511	 6.95892540236097E-02 
512	 7.10602092449441E-02 
513	 7.25883048681015E-02 
514	 7.41472442019264E-02 
515	 7.58156456620106E-02 
516	 7.75965597217238E-02 
517	 7.94409699016294E-02 
518	 8.12381015663874E-02 
519	 8.30739924047385E-02 
520	 8.48718144759544E-02 
521	 8.65312528110378E-02 
522	 8.81622390442562E-02 
523	 8.98379603112469E-02 
524	 9.14769898471299E-02 
525	 9.28213194062417E-02 
526	 9.43917371054895E-02 
527	 9.59710905522943E-02 
528	 9.72871325924839E-02 
529	 9.84309464482566E-02 
530	 9.95508337460984E-02 
531	 0.100605143678698 
532	 0.101471036036942 
533	 0.102330249068758 
534	 0.103187049278191 
535	 0.103991292337136 
536	 0.104652396685866 
537	 0.105159299045966 
538	 0.105586999529942 
539	 0.106027084927943 
540	 0.106502286678997 
541	 0.106967572898737 
542	 0.107353522456888 
543	 0.107594386180251 
544	 0.107958257708696 
545	 0.108371566174259 
546	 0.108745282725602 
547	 0.109093339712126 
548	 0.109430902858906 
549	 0.109803856572199 
550	 0.11022287294893 
551	 0.110408701287379 
552	 0.110588062182954 
553	 0.110756701087149 
554	 0.110593743521174 
555	 0.110474376724325 
556	 0.110347342180267 
557	 0.110109028000333 
558	 0.109869649345796 
559	 0.109437624574091 
560	 0.108834506627124 
561	 0.108228764529996 
562	 0.107723559791919 
563	 0.107170577534177 
564	 0.10652587738176 
565	 0.1060092564115 
566	 0.105316731775576 
567	 0.104567578565739 
568	 0.103931787592364 
569	 0.103105690070459 
570	 0.102168883216961 
571	 0.101211151925004 
572	 0.100304835509199 
573	 9.93259187120558E-02 
574	 9.84947646993256E-02 
575	 9.78729310705394E-02 
576	 9.69689441519271E-02 
577	 9.61874339116533E-02 
578	 9.55507244168221E-02 
579	 9.49232617004827E-02 
580	 9.44801414131235E-02 
581	 9.39800913713835E-02 
582	 9.33706936996737E-02 
583	 9.28901596735174E-02 
584	 9.24312253456373E-02 
585	 9.20630421978635E-02 
586	 9.18271268497609E-02 
587	 9.14922539395568E-02 
588	 0.091269987391718 
589	 9.10849623066626E-02 
590	 9.06809090078909E-02 
591	 9.03184643390142E-02 
592	 9.00770323893266E-02 
593	 8.99072287228545E-02 
594	 8.95896476950634E-02 
595	 8.94308102297313E-02 
596	 0.089381423939076 
597	 8.92819753430581E-02 
598	 8.90940276635847E-02 
599	 8.89473483935235E-02 
600	 8.88827677090477E-02 
601	 8.88373948064694E-02 
602	 8.86359799583744E-02 
603	 8.84051609985173E-02 
604	 8.82097678689834E-02 
605	 8.77642683782175E-02 
606	 0.087298738462669 
607	 8.68711390378409E-02 
608	 8.64476675358159E-02 
609	 0.085977588281613 
610	 0.085382261917688 
611	 8.47355913889248E-02 
612	 8.43152436347413E-02 
613	 8.37659897064597E-02 
614	 8.31694387623218E-02 
615	 8.26633685494612E-02 
616	 8.21138288747009E-02 
617	 8.16111953947591E-02 
618	 8.11681017895651E-02 
619	 8.07384148926114E-02 
620	 8.03928725827099E-02 
621	 8.01196679208473E-02 
622	 7.99010841224906E-02 
623	 7.97370094142685E-02 
624	 7.95192920275073E-02 
625	 0.079297794333631 
626	 7.91741728369557E-02 
627	 0.079174413894039 
628	 7.91701715115539E-02 
629	 0.079147887466823 
630	 7.92023160037865E-02 
631	 7.91269142848087E-02 
632	 7.89686799401562E-02 
633	 7.88191230208418E-02 
634	 7.87542027543133E-02 
635	 7.86144558386491E-02 
636	 7.83863881104823E-02 
637	 7.81096925288346E-02 
638	 0.077667433502962 
639	 7.72080527413436E-02 
640	 7.67273868958759E-02 
641	 7.60192933675666E-02 
642	 7.54924173872315E-02 
643	 0.074955268905264 
644	 7.42127738564674E-02 
645	 7.35927682461657E-02 
646	 7.29530921865387E-02 
647	 7.22914253143303E-02 
648	 7.16963375703355E-02 
649	 7.12585815478556E-02 
650	 7.08040489419755E-02 
651	 7.03074095005018E-02 
652	 7.00046645032125E-02 
653	 6.98070731288973E-02 
654	 6.95309477766624E-02 
655	 6.90637882211417E-02 
656	 6.88233510823775E-02 
657	 6.84022016636005E-02 
658	 6.77631932421532E-02 
659	 0.067114212854161 
660	 6.65837646002369E-02 
661	 6.60299024924781E-02 
662	 6.53824646390689E-02 
663	 0.0647299692385 
664	 6.42242363291863E-02 
665	 6.37953612916805E-02 
666	 6.33341209477586E-02 
667	 6.30255896513393E-02 
668	 6.27208422476475E-02 
669	 6.24645385899668E-02 
670	 6.24588338514017E-02 
671	 6.23308782059952E-02 
672	 6.22693617808146E-02 
673	 0.062413585504402 
674	 6.25459324814302E-02 
675	 6.27551582370859E-02 
676	 6.30045578773605E-02 
677	 6.32532869533963E-02 
678	 0.063712544817928 
679	 6.41552971677811E-02 
680	 6.46019974637298E-02 
681	 6.53362132583465E-02 
682	 6.59873372685348E-02 
683	 6.68193373137451E-02 
684	 6.80223000317968E-02 
685	 6.92319427396957E-02 
686	 7.08760922807498E-02 
687	 7.30199024959149E-02 
688	 7.53250933594998E-02 
689	 7.76234558792214E-02 
690	 0.0801998233914 
691	 0.083248303266272 
692	 8.66211070630247E-02 
693	 9.05127078217328E-02 
694	 9.48619478396785E-02 
695	 9.95197931623229E-02 
696	 0.104388091076499 
697	 0.109473794470585 
698	 0.114708165805502 
699	 0.119975952812634 
700	 0.125328686202333 
701	 0.130786343765887 
702	 0.136328981592342 
703	 0.141869100697295 
704	 0.147286285325303 
705	 0.152559897304669 
706	 0.157760727154163 
707	 0.162953176104819 
708	 0.168100161890006 
709	 0.173205323526712 
710	 0.178257231515282 
711	 0.18326396656406 
712	 0.18825966588648 
713	 0.193221624936557 
714	 0.198067638305084 
715	 0.202701845320562 
716	 0.207215458170774 
717	 0.211815093351133 
718	 0.21642707762365 
719	 0.221166319873049 
720	 0.225842636853808 
721	 0.230225724463974 
722	 0.234284002317097 
723	 0.238139744387788 
724	 0.241990202885929 
725	 0.245635694288032 
726	 0.249361242570524 
727	 0.252896279789893 
728	 0.256142195980822 
729	 0.25936182351073 
730	 0.262406734165202 
731	 0.265275607679182 
732	 0.268028858133699 
733	 0.27062254405857 
734	 0.273045773876538 
735	 0.27530207761525 
736	 0.277345585386608 
737	 0.279194215668964 
738	 0.281058964761048 
739	 0.282999486728649 
740	 0.284625707079291 
741	 0.286032768832465 
742	 0.287270017225106 
743	 0.288376660438721 
744	 0.289408774483845 
745	 0.290321613204263 
746	 0.291118820327809 
747	 0.291841642789347 
748	 0.292494797751942 
749	 0.293123340081643 
750	 0.293694313605084 
751	 0.29403590739458 
752	 0.294411068722779 
753	 0.294772539891683 
754	 0.295034869821999 
755	 0.295295471526067 
756	 0.295639031294295 
757	 0.296044163722197 
758	 0.296473090856297 
759	 0.297299583951732 
760	 0.298621515769513 
761	 0.300169141193116 
762	 0.300635236499732 
763	 0.29983734800471 
764	 0.298809762333486 
765	 0.298178509259933 
766	 0.297656623592625 
767	 0.297283077590995 
768	 0.297074013048435 
769	 0.297016985905833 
770	 0.296901092337559 
771	 0.296935575352016 
772	 0.297049591779553 
773	 0.296960332805269 
774	 0.297036601166193 
775	 0.297101368054925 
776	 0.297060044775076 
777	 0.297095500694433 
778	 0.297164298819566 
779	 0.297316931179716 
780	 0.297552407160417 
781	 0.297637364447827 
782	 0.297658348876403 
783	 0.297716029114219 
784	 0.297880249571671 
785	 0.297968523868401 
786	 0.298041470367629 
787	 0.298129347463998 
788	 0.298205371645999 
789	 0.298231396307459 
790	 0.298298690382815 
791	 0.298463834835635 
792	 0.298656748807739 
793	 0.298970734609491 
794	 0.299246453645259 
795	 0.299331291736406 
796	 0.299423903857055 
797	 0.299541823835466 
798	 0.29973966261098 
799	 0.300046866643811 
800	 0.300182362532099 
801	 0.300226557735263 
802	 0.300294952943911 
803	 0.300488654631534 
804	 0.300749345444233 
805	 0.300959783230664 
806	 0.30109195005974 
807	 0.301327761290085 
808	 0.30151032314529 
809	 0.301541531075457 
810	 0.301449376548578 
811	 0.301697437826065 
812	 0.301543628549678 
813	 0.301070586561921 
814	 0.300839586906153 
815	 0.300806676142719 
816	 0.300836734356236 
817	 0.300991228182564 
818	 0.301509956956578 
819	 0.301930026134631 
820	 0.302235276983277 
821	 0.302404505552957 
822	 0.302252318531153 
823	 0.302322699271112 
824	 0.302701385851936 
825	 0.303237783082067 
826	 0.3036499432963 
827	 0.303796376073559 
828	 0.30381783597118 
829	 0.303952493135653 
830	 0.304202590487012 
831	 0.304399280473662 
832	 0.304539362437334 
833	 0.304750942578174 
834	 0.305074187298943 
835	 0.305412805118216 
836	 0.305706026228579 
837	 0.305959774357177 
838	 0.306100605863728 
839	 0.306394785183554 
840	 0.306847352583738 
841	 0.306830120140621 
842	 0.306939911087233 
843	 0.307215314746687 
844	 0.307509093603098 
845	 0.307655617857663 
846	 0.307773264622899 
847	 0.307953175913165 
848	 0.308201180408695 
849	 0.308148974979413 
850	 0.308317269024107 
851	 0.308676347602836 
852	 0.308776334859626 
853	 0.308668173244786 
854	 0.308598282129556 
855	 0.308825929164487 
856	 0.309502984834032 
857	 0.309879803948995 
858	 0.309865857658815 
859	 0.309724066894743 
860	 0.310030258791359 
861	 0.31026109326335 
862	 0.310308597531871 
863	 0.310261476294606 
864	 0.310427473996436 
865	 0.310598432276516 
866	 0.310722479233254 
867	 0.310855601897517 
868	 0.31126290333545 
869	 0.311490454362354 
870	 0.311571215387528 
871	 0.311733199726469 
872	 0.311830308681934 
873	 0.311942958512405 
874	 0.312025063136016 
875	 0.311999546028958 
876	 0.312302479641075 
877	 0.312563419212102 
878	 0.31263414193988 
879	 0.312677665115967 
880	 0.312720334295814 
881	 0.313091546228431 
882	 0.313562067887983 
883	 0.313199938599874 
884	 0.313153487070398 
885	 0.313390955415975 
886	 0.313613094970829 
887	 0.31350943855547 
888	 0.313702513865608 
889	 0.313887484718676 
890	 0.313801535377784 
891	 0.313916338838122 
892	 0.313981175438767 
893	 0.313890164338141 
894	 0.313612430572131 
895	 0.313206318713417 
896	 0.312767966590935 
897	 0.312588668021285 
898	 0.312808987325825 
899	 0.312528404911762 
900	 0.312935881068026 
901	 0.31367639270732 
902	 0.313816321618725 
903	 0.31421287484906 
904	 0.31461871526055 
905	 0.31471079087941 
906	 0.314259025111313 
907	 0.313619997294795 
908	 0.313301553000644 
909	 0.313566101248754 
910	 0.314209459883121 
911	 0.313417780936786 
912	 0.313330625415843 
913	 0.314144925487944 
914	 0.313975511090234 
915	 0.314047478521636 
916	 0.314376270687802 
917	 0.31455779106309 
918	 0.314069657657553 
919	 0.314515535643174 
920	 0.315094043290655 
921	 0.315314100433413 
922	 0.315560264027981 
923	 0.315639886043048 
924	 0.315496129442606 
925	 0.315202427626106 
926	 0.314979501019545 
927	 0.314728828800077 
928	 0.313388428660786 
929	 0.311090872843771 
930	 0.310609767205315 
931	 0.309318090558239 
932	 0.307554924431611 
933	 0.306422266089341 
934	 0.306574969677216 
935	 0.306026069989397 
936	 0.306139115322633 
937	 0.307519457354328 
938	 0.307713330321176 
939	 0.308200393672834 
940	 0.309004749602978 
941	 0.309523493820643 
942	 0.30865576155538 
943	 0.30767047235418 
944	 0.307374115206852 
945	 0.307753349811419 
946	 0.307383162994692 
947	 0.306694307135403 
948	 0.306089614745797 
949	 0.305827779093236 
950	 0.305832390284186 
951	 0.305325732658779 
952	 0.304988415174092 
953	 0.305123857239175 
954	 0.30452464029852 
955	 0.304486286194464 
956	 0.304974417686799 
957	 0.30513480112779 
958	 0.303367753659084 
959	 0.303252932769928 
960	 0.30421744085682 
961	 0.305100699169824 
962	 0.305716559909788 
963	 0.30556310019945 
964	 0.30560366029658 
965	 0.306147415695811 
966	 0.305962259471721 
967	 0.307256466692706 
968	 0.308058088609445 
969	 0.307307155783159 
970	 0.306703627375753 
971	 0.30722720949122 
972	 0.307343433349328 
973	 0.306878100710006 
974	 0.308103116361146 
975	 0.3080629197824 
976	 0.307233458744846 
977	 0.306889586129114 
978	 0.308095631456077 
979	 0.308326706075926 
980	 0.307751658321916 
981	 0.307767879442235 
982	 0.309892268085514 
983	 0.309573217442596 
984	 0.308942894018862 
985	 0.309386245123247 
986	 0.310457154680288 
987	 0.310536012386003 
988	 0.309777262094276 
989	 0.309777097144736 
990	 0.312036609028892 
991	 0.31215620497901 
992	 0.311317523933758 
993	 0.311062528750794 
994	 0.312226214236312 
995	 0.31275313786051 
996	 0.312862881517453 
997	 0.313071198816485 
998	 0.313418488009188 
999	 0.311463313834532 
1000	 0.311931866360687 
1001	 0.306361639816696 
1002	 0.30664785937108 
1003	 0.3069759996029 
1004	 0.307264367846463 
1005	 0.307647308874931 
1006	 0.308283186117869 
1007	 0.308590572039359 
1008	 0.30858851000219 
1009	 0.308811229752108 
1010	 0.30901571565853 
1011	 0.309286722458031 
1012	 0.309622385722146 
1013	 0.310072283028276 
1014	 0.310393836722963 
1015	 0.310695795721288 
1016	 0.31102664140177 
1017	 0.311364408901481 
1018	 0.311626530045075 
1019	 0.311715526749134 
1020	 0.311988169963716 
1021	 0.312345883387185 
1022	 0.31263299537583 
1023	 0.312900867833261 
1024	 0.313386277141855 
1025	 0.313687976671323 
1026	 0.313894758036259 
1027	 0.314473741502334 
1028	 0.314856657555571 
1029	 0.315102719015326 
1030	 0.315569551730369 
1031	 0.315834328532205 
1032	 0.31607643894859 
1033	 0.31634641979088 
1034	 0.316644440677716 
1035	 0.316962914547066 
1036	 0.317245300226818 
1037	 0.31758957249996 
1038	 0.318062366991021 
1039	 0.318423348692782 
1040	 0.318641250454457 
1041	 0.318862831748474 
1042	 0.31906725276927 
1043	 0.319204197237193 
1044	 0.319340063857806 
1045	 0.319485094523787 
1046	 0.319567651510816 
1047	 0.319836935196003 
1048	 0.320197845498027 
1049	 0.320424478308913 
1050	 0.320640053571201 
1051	 0.320854983961323 
1052	 0.320905820227887 
1053	 0.320935857365736 
1054	 0.321154000902924 
1055	 0.321322594412291 
1056	 0.321479269164576 
1057	 0.321704456659081 
1058	 0.321840332139326 
1059	 0.321844452679533 
1060	 0.321906566018606 
1061	 0.322071757323406 
1062	 0.322095604148971 
1063	 0.322142624542491 
1064	 0.32232213393551 
1065	 0.322369128752025 
1066	 0.322258304807368 
1067	 0.322221095558154 
1068	 0.3223418678209 
1069	 0.322326799672348 
1070	 0.322320204118767 
1071	 0.322366777582455 
1072	 0.322357187586597 
1073	 0.322366755728821 
1074	 0.322335431171557 
1075	 0.32225884557401 
1076	 0.322263171887026 
1077	 0.322148262649662 
1078	 0.321974242876134 
1079	 0.321861900970573 
1080	 0.321638010301851 
1081	 0.321502978304323 
1082	 0.321377257438149 
1083	 0.321363581928885 
1084	 0.321330091547683 
1085	 0.321296986562454 
1086	 0.321231298238836 
1087	 0.32110345366261 
1088	 0.320932776000801 
1089	 0.320840609471841 
1090	 0.320774904826453 
1091	 0.320565866468919 
1092	 0.320340184655665 
1093	 0.320170860994194 
1094	 0.319969989973557 
1095	 0.31974548524059 
1096	 0.319490824488318 
1097	 0.319199396111744 
1098	 0.31895531241372 
1099	 0.318693827993362 
1100	 0.318423308101261 
1101	 0.318200490977202 
1102	 0.318059447613085 
1103	 0.317703666754307 
1104	 0.317365003644063 
1105	 0.317122240173692 
1106	 0.316801449079426 
1107	 0.316566872950439 
1108	 0.316283697405677 
1109	 0.315864303532447 
1110	 0.315318430309873 
1111	 0.314690848084935 
1112	 0.313755253361318 
1113	 0.313058493285145 
1114	 0.312422681940117 
1115	 0.311633738136453 
1116	 0.310852982950998 
1117	 0.310084059770784 
1118	 0.308917754963404 
1119	 0.30777720545851 
1120	 0.306970683197161 
1121	 0.306169000395009 
1122	 0.305453963595807 
1123	 0.305143344196968 
1124	 0.304752541215959 
1125	 0.304163592401026 
1126	 0.303874291989542 
1127	 0.303834038984519 
1128	 0.303639017499604 
1129	 0.303663156070199 
1130	 0.303507447890031 
1131	 0.303249954742732 
1132	 0.302927959608384 
1133	 0.302643187912505 
1134	 0.302067683156606 
1135	 0.301457913534836 
1136	 0.300883290926728 
1137	 0.30020284525155 
1138	 0.299556027150484 
1139	 0.298735632321809 
1140	 0.297810442345817 
1141	 0.296854798545706 
1142	 0.295749380768593 
1143	 0.294730945108972 
1144	 0.293691577286373 
1145	 0.292777404942952 
1146	 0.291899412289278 
1147	 0.291082178251499 
1148	 0.290396891525869 
1149	 0.289685739409823 
1150	 0.28888685129334 
1151	 0.288364368436238 
1152	 0.287972981256001 
1153	 0.287760656787913 
1154	 0.287564532931304 
1155	 0.287442498755632 
1156	 0.287442784165495 
1157	 0.28744410701821 
1158	 0.287470270353369 
1159	 0.287594621172322 
1160	 0.2875989961541 
1161	 0.287486093770917 
1162	 0.28746094946237 
1163	 0.287447897903081 
1164	 0.287411437176732 
1165	 0.287389153488731 
1166	 0.287348422576596 
1167	 0.287286589964469 
1168	 0.287245360048101 
1169	 0.287223746549586 
1170	 0.287180798049734 
1171	 0.287044003442648 
1172	 0.287037788266565 
1173	 0.287051784682611 
1174	 0.286941375261119 
1175	 0.286973727517364 
1176	 0.286973015559365 
1177	 0.286880318241002 
1178	 0.286707370571974 
1179	 0.286589686833103 
1180	 0.28641919785086 
1181	 0.286278030764246 
1182	 0.28619513186594 
1183	 0.286075136216373 
1184	 0.285873725784832 
1185	 0.285753423937753 
1186	 0.285694448623533 
1187	 0.285611163574417 
1188	 0.285504549352633 
1189	 0.28550656609743 
1190	 0.285542128995935 
1191	 0.285508305588615 
1192	 0.285453592534781 
1193	 0.285452132461554 
1194	 0.285367401062943 
1195	 0.285125133942501 
1196	 0.285061058241136 
1197	 0.28506838633848 
1198	 0.285053993866674 
1199	 0.285085000051647 
1200	 0.285148039179876 
1201	 0.285225510553245 
1202	 0.285304902127375 
1203	 0.285439739644133 
1204	 0.285551296729645 
1205	 0.285606477154789 
1206	 0.285727704220556 
1207	 0.285926368417858 
1208	 0.286066473155524 
1209	 0.286211386467725 
1210	 0.286307367359059 
1211	 0.286439431171648 
1212	 0.286684083313923 
1213	 0.286929064732585 
1214	 0.287267019690309 
1215	 0.287566293831371 
1216	 0.287887076988146 
1217	 0.288138349559604 
1218	 0.288355105383748 
1219	 0.288631565025762 
1220	 0.28882355731263 
1221	 0.289148726765119 
1222	 0.289666312605789 
1223	 0.290032560495364 
1224	 0.290372880490478 
1225	 0.290713901592139 
1226	 0.290960350805336 
1227	 0.291270871573711 
1228	 0.291670388093324 
1229	 0.292009112117791 
1230	 0.292310913702789 
1231	 0.292525208741745 
1232	 0.292762790541447 
1233	 0.292923667966401 
1234	 0.293166742589979 
1235	 0.293446672762985 
1236	 0.293733013850757 
1237	 0.294036044753402 
1238	 0.294338034657885 
1239	 0.294701345853537 
1240	 0.294969202566548 
1241	 0.295196915156531 
1242	 0.29541369806408 
1243	 0.295538755834942 
1244	 0.295738545561693 
1245	 0.295982309442719 
1246	 0.296199781026035 
1247	 0.296428057986545 
1248	 0.296662292320193 
1249	 0.296897326353167 
1250	 0.297114036863009 
1251	 0.297351120313547 
1252	 0.297557436356515 
1253	 0.297756767649035 
1254	 0.297900368900982 
1255	 0.298121388854054 
1256	 0.298401545890955 
1257	 0.298603572791918 
1258	 0.298805075926545 
1259	 0.29900516411841 
1260	 0.29914258638757 
1261	 0.299324351690825 
1262	 0.299571390209125 
1263	 0.299753489148139 
1264	 0.299925381219412 
1265	 0.300048061534125 
1266	 0.300097196407792 
1267	 0.300174636500452 
1268	 0.300238594117572 
1269	 0.300281319902667 
1270	 0.300346384720536 
1271	 0.300366760825566 
1272	 0.300354345564282 
1273	 0.300286775283932 
1274	 0.300242801980068 
1275	 0.300176250939306 
1276	 0.300130354702533 
1277	 0.300130895852756 
1278	 0.300012248116226 
1279	 0.299842454982064 
1280	 0.299681199557162 
1281	 0.299426885040809 
1282	 0.299243193216923 
1283	 0.299132043396725 
1284	 0.298947176284978 
1285	 0.298775550329549 
1286	 0.298517454261693 
1287	 0.298132032134849 
1288	 0.297848550000431 
1289	 0.297629373211294 
1290	 0.297293354992687 
1291	 0.296937303926251 
1292	 0.29658376705043 
1293	 0.296090928646176 
1294	 0.29566535501275 
1295	 0.295403500918098 
1296	 0.294994783534967 
1297	 0.294517213517922 
1298	 0.293966108381881 
1299	 0.293423885976851 
1300	 0.292770156624599 
1301	 0.292209247761138 
1302	 0.291721963228137 
1303	 0.291133514781871 
1304	 0.290495926913356 
1305	 0.289877265269672 
1306	 0.289181163806498 
1307	 0.288578029102852 
1308	 0.288141340498364 
1309	 0.287473227050862 
1310	 0.286684448998886 
1311	 0.285951574488872 
1312	 0.285106885191037 
1313	 0.284277070234001 
1314	 0.283536509550365 
1315	 0.282730967344223 
1316	 0.281801464854882 
1317	 0.280941140701827 
1318	 0.280155259855739 
1319	 0.279309321289607 
1320	 0.278521498561848 
1321	 0.277555127935202 
1322	 0.276610109375061 
1323	 0.275600199443379 
1324	 0.274545959905975 
1325	 0.273390935836339 
1326	 0.27230097524401 
1327	 0.271160535736184 
1328	 0.270035497147885 
1329	 0.268967722956638 
1330	 0.267813409613303 
1331	 0.266551117962745 
1332	 0.265408943269017 
1333	 0.264356647920688 
1334	 0.263226982400951 
1335	 0.262120016351884 
1336	 0.261029876209304 
1337	 0.259750192665356 
1338	 0.258713182955437 
1339	 0.257906462470782 
1340	 0.256933642200302 
1341	 0.255925702456756 
1342	 0.254889874376375 
1343	 0.253440269079351 
1344	 0.25219783274568 
1345	 0.251137397763759 
1346	 0.249768764541524 
1347	 0.248312504346621 
1348	 0.246877146855327 
1349	 0.245373130468276 
1350	 0.243594707794291 
1351	 0.241822792153729 
1352	 0.240741010277828 
1353	 0.238610927079425 
1354	 0.235883771144489 
1355	 0.232703324499217 
1356	 0.229465953979913 
1357	 0.224928808826274 
1358	 0.222211084569638 
1359	 0.218163629106422 
1360	 0.22004210310536 
1361	 0.218535675891169 
1362	 0.227237418458549 
1363	 0.22702362806065 
1364	 0.213391559100746 
1365	 0.203279911895472 
1366	 0.18795483250271 
1367	 0.183606341141186 
1368	 0.18965800419973 
1369	 0.190219728271297 
1370	 0.195930205321767 
1371	 0.19461294988267 
1372	 0.187849787547567 
1373	 0.18477383015161 
1374	 0.183560264231853 
1375	 0.176469150993129 
1376	 0.179911069443479 
1377	 0.177222208979391 
1378	 0.176526399006043 
1379	 0.177394669462166 
1380	 0.176482427212003 
1381	 0.174604610433965 
1382	 0.171609545504452 
1383	 0.168562702185856 
1384	 0.162863991458409 
1385	 0.153860447252536 
1386	 0.150451270596714 
1387	 0.147696007886596 
1388	 0.147327195318321 
1389	 0.151900418801642 
1390	 0.150659830959332 
1391	 0.147605552881397 
1392	 0.145210393191454 
1393	 0.140011201284841 
1394	 0.13796508142447 
1395	 0.138132750823077 
1396	 0.137398722019465 
1397	 0.138116544370274 
1398	 0.136646012721321 
1399	 0.134339923055903 
1400	 0.131382645886727 
1401	 0.125820406006009 
1402	 0.123182756988616 
1403	 0.121475177525659 
1404	 0.120395913065394 
1405	 0.12249673089638 
1406	 0.121377666105925 
1407	 0.120189675859672 
1408	 0.11883670969455 
1409	 0.115524103277557 
1410	 0.114846444195155 
1411	 0.114240435688639 
1412	 0.114097672704386 
1413	 0.113871983004021 
1414	 0.114285244089393 
1415	 0.113875726729396 
1416	 0.113122122877449 
1417	 0.112636947341285 
1418	 0.112028891775707 
1419	 0.111677381184157 
1420	 0.111523952553477 
1421	 0.111226341926537 
1422	 0.111059686602246 
1423	 0.11061472164288 
1424	 0.109849645964093 
1425	 0.109459946964549 
1426	 0.109026181429604 
1427	 0.108796288612728 
1428	 0.108772271257065 
1429	 0.108820698766781 
1430	 0.109314819054089 
1431	 0.109110673774638 
1432	 0.108580808187088 
1433	 0.10816053252551 
1434	 0.107034330051317 
1435	 0.106589660883846 
1436	 0.106743762665909 
1437	 0.106738720066303 
1438	 0.107042914649021 
1439	 0.107063382260484 
1440	 0.106801724587763 
1441	 0.106715928851453 
1442	 0.106641161934046 
1443	 0.106467802096475 
1444	 0.106620968954262 
1445	 0.106851274966738 
1446	 0.106974236856782 
1447	 0.107168000916042 
1448	 0.107378672564061 
1449	 0.107517026562975 
1450	 0.107821004486859 
1451	 0.10834187791293 
1452	 0.108479081005911 
1453	 0.108496812411526 
1454	 0.108606257188042 
1455	 0.108549015751202 
1456	 0.108650446259264 
1457	 0.108938951427887 
1458	 0.109070318307839 
1459	 0.109130352135172 
1460	 0.109251200865158 
1461	 0.10940313350975 
1462	 0.109525826573171 
1463	 0.109654082791557 
1464	 0.109754736185886 
1465	 0.109724651543473 
1466	 0.109908840218028 
1467	 0.11026478847929 
1468	 0.110551419439921 
1469	 0.110864931007692 
1470	 0.111273958547868 
1471	 0.11161290367896 
1472	 0.112058755452416 
1473	 0.112650347411512 
1474	 0.113232029632724 
1475	 0.113784184802379 
1476	 0.114392367596034 
1477	 0.115050044415593 
1478	 0.115713651292391 
1479	 0.116387269030309 
1480	 0.117058015472054 
1481	 0.117711284142904 
1482	 0.118415289783102 
1483	 0.119124134071789 
1484	 0.119846829441383 
1485	 0.120616937598962 
1486	 0.121346030114572 
1487	 0.12198306012313 
1488	 0.122732286557749 
1489	 0.123518520598802 
1490	 0.124174563262307 
1491	 0.124837668407658 
1492	 0.125584348533892 
1493	 0.126236940944279 
1494	 0.126910312966312 
1495	 0.127600917307057 
1496	 0.128339683828305 
1497	 0.129009401594455 
1498	 0.129648127615868 
1499	 0.130369618378476 
1500	 0.131117279727508 
1501	 0.131847245330954 
1502	 0.132668024981554 
1503	 0.133384790243128 
1504	 0.134010796928484 
1505	 0.13470894647085 
1506	 0.13536802817505 
1507	 0.136135479703014 
1508	 0.137020426243916 
1509	 0.137766339503819 
1510	 0.138533239738066 
1511	 0.139224068851553 
1512	 0.13978657518571 
1513	 0.140417252896598 
1514	 0.140997585624891 
1515	 0.141742531604782 
1516	 0.142640651517907 
1517	 0.143384743775821 
1518	 0.144224130828575 
1519	 0.144915007670141 
1520	 0.145349266609708 
1521	 0.145987711700002 
1522	 0.146687678330845 
1523	 0.147398215720011 
1524	 0.148253877941241 
1525	 0.1489552965788 
1526	 0.149557567991418 
1527	 0.150223957223927 
1528	 0.1508384660488 
1529	 0.151495508005952 
1530	 0.152251804719052 
1531	 0.15292853653372 
1532	 0.15354790857036 
1533	 0.15420167603145 
1534	 0.154842655575423 
1535	 0.155494148805967 
1536	 0.15615120284739 
1537	 0.156831739740237 
1538	 0.157552121097812 
1539	 0.158233099015856 
1540	 0.158921110051351 
1541	 0.159594443713646 
1542	 0.1602517013347 
1543	 0.160867037559697 
1544	 0.161460346586762 
1545	 0.16204788898028 
1546	 0.162549758066295 
1547	 0.163125063839662 
1548	 0.16374869846259 
1549	 0.164372459838169 
1550	 0.165063035078503 
1551	 0.16570040401475 
1552	 0.166267054344856 
1553	 0.166907119067511 
1554	 0.167611625897756 
1555	 0.168247413361883 
1556	 0.168934223341746 
1557	 0.169545057724119 
1558	 0.16999126479804 
1559	 0.170517701284747 
1560	 0.171072035230178 
1561	 0.171622179554163 
1562	 0.172212677168648 
1563	 0.172801281773476 
1564	 0.173437962944923 
1565	 0.173973420402732 
1566	 0.174536474890369 
1567	 0.175067180496031 
1568	 0.175575486771103 
1569	 0.175998851037136 
1570	 0.176567401703991 
1571	 0.177181026896887 
1572	 0.17779930932934 
1573	 0.178505328405452 
1574	 0.179111339129494 
1575	 0.179687251615708 
1576	 0.180203165163067 
1577	 0.180644491973636 
1578	 0.181154687319586 
1579	 0.181634349311301 
1580	 0.182133232025647 
1581	 0.18268688799559 
1582	 0.183174740224764 
1583	 0.183640946287152 
1584	 0.184037679403197 
1585	 0.184353845114731 
1586	 0.184810746236886 
1587	 0.185262108776398 
1588	 0.185741994737333 
1589	 0.186359098827001 
1590	 0.186849121977158 
1591	 0.187246248342389 
1592	 0.187718976597732 
1593	 0.188222407352708 
1594	 0.188681340247422 
1595	 0.189116457734713 
1596	 0.189617625821989 
1597	 0.190113622736569 
1598	 0.190663555533567 
1599	 0.191342531556318 
1600	 0.191830246813348 
1601	 0.192261125774371 
1602	 0.192661126326635 
1603	 0.19289503409897 
1604	 0.19334095313742 
1605	 0.193901686368679 
1606	 0.194340339207811 
1607	 0.194843514155354 
1608	 0.195216694502538 
1609	 0.195414224448546 
1610	 0.195761036550589 
1611	 0.196121640958264 
1612	 0.196531371311562 
1613	 0.197003945954642 
1614	 0.197457276175504 
1615	 0.197944751657745 
1616	 0.1983866128474 
1617	 0.198839997250906 
1618	 0.199224363470673 
1619	 0.199565086799926 
1620	 0.199881785782187 
1621	 0.200133171011409 
1622	 0.200434107298385 
1623	 0.200722578732416 
1624	 0.201045455346326 
1625	 0.201405672877583 
1626	 0.201733764417248 
1627	 0.202100192570804 
1628	 0.202372967119266 
1629	 0.202553684819593 
1630	 0.202858929628164 
1631	 0.20317962457893 
1632	 0.203467338901775 
1633	 0.20383516454187 
1634	 0.204129866853425 
1635	 0.204323535620882 
1636	 0.204597514822385 
1637	 0.20495573461474 
1638	 0.205180249748862 
1639	 0.205317195157299 
1640	 0.205558256617608 
1641	 0.205747657985909 
1642	 0.206029734384529 
1643	 0.206468912261136 
1644	 0.206715166525314 
1645	 0.206899917098688 
1646	 0.207112511640919 
1647	 0.207227478585408 
1648	 0.20745442371655 
1649	 0.207753209182242 
1650	 0.208001067678923 
1651	 0.208279527332575 
1652	 0.20848484158278 
1653	 0.208656042575065 
1654	 0.208776187285863 
1655	 0.208844670188417 
1656	 0.208918754923463 
1657	 0.208949250144621 
1658	 0.209102230642251 
1659	 0.20917977936476 
1660	 0.209327353425874 
1661	 0.209381041123456 
1662	 0.209379637151796 
1663	 0.209420905741008 
1664	 0.209412472731877 
1665	 0.20944369335977 
1666	 0.209521838786924 
1667	 0.209493704473738 
1668	 0.209497134760626 
1669	 0.20959161155135 
1670	 0.209604560343788 
1671	 0.209636528862467 
1672	 0.209749261956487 
1673	 0.209775271030207 
1674	 0.209865498401309 
1675	 0.209985265875879 
1676	 0.209985291265968 
1677	 0.209956036407487 
1678	 0.209768405603927 
1679	 0.209625400752725 
1680	 0.20957217235311 
1681	 0.209504162839945 
1682	 0.2095696099374 
1683	 0.209611544581559 
1684	 0.209557933645546 
1685	 0.209407578147945 
1686	 0.20927944125901 
1687	 0.209090695119013 
1688	 0.208866732633497 
1689	 0.208802742586262 
1690	 0.20856316808813 
1691	 0.208403577314961 
1692	 0.208313571690474 
1693	 0.208130635152455 
1694	 0.207951521807377 
1695	 0.207764537130836 
1696	 0.207471191757762 
1697	 0.207242181642764 
1698	 0.207150682147377 
1699	 0.206883691657586 
1700	 0.206575220658569 
1701	 0.206222258988128 
1702	 0.205608099164305 
1703	 0.205194850754745 
1704	 0.204834498668192 
1705	 0.204532925006506 
1706	 0.204464484150509 
1707	 0.204233517128702 
1708	 0.203977466718048 
1709	 0.203645068978956 
1710	 0.203140615090184 
1711	 0.202743925781344 
1712	 0.202366132728037 
1713	 0.201983433239127 
1714	 0.201651092373447 
1715	 0.201284088559694 
1716	 0.200898958714756 
1717	 0.200534050405874 
1718	 0.200085064310093 
1719	 0.199774530559856 
1720	 0.19964667178456 
1721	 0.199306860101712 
1722	 0.198876471336207 
1723	 0.198589227508709 
1724	 0.198224046866167 
1725	 0.197915064398635 
1726	 0.197801756749684 
1727	 0.197601826222546 
1728	 0.197287782470364 
1729	 0.19705222011133 
1730	 0.196891156790532 
1731	 0.196722677131364 
1732	 0.196563576425766 
1733	 0.196360954661414 
1734	 0.196127190246569 
1735	 0.195969981895898 
1736	 0.195890377584779 
1737	 0.19566788933036 
1738	 0.195551948979062 
1739	 0.195392142722414 
1740	 0.194897864382419 
1741	 0.19457407781778 
1742	 0.194084047423302 
1743	 0.193478732186516 
1744	 0.193154430549656 
1745	 0.192919343174306 
1746	 0.192718378977046 
1747	 0.192442598300334 
1748	 0.192230637248835 
1749	 0.191899937630207 
1750	 0.19138437644561 
1751	 0.190928486182151 
1752	 0.19041215896258 
1753	 0.189890623570608 
1754	 0.189542286784375 
1755	 0.189235758051244 
1756	 0.188675800319819 
1757	 0.188287035557998 
1758	 0.187958531080048 
1759	 0.187774677842748 
1760	 0.187554150072266 
1761	 0.187366703639492 
1762	 0.186992296145102 
1763	 0.186459731266787 
1764	 0.186013926291889 
1765	 0.185359304088142 
1766	 0.184965256865876 
1767	 0.18491693726518 
1768	 0.184648052284692 
1769	 0.184479976270457 
1770	 0.184090797014227 
1771	 0.183338819757258 
1772	 0.182885472561126 
1773	 0.182331919768031 
1774	 0.182165285934926 
1775	 0.182264719319604 
1776	 0.182078756262726 
1777	 0.181961264364329 
1778	 0.181563159209405 
1779	 0.180945640030625 
1780	 0.180527430190072 
1781	 0.180273705448223 
1782	 0.179986195473537 
1783	 0.179373252543194 
1784	 0.178839416803456 
1785	 0.178569678564047 
1786	 0.178419795292341 
1787	 0.178731077183429 
1788	 0.179010807073145 
1789	 0.178905198268859 
1790	 0.179086742476088 
1791	 0.179025122376855 
1792	 0.178669199491498 
1793	 0.178681961420176 
1794	 0.178319522703565 
1795	 0.177933916297153 
1796	 0.178560350588439 
1797	 0.178791135628089 
1798	 0.1780833796538 
1799	 0.178000982332112 
1800	 0.176816566566424 
1801	 0.179271113454537 
1802	 0.178760822900595 
1803	 0.179021625585622 
1804	 0.180833732034248 
1805	 0.181655592539588 
1806	 0.183837363253576 
1807	 0.184041767408329 
1808	 0.181683225926918 
1809	 0.179753576760872 
1810	 0.178910652402294 
1811	 0.177226087240126 
1812	 0.176609233137049 
1813	 0.17882737535739 
1814	 0.179090144634568 
1815	 0.178159771048673 
1816	 0.177757972712558 
1817	 0.177704800888131 
1818	 0.17712418079583 
1819	 0.176185341046545 
1820	 0.174245661191363 
1821	 0.173786762356208 
1822	 0.17225746879593 
1823	 0.173755104107907 
1824	 0.182335212817001 
1825	 0.185049177851039 
1826	 0.183232743221736 
1827	 0.186849335758561 
1828	 0.191989346910427 
1829	 0.196884708843341 
1830	 0.196244413610287 
1831	 0.195322079814888 
1832	 0.202118099664704 
1833	 0.19821139575081 
1834	 0.197175089158833 
1835	 0.23366999997897 
1836	 0.25579983708677 
1837	 0.219745725241386 
1838	 0.210690372443443 
1839	 0.213778973897014 
1840	 0.25023386893118 
1841	 0.25700777989866 
1842	 0.262609357867924 
1843	 0.258325485970365 
1844	 0.238462105575094 
1845	 0.227150366716825 
1846	 0.191199288580005 
1847	 0.189655201489219 
1848	 0.203803851970853 
1849	 0.233576074367802 
1850	 0.264765205854983 
1851	 0.36718994096714 
1852	 0.367403698964621 
1853	 0.301186941379635 
1854	 0.277130446903473 
1855	 0.215570892700688 
1856	 0.18863955285385 
1857	 0.191567402907983 
1858	 0.205069633632975 
1859	 0.196519474863967 
1860	 0.176249377486534 
1861	 0.173654150876415 
1862	 0.172733629290913 
1863	 0.170715993547535 
1864	 0.173638504983206 
1865	 0.185483102726112 
1866	 0.214787558849819 
1867	 0.215653300090408 
1868	 0.224568628438649 
1869	 0.227251169752637 
1870	 0.233176134721149 
1871	 0.223479368405877 
1872	 0.216993829463457 
1873	 0.226083312045178 
1874	 0.219655004656571 
1875	 0.201977851729192 
1876	 0.186319244466814 
1877	 0.176316613016245 
1878	 0.175171827321712 
1879	 0.145152549905016 
1880	 0.120188651212202 
1881	 0.113622235769238 
1882	 0.108175115403057 
1883	 0.104935870362838 
1884	 0.115157095960794 
1885	 0.118935768374984 
1886	 0.120930402923779 
1887	 0.115665694754918 
1888	 0.120734171173253 
1889	 0.122651454789043 
1890	 0.119867652889678 
1891	 0.112239798919718 
1892	 0.110752183700819 
1893	 0.107009212232297 
1894	 0.104021501079824 
1895	 0.103052298223991 
1896	 0.105861291357604 
1897	 0.107822571815267 
1898	 0.11803050876595 
1899	 0.137183898899716 
1900	 0.142052315789852 
1901	 0.151907291109746 
1902	 0.150192007873734 
1903	 0.157332990685767 
1904	 0.181630000478536 
1905	 0.190048502638416 
1906	 0.189548519645545 
1907	 0.184167231042935 
1908	 0.169183898762503 
1909	 0.153555027953849 
1910	 0.139919784202666 
1911	 0.112347970992454 
1912	 0.101467462810935 
1913	 9.52537242660549E-02 
1914	 8.51146374805842E-02 
1915	 0.081801372494619 
1916	 7.71439968607736E-02 
1917	 6.81017177584513E-02 
1918	 0.061389949019442 
1919	 6.56417586228124E-02 
1920	 6.36321091933202E-02 
1921	 6.54830282674224E-02 
1922	 6.77646636091017E-02 
1923	 6.74807026696551E-02 
1924	 6.37690246766674E-02 
1925	 6.59041292252426E-02 
1926	 7.14744251772549E-02 
1927	 7.27572790118471E-02 
1928	 7.63883752695177E-02 
1929	 0.075096232309198 
1930	 6.84765696518388E-02 
1931	 6.50729622214816E-02 
1932	 6.61503980480459E-02 
1933	 6.76216234945428E-02 
1934	 6.81729844042883E-02 
1935	 7.07714654282609E-02 
1936	 7.04836852601839E-02 
1937	 6.76939753577954E-02 
1938	 6.64077569541743E-02 
1939	 6.43622080462749E-02 
1940	 6.55429728343672E-02 
1941	 6.52039024500968E-02 
1942	 0.065188171463684 
1943	 6.71696592826027E-02 
1944	 6.70835473939932E-02 
1945	 6.78067855043358E-02 
1946	 6.87226532755915E-02 
1947	 6.86258051906344E-02 
1948	 6.76429202358369E-02 
1949	 0.067202560851148 
1950	 6.58217238113903E-02 
1951	 6.57732856775886E-02 
1952	 6.73672421394128E-02 
1953	 6.73851024708639E-02 
1954	 6.87680187458313E-02 
1955	 7.03825755242054E-02 
1956	 7.05373097992661E-02 
1957	 7.11935150946403E-02 
1958	 7.17027023981658E-02 
1959	 7.19162471616691E-02 
1960	 7.18745771201112E-02 
1961	 7.14743508334547E-02 
1962	 7.22550171889828E-02 
1963	 7.19341520387956E-02 
1964	 7.17171954822446E-02 
1965	 7.20812597828174E-02 
1966	 7.17711100974997E-02 
1967	 0.071969384739574 
1968	 7.26276992126815E-02 
1969	 7.34109456899125E-02 
1970	 7.46884052569711E-02 
1971	 7.53406880083524E-02 
1972	 7.60285598538532E-02 
1973	 0.076548098696731 
1974	 7.63001111036497E-02 
1975	 0.075948247615395 
1976	 0.075718025692208 
1977	 0.075591363367735 
1978	 7.57199253244244E-02 
1979	 7.63326029108723E-02 
1980	 7.69862325273333E-02 
1981	 7.74342447383438E-02 
1982	 0.0779527908284 
1983	 7.85427530925982E-02 
1984	 7.89573254525434E-02 
1985	 7.95479221206718E-02 
1986	 8.02151463093696E-02 
1987	 8.07145795974603E-02 
1988	 8.11430964438321E-02 
1989	 8.09188026268104E-02 
1990	 8.07216265222774E-02 
1991	 8.09950729945697E-02 
1992	 8.11543132169251E-02 
1993	 8.16342124294613E-02 
1994	 8.22472848704497E-02 
1995	 8.28330689845606E-02 
1996	 8.32905445854081E-02 
1997	 8.39324996998178E-02 
1998	 0.084667780010318 
1999	 8.52236780885289E-02 
2000	 8.54546186520196E-02 
2001	 8.61980489599896E-02 
2002	 8.63730173353213E-02 
2003	 8.68069963218306E-02 
2004	 0.087901973109016 
2005	 8.78113713098513E-02 
2006	 8.83641332277992E-02 
2007	 8.92082737300764E-02 
2008	 9.05117324153178E-02 
2009	 9.16710986069803E-02 
2010	 9.25802232849898E-02 
2011	 0.093210863351613 
2012	 9.33568270903425E-02 
2013	 9.25178408497999E-02 
2014	 9.27059298509844E-02 
2015	 9.33947055410603E-02 
2016	 9.34013010521302E-02 
2017	 9.38236791842207E-02 
2018	 9.38244010857499E-02 
2019	 9.40775237614858E-02 
2020	 9.40939911341682E-02 
2021	 9.50345947948235E-02 
2022	 9.52109577057059E-02 
2023	 9.52229790392889E-02 
2024	 9.56330879227861E-02 
2025	 9.56614582232363E-02 
2026	 9.61497169029357E-02 
2027	 9.69171421291792E-02 
2028	 9.73513536522188E-02 
2029	 9.75642332617867E-02 
2030	 9.76731988271146E-02 
2031	 9.75092006452207E-02 
2032	 9.74457983483756E-02 
2033	 9.72254238716518E-02 
2034	 9.73217456136794E-02 
2035	 9.73638542190127E-02 
2036	 9.78954915577429E-02 
2037	 9.90208737240157E-02 
2038	 9.94667008410779E-02 
2039	 9.98848353227756E-02 
2040	 0.100369128415997 
2041	 0.100215889018763 
2042	 0.1001900504311 
2043	 0.100444396519021 
2044	 0.100887055079155 
2045	 0.101222889725791 
2046	 0.101659506232586 
2047	 0.101935328895406 
2048	 0.102094261394622 
2049	 0.101998922625738 
2050	 0.102238360510086 
2051	 0.102840499528995 
2052	 0.103412973406737 
2053	 0.10442426257863 
2054	 0.105388734881942 
2055	 0.106013728298883 
2056	 0.106563682035918 
2057	 0.106443136715585 
2058	 0.106163964418471 
2059	 0.106289719087082 
2060	 0.106550319240209 
2061	 0.106739393354248 
2062	 0.107287526649712 
2063	 0.107620247640168 
2064	 0.107448920503093 
2065	 0.108127464652609 
2066	 0.108739642339501 
2067	 0.109126943070972 
2068	 0.109788854964125 
2069	 0.109699269336529 
2070	 0.109701122527648 
2071	 0.11012367476855 
2072	 0.110242734400491 
2073	 0.110187443076992 
2074	 0.110435891035182 
2075	 0.110560719238798 
2076	 0.110687821060727 
2077	 0.111118243323673 
2078	 0.111285371650189 
2079	 0.111806395314694 
2080	 0.112063137312439 
2081	 0.112138918016822 
2082	 0.112507354114327 
2083	 0.112753938185952 
2084	 0.113185968301818 
2085	 0.113725044093368 
2086	 0.114381694839325 
2087	 0.114794226080117 
2088	 0.115091933148063 
2089	 0.115068893823804 
2090	 0.115182637611813 
2091	 0.115457076877789 
2092	 0.115833297601343 
2093	 0.11646686393014 
2094	 0.117183265274016 
2095	 0.117551416769113 
2096	 0.117725130925013 
2097	 0.117898039773506 
2098	 0.117984035015263 
2099	 0.118093432004472 
2100	 0.11851431584923 
2101	 0.119073237197023 
2102	 0.119506768522981 
2103	 0.120009703515801 
2104	 0.120430832426444 
2105	 0.120373272515185 
2106	 0.120304470047567 
2107	 0.12056971173078 
2108	 0.120898716848977 
2109	 0.12151816748441 
2110	 0.122250848549051 
2111	 0.122613114113501 
2112	 0.122898654931872 
2113	 0.123584334636229 
2114	 0.124055308513736 
2115	 0.124150343916996 
2116	 0.124603861557517 
2117	 0.124956781742533 
2118	 0.125014602785586 
2119	 0.12522111292054 
2120	 0.125730813751301 
2121	 0.125873704679775 
2122	 0.125629602863565 
2123	 0.12566614824714 
2124	 0.125686004105129 
2125	 0.125847538326813 
2126	 0.126568010505286 
2127	 0.126945469743929 
2128	 0.1274523220688 
2129	 0.128137820046845 
2130	 0.128002902998336 
2131	 0.128295449266008 
2132	 0.128709758340127 
2133	 0.128856120504852 
2134	 0.129077273864082 
2135	 0.129474374959781 
2136	 0.129655803647827 
2137	 0.130078407432744 
2138	 0.130460659584101 
2139	 0.130726316951283 
2140	 0.13091499072411 
2141	 0.130671043882254 
2142	 0.130486528008378 
2143	 0.130899401325395 
2144	 0.131464941038777 
2145	 0.131726723124787 
2146	 0.132031842516795 
2147	 0.131930424170358 
2148	 0.13171917125175 
2149	 0.13229950416995 
2150	 0.133056198697207 
2151	 0.133495370985666 
2152	 0.13407338962449 
2153	 0.134353415483179 
2154	 0.134414497045753 
2155	 0.133957723731557 
2156	 0.133443108044641 
2157	 0.133460117664013 
2158	 0.13307599555592 
2159	 0.132906584060395 
2160	 0.133433870414606 
2161	 0.133229271341526 
2162	 0.133622873289916 
2163	 0.134426366371036 
2164	 0.134666381758795 
2165	 0.13535584366962 
2166	 0.135897082214298 
2167	 0.135954219369496 
2168	 0.135969561947949 
2169	 0.135742889761436 
2170	 0.135671856055515 
2171	 0.13545153692334 
2172	 0.13545685584767 
2173	 0.13590798623602 
2174	 0.136376591197705 
2175	 0.136430780034701 
2176	 0.136590273212719 
2177	 0.136359197206708 
2178	 0.136079397349645 
2179	 0.13642823642862 
2180	 0.136299401366862 
2181	 0.136014945115497 
2182	 0.13655428753314 
2183	 0.136772007981571 
2184	 0.136632349517763 
2185	 0.137086494511114 
2186	 0.136972373438143 
2187	 0.13706380947422 
2188	 0.137382377484917 
2189	 0.137682743969266 
2190	 0.138036315346832 
2191	 0.138303712660851 
2192	 0.138234488727151 
2193	 0.13791075919558 
2194	 0.137792676312519 
2195	 0.137940019787753 
2196	 0.137837349768024 
2197	 0.138126296142173 
2198	 0.138772776139494 
2199	 0.138603059577421 
2200	 0.138727946849518 
2201	 0.139298752048946 
2202	 0.139479243091101 
2203	 0.139876837185889 
2204	 0.140028686949943 
2205	 0.139590802233965 
2206	 0.139320914857562 
2207	 0.139099657792645 
2208	 0.138870218317426 
2209	 0.13890381326054 
2210	 0.138995345497898 
2211	 0.139137060307436 
2212	 0.138801441924734 
2213	 0.138805468562369 
2214	 0.139059010070314 
2215	 0.138898013305053 
2216	 0.139472815560237 
2217	 0.139438124589913 
2218	 0.138695868080116 
2219	 0.138616004124698 
2220	 0.137984999803079 
2221	 0.137933218804317 
2222	 0.138397740573538 
2223	 0.138349441543434 
2224	 0.138169472973034 
2225	 0.137764006617672 
2226	 0.138251110478425 
2227	 0.139177869932782 
2228	 0.139729988906479 
2229	 0.140233349794879 
2230	 0.140089192765378 
2231	 0.139876977872529 
2232	 0.139039310076371 
2233	 0.138429249892572 
2234	 0.137640871729305 
2235	 0.137724807895055 
2236	 0.137890215151895 
2237	 0.137637384296722 
2238	 0.138088968395366 
2239	 0.138284846090628 
2240	 0.137598530809382 
2241	 0.137835075982258 
2242	 0.138395263462322 
2243	 0.137907672762452 
2244	 0.137487846612355 
2245	 0.136735386118607 
2246	 0.135862216563646 
2247	 0.135417214039255 
2248	 0.134632749057565 
2249	 0.134330439086631 
2250	 0.134014913592032 
2251	 0.134316063135399 
2252	 0.135506604788874 
2253	 0.135201796147662 
2254	 0.134099930646758 
2255	 0.132815925744244 
2256	 0.131821994076199 
2257	 0.130117138448195 
2258	 0.129949407211342 
2259	 0.130675050315364 
2260	 0.131193711660529 
2261	 0.13137709195248 
2262	 0.131282672864223 
2263	 0.130670228493666 
2264	 0.12952505667722 
2265	 0.12890589876051 
2266	 0.128157594814756 
2267	 0.127389451552735 
2268	 0.12713981040697 
2269	 0.126473163263816 
2270	 0.126248215130708 
2271	 0.12707245307855 
2272	 0.127853883050752 
2273	 0.128377448533991 
2274	 0.128425832610257 
2275	 0.127906304245812 
2276	 0.127359407641454 
2277	 0.126346530573793 
2278	 0.125770623489518 
2279	 0.125480028492282 
2280	 0.124922071662655 
2281	 0.125005703862262 
2282	 0.12485704369442 
2283	 0.124896145500581 
2284	 0.124774851030672 
2285	 0.123929156382246 
2286	 0.123532465442857 
2287	 0.12328690743273 
2288	 0.122937748479445 
2289	 0.122990114235089 
2290	 0.123578200961507 
2291	 0.124331158027213 
2292	 0.124668137240939 
2293	 0.124049864512029 
2294	 0.122772130133966 
2295	 0.120932056751359 
2296	 0.119141608888595 
2297	 0.118120496959282 
2298	 0.118299272428118 
2299	 0.118636598462035 
2300	 0.117483191648895 
2301	 0.115788090444073 
2302	 0.115222822661803 
2303	 0.114940698345297 
2304	 0.116231876690607 
2305	 0.117940002742624 
2306	 0.11681667800272 
2307	 0.116158945477093 
2308	 0.115935361177449 
2309	 0.11582740864725 
2310	 0.117621636000319 
2311	 0.118642105625408 
2312	 0.118768442890907 
2313	 0.118692261936688 
2314	 0.11806943592503 
2315	 0.11711892071663 
2316	 0.11589460288323 
2317	 0.11503614165456 
2318	 0.114431366671792 
2319	 0.114716286451842 
2320	 0.115672928754988 
2321	 0.116151510522035 
2322	 0.116685934800771 
2323	 0.116689252536026 
2324	 0.115954359066925 
2325	 0.116442857331908 
2326	 0.116886408663401 
2327	 0.11605206788605 
2328	 0.115374871697932 
2329	 0.113713607551137 
2330	 0.111448724092109 
2331	 0.110893120086718 
2332	 0.112180615779102 
2333	 0.11247808612481 
2334	 0.11281792335639 
2335	 0.113992089447768 
2336	 0.113462338917319 
2337	 0.113618666682247 
2338	 0.112708216383011 
2339	 0.110845157131363 
2340	 0.110152818851379 
2341	 0.107951104941615 
2342	 0.10641530023715 
2343	 0.10551441248077 
2344	 0.103501964775559 
2345	 0.102665109444868 
2346	 0.104169862729666 
2347	 0.106183197282413 
2348	 0.108814605885988 
2349	 0.112598485869956 
2350	 0.113646371211407 
2351	 0.111591477885901 
2352	 0.110144202660531 
2353	 0.109174888971679 
2354	 0.108336301594984 
2355	 0.108543741336788 
2356	 0.109041183099323 
2357	 0.10920069351708 
2358	 0.108936542308895 
2359	 0.109256773288699 
2360	 0.10744871585044 
2361	 0.103684281205813 
2362	 0.101902621948043 
2363	 0.100438792813964 
2364	 0.100735954884086 
2365	 0.103325541479361 
2366	 0.103772429473305 
2367	 0.103523744684332 
2368	 0.103745384079147 
2369	 0.102800266996395 
2370	 0.102666768506246 
2371	 0.102536071233263 
2372	 0.102321953214282 
2373	 0.102824722388999 
2374	 0.102366322951341 
2375	 0.100900167024495 
2376	 0.100324644039428 
2377	 9.90213732331121E-02 
2378	 9.70572392299317E-02 
2379	 9.52522102520538E-02 
2380	 9.44583513887796E-02 
2381	 9.33567897599583E-02 
2382	 9.47435060607726E-02 
2383	 9.89191283218421E-02 
2384	 0.100552324281787 
2385	 0.102752355537284 
2386	 0.102828598587928 
2387	 9.96047756787117E-02 
2388	 9.85612199467156E-02 
2389	 9.82145428673156E-02 
2390	 9.77889127377376E-02 
2391	 9.87498180022373E-02 
2392	 9.86737138590906E-02 
2393	 9.69824620412334E-02 
2394	 9.57261942045482E-02 
2395	 0.094189241003709 
2396	 9.35908966885031E-02 
2397	 9.41233223442374E-02 
2398	 9.34244033580599E-02 
2399	 0.09222194038616 
2400	 0.090693388488662 
2401	 8.76977589450793E-02 
2402	 8.67676355095393E-02 
2403	 8.85104729575172E-02 
2404	 0.092152283536072 
2405	 9.31714702665733E-02 
2406	 9.14754221621185E-02 
2407	 8.99702276594896E-02 
2408	 8.88360054864738E-02 
2409	 9.06742667813172E-02 
2410	 9.59557750836149E-02 
2411	 9.78832601391694E-02 
2412	 9.50576288875218E-02 
2413	 9.17454380044956E-02 
2414	 9.02006368370973E-02 
2415	 8.86635982363477E-02 
2416	 8.92754405012602E-02 
2417	 0.093183569412515 
2418	 9.42335813391536E-02 
2419	 9.53338588687464E-02 
2420	 9.67539285549702E-02 
2421	 9.19315062704829E-02 
2422	 8.88703722337871E-02 
2423	 9.11174707368181E-02 
2424	 8.79300168681805E-02 
2425	 8.58007511213793E-02 
2426	 8.86074940447728E-02 
2427	 8.63435031167714E-02 
2428	 8.51311191468304E-02 
2429	 8.82804521473704E-02 
2430	 8.94580849890958E-02 
2431	 8.94678448214893E-02 
2432	 8.83287826435294E-02 
2433	 8.41266468404056E-02 
2434	 8.38851335712505E-02 
2435	 8.92508277988126E-02 
2436	 8.91053672663106E-02 
2437	 8.73642205352676E-02 
2438	 0.084597191600552 
2439	 7.26996646952575E-02 
2440	 7.03782041428702E-02 
2441	 7.61294733241246E-02 
2442	 7.96038852929463E-02 
2443	 9.02727416996175E-02 
2444	 9.36819137796286E-02 
2445	 9.07405183248096E-02 
2446	 9.02058897467748E-02 
2447	 8.63409071235166E-02 
2448	 0.082777894596073 
2449	 7.96405636540823E-02 
2450	 7.60134586425523E-02 
2451	 7.02836663199777E-02 
2452	 6.97113829009787E-02 
2453	 0.072707234641166 
2454	 7.56685959805822E-02 
2455	 8.13297661474436E-02 
2456	 0.084150725999755 
2457	 0.088473661121259 
2458	 8.91606343811674E-02 
2459	 8.69069531985848E-02 
2460	 8.46589502784543E-02 
2461	 7.56931340011205E-02 
2462	 7.45936066531579E-02 
2463	 7.90159104626596E-02 
2464	 8.18270577279123E-02 
2465	 9.03697818770902E-02 
2466	 9.54909865872731E-02 
2467	 9.55842301536123E-02 
2468	 9.74756486400658E-02 
2469	 0.100096133153682 
2470	 0.103715311117554 
2471	 0.113452054038626 
2472	 0.114055697187385 
2473	 0.111519286564541 
2474	 0.104976579692629 
2475	 7.78376446740216E-02 
2476	 7.05334634798965E-02 
2477	 7.14203025445942E-02 
2478	 7.51854546428213E-02 
2479	 9.69501391842531E-02 
2480	 0.115093512202316 
2481	 0.138197193642218 
2482	 0.151133254708354 
2483	 0.165015255063458 
2484	 0.17071594326587 
2485	 0.166059109650692 
2486	 0.166806325673222 
2487	 0.119989321292361 
2488	 8.50147021591351E-02 
2489	 3.26845619948636E-02 
2490	 0.013716077290185 
2491	 0.06214749246384 
2492	 9.29305060149042E-02 
2493	 0.134644555119192 
2494	 0.162852311476975 
2495	 0.160371195845641 
2496	 0.165437511524252 
2497	 0.149004555644109 
2498	 0.122181397468373 
2499	 0.097996011920628 
2500	 5.27334036231058E-02 
