Wavelength	ref00028.asd
350	 1.42410375691509E-02 
351	 1.46697605153018E-02 
352	 1.41383159926536E-02 
353	 1.38229119627368E-02 
354	 1.40413267825807E-02 
355	 1.41826922392367E-02 
356	 1.38672154108698E-02 
357	 1.35265285988553E-02 
358	 1.34887107673837E-02 
359	 1.37025522920601E-02 
360	 1.39739466592142E-02 
361	 1.42357649618189E-02 
362	 0.014145625037154 
363	 0.013939108345995 
364	 1.41064872615801E-02 
365	 1.36578241966629E-02 
366	 1.32397634883904E-02 
367	 1.32320968514176E-02 
368	 1.33748993777092E-02 
369	 1.35004028116951E-02 
370	 1.35077487578811E-02 
371	 1.33837785811966E-02 
372	 1.32521612252116E-02 
373	 1.32513377324159E-02 
374	 0.013307727283502 
375	 1.32639809974106E-02 
376	 1.32384163750831E-02 
377	 1.33508778615377E-02 
378	 1.34758171642198E-02 
379	 1.32195249969063E-02 
380	 1.32087171616159E-02 
381	 1.34104711852701E-02 
382	 0.013587242997109 
383	 1.33330818094921E-02 
384	 1.34023228565996E-02 
385	 1.36497415853879E-02 
386	 1.36286353514281E-02 
387	 1.38306646371944E-02 
388	 1.40437223209445E-02 
389	 1.41106852821263E-02 
390	 1.40085478354305E-02 
391	 1.41285151273425E-02 
392	 1.43091896307837E-02 
393	 1.43834201057694E-02 
394	 1.43717392312651E-02 
395	 1.47551471781405E-02 
396	 1.51653596660584E-02 
397	 0.015097619645426 
398	 1.50168039633084E-02 
399	 1.50096242330905E-02 
400	 1.50778074610586E-02 
401	 1.51655074117509E-02 
402	 1.52134403709075E-02 
403	 1.53073774849521E-02 
404	 1.54610582536217E-02 
405	 1.54760037951535E-02 
406	 1.57271663747232E-02 
407	 1.60122406002848E-02 
408	 1.60276911277425E-02 
409	 1.60636386094381E-02 
410	 1.60950925753186E-02 
411	 1.61739608483421E-02 
412	 1.64087142617034E-02 
413	 1.65804692043063E-02 
414	 1.67356723775427E-02 
415	 1.68833336545976E-02 
416	 1.68468643871646E-02 
417	 1.68561925993345E-02 
418	 1.69655001762672E-02 
419	 1.71251973839886E-02 
420	 1.71188164626721E-02 
421	 1.71552432187839E-02 
422	 1.72978091885436E-02 
423	 1.74618480964657E-02 
424	 1.76348734293219E-02 
425	 1.77554542408263E-02 
426	 1.78050826342689E-02 
427	 1.78638457346278E-02 
428	 1.79224157262328E-02 
429	 1.79487187696805E-02 
430	 0.017941698491984 
431	 1.81084796012461E-02 
432	 1.82281811132169E-02 
433	 1.82406462248637E-02 
434	 1.82467683691924E-02 
435	 1.82759821619393E-02 
436	 1.83032872392506E-02 
437	 1.83186171373342E-02 
438	 1.83567775510013E-02 
439	 1.84956386254331E-02 
440	 1.86173381014313E-02 
441	 1.85936245879654E-02 
442	 1.86474015126428E-02 
443	 0.018696059206096 
444	 1.87313898453718E-02 
445	 1.88286131042504E-02 
446	 1.89592811565691E-02 
447	 1.90439994020637E-02 
448	 1.90665745271173E-02 
449	 1.91849856080836E-02 
450	 1.92796947502359E-02 
451	 0.019356017340668 
452	 1.94627532626039E-02 
453	 1.95705677776291E-02 
454	 1.96308454105083E-02 
455	 1.96512914830242E-02 
456	 1.97048176012564E-02 
457	 1.97568313517864E-02 
458	 1.97907669463399E-02 
459	 1.97981857461754E-02 
460	 1.97728592267028E-02 
461	 1.98158597865903E-02 
462	 1.98659309177513E-02 
463	 1.98013989628413E-02 
464	 1.98218817770926E-02 
465	 1.98484580414795E-02 
466	 1.98577223935768E-02 
467	 1.99563219906609E-02 
468	 1.99517218023789E-02 
469	 1.99045414703346E-02 
470	 1.99203118258239E-02 
471	 1.99806697014826E-02 
472	 2.00071612716028E-02 
473	 2.00147807215611E-02 
474	 2.00775586765321E-02 
475	 2.01158015535044E-02 
476	 2.01548997639023E-02 
477	 2.02089584537721E-02 
478	 0.02023861779028 
479	 2.03384224769749E-02 
480	 2.04542060823831E-02 
481	 2.05081311465197E-02 
482	 0.020582844908896 
483	 2.06708075627892E-02 
484	 0.020779448751946 
485	 0.020930573859375 
486	 2.10822177090169E-02 
487	 2.11817244937502E-02 
488	 2.12403543977311E-02 
489	 2.14418525642072E-02 
490	 2.15732056942092E-02 
491	 2.16943688347856E-02 
492	 2.19402091679035E-02 
493	 2.20916489958919E-02 
494	 2.22868547035581E-02 
495	 2.25896608847287E-02 
496	 2.29381184840159E-02 
497	 2.31938025344815E-02 
498	 2.35190887007269E-02 
499	 2.40249776538351E-02 
500	 2.43744358201214E-02 
501	 2.48866325931455E-02 
502	 2.55281031891665E-02 
503	 2.60612851554396E-02 
504	 2.65831844945162E-02 
505	 2.71870189935042E-02 
506	 2.79107932896309E-02 
507	 2.87009114075957E-02 
508	 2.96366011899795E-02 
509	 3.06580558582435E-02 
510	 3.16955292117552E-02 
511	 3.28356203717391E-02 
512	 3.40760866095384E-02 
513	 3.53914099004396E-02 
514	 3.67501315980085E-02 
515	 3.82797759302827E-02 
516	 3.99933528212543E-02 
517	 4.18557172787945E-02 
518	 4.38152371944364E-02 
519	 4.57685447128886E-02 
520	 4.76430217978541E-02 
521	 4.94434778763971E-02 
522	 5.14290525976798E-02 
523	 5.34476966110974E-02 
524	 5.54272596732527E-02 
525	 5.73894823246664E-02 
526	 5.93316788432831E-02 
527	 6.12638438535922E-02 
528	 6.31308540308018E-02 
529	 6.46553768802027E-02 
530	 6.60605633824748E-02 
531	 0.067450980578624 
532	 6.88487676811677E-02 
533	 7.01517672014838E-02 
534	 7.13404964086509E-02 
535	 7.23853299289284E-02 
536	 0.073221762389415 
537	 0.074087840842301 
538	 7.48958057134154E-02 
539	 7.55234139954179E-02 
540	 7.62016420878221E-02 
541	 7.68662254674019E-02 
542	 7.74331424025594E-02 
543	 7.78310457381731E-02 
544	 7.83177253141001E-02 
545	 7.88072397377764E-02 
546	 7.92468293871995E-02 
547	 7.98116851384702E-02 
548	 8.03093515425316E-02 
549	 8.06970244338612E-02 
550	 8.10070518346049E-02 
551	 8.13091166403941E-02 
552	 8.15680138126753E-02 
553	 0.081679927924226 
554	 8.14745217235839E-02 
555	 8.13128770532878E-02 
556	 8.11177598813496E-02 
557	 8.07568665947035E-02 
558	 8.03106893781759E-02 
559	 0.079749554900264 
560	 7.90536766517791E-02 
561	 7.82209059379615E-02 
562	 7.73730423118808E-02 
563	 7.64435901233538E-02 
564	 7.54189657836598E-02 
565	 7.44428931614941E-02 
566	 7.32950070588223E-02 
567	 7.20216255174338E-02 
568	 7.07466430627385E-02 
569	 6.94861505909476E-02 
570	 6.81887030042885E-02 
571	 0.066891561467389 
572	 6.57042577916279E-02 
573	 6.45135931446527E-02 
574	 6.34365833204765E-02 
575	 6.25109007205883E-02 
576	 6.14870946435092E-02 
577	 6.05563023026601E-02 
578	 5.97775155895087E-02 
579	 0.059118536207108 
580	 5.84246084193881E-02 
581	 5.77165882148815E-02 
582	 0.057025069176545 
583	 5.63659603963105E-02 
584	 5.57628502535989E-02 
585	 5.52344627221086E-02 
586	 5.47768123649622E-02 
587	 5.43055095295007E-02 
588	 5.38843180730074E-02 
589	 5.34973398644272E-02 
590	 5.30822991417946E-02 
591	 5.26762374681509E-02 
592	 5.23873415541915E-02 
593	 0.052223935467764 
594	 5.20296225005168E-02 
595	 5.18863655913388E-02 
596	 5.16988374655441E-02 
597	 5.13918390485427E-02 
598	 5.12928369304528E-02 
599	 5.11333837005817E-02 
600	 5.08987781075672E-02 
601	 5.08409215103736E-02 
602	 5.07063041639463E-02 
603	 5.05364005134004E-02 
604	 5.03900607451445E-02 
605	 5.02091144990955E-02 
606	 5.00050592403142E-02 
607	 4.97862872821607E-02 
608	 4.95572223123361E-02 
609	 0.049284268969132 
610	 4.90045359523783E-02 
611	 4.87302975402646E-02 
612	 4.84279718431874E-02 
613	 4.81009552878781E-02 
614	 4.77558445912914E-02 
615	 4.74122237189351E-02 
616	 4.71297127130866E-02 
617	 4.68079280827549E-02 
618	 4.64660488103773E-02 
619	 4.61985250003261E-02 
620	 4.59782038447945E-02 
621	 4.58015238453611E-02 
622	 4.56608204781899E-02 
623	 4.55321632630707E-02 
624	 0.045482703839045 
625	 4.54815864449573E-02 
626	 4.54808233390662E-02 
627	 4.55536113802951E-02 
628	 4.56360205303783E-02 
629	 0.045705443146742 
630	 4.57782445859229E-02 
631	 0.045706232413897 
632	 4.55846479630078E-02 
633	 4.54849321846588E-02 
634	 4.52944049077816E-02 
635	 4.49977277509969E-02 
636	 4.45799801391831E-02 
637	 4.40532858303247E-02 
638	 4.35460269668945E-02 
639	 4.29565322164443E-02 
640	 4.22552440642834E-02 
641	 4.15471800449523E-02 
642	 4.08706701597887E-02 
643	 4.01935615379268E-02 
644	 3.94967149487526E-02 
645	 3.89038011743497E-02 
646	 3.83117948657438E-02 
647	 3.77565813875549E-02 
648	 3.73472710339181E-02 
649	 0.037013142153601 
650	 3.67639826185221E-02 
651	 3.66021104329532E-02 
652	 3.64938698761347E-02 
653	 3.64243524618772E-02 
654	 3.63737137958948E-02 
655	 3.63318678881264E-02 
656	 0.036355304658468 
657	 3.62254339863835E-02 
658	 3.59874259919469E-02 
659	 0.035848245266913 
660	 0.035624289921257 
661	 3.53437541382978E-02 
662	 3.50641440055915E-02 
663	 3.48291313921595E-02 
664	 3.46225420819574E-02 
665	 3.44124252691367E-02 
666	 3.41917964064438E-02 
667	 3.41185925490327E-02 
668	 3.40443886787339E-02 
669	 3.39463256244648E-02 
670	 3.39280513544567E-02 
671	 3.40213869598009E-02 
672	 3.41758767825021E-02 
673	 3.43482854335595E-02 
674	 0.034554019238894 
675	 3.48426644950163E-02 
676	 0.0351848085439 
677	 3.55227962218833E-02 
678	 3.58369719377206E-02 
679	 3.63323479407174E-02 
680	 3.69786651335752E-02 
681	 3.75042003501878E-02 
682	 3.82322336111428E-02 
683	 3.91444743046133E-02 
684	 4.02110492593808E-02 
685	 4.15479157185831E-02 
686	 4.32051222685253E-02 
687	 4.53032628667829E-02 
688	 4.77247805118498E-02 
689	 5.00694857158808E-02 
690	 5.27167883944027E-02 
691	 5.59662723124546E-02 
692	 5.97536808074723E-02 
693	 6.43221008012407E-02 
694	 6.96503048276439E-02 
695	 7.56141244212088E-02 
696	 8.20883137665718E-02 
697	 0.089177725286887 
698	 9.68411975126079E-02 
699	 0.10494703249309 
700	 0.113598960799089 
701	 0.122679725416307 
702	 0.131985891312615 
703	 0.141217471248892 
704	 0.150448535244776 
705	 0.159642249692594 
706	 0.168855848500413 
707	 0.178181824474601 
708	 0.187474069188926 
709	 0.196788208838669 
710	 0.206174748720676 
711	 0.215504071453728 
712	 0.22493759257903 
713	 0.234389473702976 
714	 0.243485611879039 
715	 0.252597706168023 
716	 0.261561410994512 
717	 0.270495114958706 
718	 0.279773945558467 
719	 0.289367782983498 
720	 0.298837601371092 
721	 0.307738621131955 
722	 0.315921042078099 
723	 0.323739024185697 
724	 0.331757641463602 
725	 0.339759517086842 
726	 0.347247920509355 
727	 0.354328830209154 
728	 0.361317539125662 
729	 0.368077311116475 
730	 0.374342386333334 
731	 0.380191616794318 
732	 0.385850317452906 
733	 0.391197915900654 
734	 0.396098868848459 
735	 0.400638630009202 
736	 0.404963269728408 
737	 0.409061391784448 
738	 0.41286569996888 
739	 0.416387984116022 
740	 0.419653051907598 
741	 0.422661379253926 
742	 0.425400227059821 
743	 0.427841058431487 
744	 0.430006659583971 
745	 0.431998032776814 
746	 0.433798613001652 
747	 0.435320715797948 
748	 0.436798343549317 
749	 0.438175061405186 
750	 0.439410646334997 
751	 0.440567068799068 
752	 0.441549078884415 
753	 0.442385174590024 
754	 0.443129102803671 
755	 0.443798693659889 
756	 0.444233001502367 
757	 0.444431255001431 
758	 0.444691569608814 
759	 0.447018579008062 
760	 0.450926797410478 
761	 0.45449986103241 
762	 0.453691132742697 
763	 0.453068108851412 
764	 0.452563699427609 
765	 0.451522052024949 
766	 0.450200721345635 
767	 0.44933103326408 
768	 0.448920252048131 
769	 0.448782815028935 
770	 0.44880493145087 
771	 0.448943461040858 
772	 0.449076450329356 
773	 0.449045819344202 
774	 0.449147506199609 
775	 0.449302556225205 
776	 0.449435193183883 
777	 0.449577816697652 
778	 0.449738770014672 
779	 0.449895753471041 
780	 0.450014765649036 
781	 0.450051337971337 
782	 0.450129549101781 
783	 0.450312339594993 
784	 0.450576975495967 
785	 0.450615175375251 
786	 0.450677800880643 
787	 0.45079746222657 
788	 0.450742907587252 
789	 0.450865548169684 
790	 0.451030645082706 
791	 0.451145243154831 
792	 0.451403122043858 
793	 0.451708528484141 
794	 0.451950926859911 
795	 0.452046649188592 
796	 0.452034118821044 
797	 0.452011466798346 
798	 0.45208884627684 
799	 0.452341589972216 
800	 0.452623282016944 
801	 0.452696454617554 
802	 0.452635321281075 
803	 0.452849894798381 
804	 0.453109850798954 
805	 0.45329803516586 
806	 0.453405032367713 
807	 0.453605459123962 
808	 0.45373247001391 
809	 0.453739537626253 
810	 0.453618750063573 
811	 0.453335278894197 
812	 0.453098918979455 
813	 0.452892807386991 
814	 0.452595491039333 
815	 0.45239813675358 
816	 0.452390901855328 
817	 0.452626473988443 
818	 0.45307281635987 
819	 0.453098335994811 
820	 0.453044108029844 
821	 0.453272171961802 
822	 0.453895880051346 
823	 0.454221599457884 
824	 0.454102767731957 
825	 0.453815758216874 
826	 0.45425856120986 
827	 0.454693500529909 
828	 0.45491700158705 
829	 0.454949689037521 
830	 0.454749003581247 
831	 0.454800059389651 
832	 0.455154478828839 
833	 0.455511984380261 
834	 0.455778420885665 
835	 0.456033948923755 
836	 0.456337845736753 
837	 0.45668297197411 
838	 0.456813250877642 
839	 0.457024526029491 
840	 0.457411592966872 
841	 0.457457942330105 
842	 0.457639790094921 
843	 0.457966968807127 
844	 0.458274932350296 
845	 0.458315315904476 
846	 0.458378626241557 
847	 0.458524478296791 
848	 0.458723621010608 
849	 0.459138193820261 
850	 0.459292808404655 
851	 0.45914575765794 
852	 0.459082552127035 
853	 0.459781707111245 
854	 0.460621789738244 
855	 0.46085686405704 
856	 0.45998979938766 
857	 0.459721042977611 
858	 0.459994490961649 
859	 0.460429983601013 
860	 0.46067760347088 
861	 0.460625443483638 
862	 0.460532628610479 
863	 0.460652137384818 
864	 0.460929075028197 
865	 0.461468004412905 
866	 0.462020083619144 
867	 0.462192730826914 
868	 0.461559430514715 
869	 0.461284130523112 
870	 0.461435156469481 
871	 0.461573656367872 
872	 0.46184943059465 
873	 0.462019146689073 
874	 0.462028366507318 
875	 0.461997727907516 
876	 0.462115019230042 
877	 0.462260604964303 
878	 0.462315700470966 
879	 0.46223844764652 
880	 0.462412937579808 
881	 0.462567509906027 
882	 0.462500514256568 
883	 0.462271331977775 
884	 0.462385997552011 
885	 0.462561062489282 
886	 0.462537671982161 
887	 0.462423368442412 
888	 0.462282998226009 
889	 0.462183432732831 
890	 0.462080716821733 
891	 0.461659516318779 
892	 0.461422318186106 
893	 0.461274819667992 
894	 0.461003084221792 
895	 0.460753697811633 
896	 0.460246285747448 
897	 0.459946187553477 
898	 0.460329224031404 
899	 0.460404680115667 
900	 0.460161055897379 
901	 0.459799302153694 
902	 0.45952534233492 
903	 0.458907321551035 
904	 0.458668002421236 
905	 0.458900954741259 
906	 0.459267369434694 
907	 0.459792782932336 
908	 0.459788982865785 
909	 0.459247123826595 
910	 0.458747656462732 
911	 0.458041765572229 
912	 0.457822091760238 
913	 0.458134054624857 
914	 0.458366471325196 
915	 0.458857251159455 
916	 0.458932688579362 
917	 0.458489737140881 
918	 0.458172475379663 
919	 0.457999826154895 
920	 0.457681335071675 
921	 0.457441562635009 
922	 0.45806780426499 
923	 0.457642093942303 
924	 0.45679064601889 
925	 0.456033833490865 
926	 0.454968796837473 
927	 0.453347269237096 
928	 0.451810059045041 
929	 0.450955882313856 
930	 0.450851058842148 
931	 0.450184467267663 
932	 0.44888103152686 
933	 0.447317129417393 
934	 0.445909369211769 
935	 0.443678500421981 
936	 0.441668414020738 
937	 0.440393178764172 
938	 0.438389478966422 
939	 0.437674587190816 
940	 0.437202633405586 
941	 0.43642908214137 
942	 0.437013141420666 
943	 0.438152145993249 
944	 0.438093785285468 
945	 0.436166005414472 
946	 0.434529787879597 
947	 0.433340179897445 
948	 0.432012610520128 
949	 0.430423197604841 
950	 0.429844020697532 
951	 0.429463911168949 
952	 0.428351039849806 
953	 0.426470860028729 
954	 0.425528899414023 
955	 0.424715951502134 
956	 0.424249040159424 
957	 0.423993665248548 
958	 0.422781053276526 
959	 0.420995836085606 
960	 0.420619332669909 
961	 0.422006978788452 
962	 0.422124014376517 
963	 0.421292532448553 
964	 0.420707130760749 
965	 0.421091021650455 
966	 0.421936996269805 
967	 0.421827251888615 
968	 0.421212285709623 
969	 0.420848395059164 
970	 0.421175548681382 
971	 0.421666554948231 
972	 0.422725492196009 
973	 0.423815551156788 
974	 0.423084652634858 
975	 0.422967448050421 
976	 0.423298434204734 
977	 0.423734791530963 
978	 0.424308274944628 
979	 0.424416474302068 
980	 0.423932614556968 
981	 0.423506015859727 
982	 0.424230785055678 
983	 0.424728090663694 
984	 0.424907785425077 
985	 0.424933522382841 
986	 0.425166023430402 
987	 0.427016609838712 
988	 0.427293278008703 
989	 0.426327437992835 
990	 0.427135243356413 
991	 0.428922383850547 
992	 0.429627635602107 
993	 0.428991214721463 
994	 0.428267259494558 
995	 0.429028012940757 
996	 0.430220450165198 
997	 0.430998074977271 
998	 0.431104716190863 
999	 0.431661933425755 
1000	 0.432113591217354 
1001	 0.440233634173375 
1002	 0.440778653407782 
1003	 0.441298698338569 
1004	 0.441779799251896 
1005	 0.44233752451098 
1006	 0.442983984050912 
1007	 0.44349908934208 
1008	 0.443971856816746 
1009	 0.444586188767084 
1010	 0.445263678637192 
1011	 0.445795468317259 
1012	 0.446417777956441 
1013	 0.446887793019804 
1014	 0.447139045169607 
1015	 0.447643450558728 
1016	 0.448337404283064 
1017	 0.448922390973123 
1018	 0.44946496644965 
1019	 0.449971152302192 
1020	 0.450512838480307 
1021	 0.451035457266144 
1022	 0.451567926397721 
1023	 0.452163351108146 
1024	 0.4526888402389 
1025	 0.45317800843856 
1026	 0.453589434369685 
1027	 0.453956497164959 
1028	 0.454456349696412 
1029	 0.454949207763295 
1030	 0.455362449819976 
1031	 0.455848174858305 
1032	 0.456316503981293 
1033	 0.456705786100732 
1034	 0.456978072746386 
1035	 0.45733154137669 
1036	 0.457723099987887 
1037	 0.458040358789606 
1038	 0.458323399909715 
1039	 0.458691854434362 
1040	 0.458935030054984 
1041	 0.45906405864313 
1042	 0.459301931381237 
1043	 0.459577676513946 
1044	 0.459852232892562 
1045	 0.460114192058275 
1046	 0.460417633294159 
1047	 0.460741311920177 
1048	 0.460982243122494 
1049	 0.461225574981795 
1050	 0.461458733941096 
1051	 0.461647593649567 
1052	 0.461792546749336 
1053	 0.461999381512035 
1054	 0.462214575745121 
1055	 0.46250042362088 
1056	 0.462805409206822 
1057	 0.463063620791983 
1058	 0.463398978254284 
1059	 0.463662484073599 
1060	 0.463767165207702 
1061	 0.463912260056467 
1062	 0.464098632761709 
1063	 0.464156118629794 
1064	 0.464212290694754 
1065	 0.464368790378101 
1066	 0.464568072975718 
1067	 0.464746245894115 
1068	 0.46507999122015 
1069	 0.465360511786675 
1070	 0.465427695017374 
1071	 0.465506632858339 
1072	 0.465476156398555 
1073	 0.465465281743838 
1074	 0.465628437221288 
1075	 0.465769636067546 
1076	 0.465792076578251 
1077	 0.465784767530487 
1078	 0.465763592967359 
1079	 0.46557714039808 
1080	 0.465434495658642 
1081	 0.465384483837174 
1082	 0.465408710988363 
1083	 0.465396910818131 
1084	 0.465398255595409 
1085	 0.465364940359958 
1086	 0.46532602485468 
1087	 0.465197722531793 
1088	 0.465025197886384 
1089	 0.464924065258298 
1090	 0.464717937055151 
1091	 0.464466236496844 
1092	 0.464162813100951 
1093	 0.463771235899915 
1094	 0.463425246110363 
1095	 0.463032667209319 
1096	 0.462608326994508 
1097	 0.46223899448075 
1098	 0.461802497296241 
1099	 0.461271573674952 
1100	 0.460707797012213 
1101	 0.460280414658928 
1102	 0.459848561936768 
1103	 0.4593772874499 
1104	 0.458915275325907 
1105	 0.458276008628565 
1106	 0.457528530930385 
1107	 0.456814077661976 
1108	 0.456029190104281 
1109	 0.455238513823523 
1110	 0.4544245390291 
1111	 0.453477450451087 
1112	 0.4523820924528 
1113	 0.451204411829645 
1114	 0.449713187091314 
1115	 0.448346039075393 
1116	 0.446976212887439 
1117	 0.445425128202091 
1118	 0.443950236486584 
1119	 0.442469969986291 
1120	 0.440786111905188 
1121	 0.439225643446749 
1122	 0.437699387395916 
1123	 0.436310897584696 
1124	 0.435147754829103 
1125	 0.433974078718889 
1126	 0.432800613679981 
1127	 0.431870882795815 
1128	 0.430699806338878 
1129	 0.429594525650538 
1130	 0.428196914757249 
1131	 0.426740529890278 
1132	 0.425161342853702 
1133	 0.423442694389362 
1134	 0.421633538129302 
1135	 0.419755847463573 
1136	 0.417774396526925 
1137	 0.41568354186569 
1138	 0.413570327463688 
1139	 0.411335699192067 
1140	 0.408827955492683 
1141	 0.406213148989609 
1142	 0.403531009842233 
1143	 0.400873823005049 
1144	 0.398129165378694 
1145	 0.395515598073043 
1146	 0.392843491010048 
1147	 0.390377116973321 
1148	 0.388092215121761 
1149	 0.385992091706087 
1150	 0.383961634531011 
1151	 0.382375708025821 
1152	 0.381152883961726 
1153	 0.380073465116867 
1154	 0.379303747678153 
1155	 0.378807427048729 
1156	 0.378265083655703 
1157	 0.377797934378164 
1158	 0.377384361535627 
1159	 0.376944358160195 
1160	 0.376635862356471 
1161	 0.376423538974305 
1162	 0.376206154958079 
1163	 0.376071350029987 
1164	 0.375879750102873 
1165	 0.375678101277074 
1166	 0.375447872255158 
1167	 0.375158134635415 
1168	 0.374945279146101 
1169	 0.374763318052144 
1170	 0.374553458160959 
1171	 0.374365016598456 
1172	 0.374158268161716 
1173	 0.373902384681207 
1174	 0.373672945630706 
1175	 0.373485902547485 
1176	 0.373232895470009 
1177	 0.373011394084132 
1178	 0.372824143940317 
1179	 0.372549474263595 
1180	 0.372231284729826 
1181	 0.371947777889515 
1182	 0.371584264946412 
1183	 0.371303519364795 
1184	 0.37110116078521 
1185	 0.370869750318382 
1186	 0.370660659739796 
1187	 0.370441578311374 
1188	 0.370196670790937 
1189	 0.36999023180452 
1190	 0.369811193128302 
1191	 0.369625437280758 
1192	 0.369497737955039 
1193	 0.369392442691404 
1194	 0.369282557045073 
1195	 0.369167021678853 
1196	 0.369091925332544 
1197	 0.369030879776036 
1198	 0.369014869527563 
1199	 0.369023870978789 
1200	 0.369081149128745 
1201	 0.369185323343266 
1202	 0.369289119207498 
1203	 0.369436823911308 
1204	 0.36960490901908 
1205	 0.369775164882527 
1206	 0.369969642956969 
1207	 0.370176511503245 
1208	 0.370421780884023 
1209	 0.370656237723852 
1210	 0.371001500260148 
1211	 0.371371541874946 
1212	 0.371762692948243 
1213	 0.372084164594497 
1214	 0.372377235583964 
1215	 0.372689190653364 
1216	 0.372964338186277 
1217	 0.373258987454147 
1218	 0.373580742830038 
1219	 0.373909897455575 
1220	 0.374223589604652 
1221	 0.374561200546485 
1222	 0.374951850896365 
1223	 0.375299410103181 
1224	 0.375639611959572 
1225	 0.375961688143431 
1226	 0.376230441214119 
1227	 0.376552834347603 
1228	 0.376898259291398 
1229	 0.377230617143513 
1230	 0.37760465349908 
1231	 0.377995666321402 
1232	 0.378330712707817 
1233	 0.378620891172141 
1234	 0.378958885815175 
1235	 0.379290128583974 
1236	 0.379633121185879 
1237	 0.380024515932124 
1238	 0.380371496501505 
1239	 0.380700696324802 
1240	 0.38101493235138 
1241	 0.381335598840963 
1242	 0.38160127045628 
1243	 0.381834985716428 
1244	 0.38204660733831 
1245	 0.382141687630242 
1246	 0.382359034303277 
1247	 0.382635331523163 
1248	 0.382895528189583 
1249	 0.383283415614844 
1250	 0.383561727935668 
1251	 0.383746660952003 
1252	 0.383952467172321 
1253	 0.384110262968039 
1254	 0.384204514080459 
1255	 0.384324876910778 
1256	 0.384428344018119 
1257	 0.384549888580712 
1258	 0.384706897976455 
1259	 0.384784247753582 
1260	 0.384835747564178 
1261	 0.384868045229501 
1262	 0.38480636449046 
1263	 0.384813291835449 
1264	 0.384875270670687 
1265	 0.384881549356339 
1266	 0.384862564446759 
1267	 0.384859598489481 
1268	 0.38488511117182 
1269	 0.384827191894229 
1270	 0.384734171054858 
1271	 0.384637689699016 
1272	 0.38450207828343 
1273	 0.384295125320414 
1274	 0.384134445419823 
1275	 0.384013392041403 
1276	 0.383836020884754 
1277	 0.383640762272413 
1278	 0.383399965405367 
1279	 0.383137119746531 
1280	 0.382835056050349 
1281	 0.382446903081742 
1282	 0.382129103441396 
1283	 0.381859719735571 
1284	 0.381500429109664 
1285	 0.381125362042641 
1286	 0.380736199047658 
1287	 0.380270267146065 
1288	 0.379825638137565 
1289	 0.379453678431384 
1290	 0.378972163567923 
1291	 0.378439773256358 
1292	 0.377852189618827 
1293	 0.377155395563995 
1294	 0.37647177319566 
1295	 0.375803395093233 
1296	 0.375031010089983 
1297	 0.374225990727904 
1298	 0.373386081741918 
1299	 0.372509873863983 
1300	 0.371570239493651 
1301	 0.370583333444616 
1302	 0.369559746782378 
1303	 0.36850020968512 
1304	 0.367373576510051 
1305	 0.36620662123718 
1306	 0.365002850863415 
1307	 0.363774986806035 
1308	 0.362527420142689 
1309	 0.361164467135535 
1310	 0.35973795053125 
1311	 0.358270751940422 
1312	 0.356662720058062 
1313	 0.355077039101653 
1314	 0.353513795103475 
1315	 0.351893841548877 
1316	 0.350259483554149 
1317	 0.348547881226727 
1318	 0.346755632113532 
1319	 0.344952223207574 
1320	 0.343094002650349 
1321	 0.341158492183659 
1322	 0.339211234895002 
1323	 0.337226284291395 
1324	 0.335174091417796 
1325	 0.333008432423565 
1326	 0.330840802599597 
1327	 0.328570854667536 
1328	 0.326312247102296 
1329	 0.324041902980376 
1330	 0.321677854466407 
1331	 0.319211582042633 
1332	 0.316864733374236 
1333	 0.314480250296419 
1334	 0.312251574242359 
1335	 0.310192785490063 
1336	 0.308167956055248 
1337	 0.306172899666988 
1338	 0.304254706156788 
1339	 0.30235290363264 
1340	 0.300485272948379 
1341	 0.298458963384592 
1342	 0.296579391219868 
1343	 0.294652391219527 
1344	 0.292667908727442 
1345	 0.290523702355678 
1346	 0.288343829751057 
1347	 0.285973103292695 
1348	 0.283316366632691 
1349	 0.280821005116136 
1350	 0.278496395141613 
1351	 0.275884926378393 
1352	 0.273875161687224 
1353	 0.270948597947182 
1354	 0.26816816052399 
1355	 0.264804141979005 
1356	 0.262912980035309 
1357	 0.258754263660456 
1358	 0.256740055229871 
1359	 0.251181221098185 
1360	 0.243358848917248 
1361	 0.232668857904934 
1362	 0.227176192995779 
1363	 0.217653709611921 
1364	 0.218793919897005 
1365	 0.213349062678583 
1366	 0.210632019215707 
1367	 0.207669778904849 
1368	 0.20648075433963 
1369	 0.20329628795394 
1370	 0.200683660155912 
1371	 0.198574053100896 
1372	 0.194412294316902 
1373	 0.191891340766876 
1374	 0.189935839230605 
1375	 0.190486822218254 
1376	 0.18723738724416 
1377	 0.184118749825006 
1378	 0.181403913128626 
1379	 0.177833560559435 
1380	 0.173606987882083 
1381	 0.169909658710073 
1382	 0.165078277960501 
1383	 0.159505543087451 
1384	 0.153466208258723 
1385	 0.148731836951166 
1386	 0.142370765495358 
1387	 0.134116878742293 
1388	 0.129187437131983 
1389	 0.125158936990279 
1390	 0.121897974436312 
1391	 0.120214600159538 
1392	 0.118148675275144 
1393	 0.11632400752239 
1394	 0.113904535427925 
1395	 0.111571514098604 
1396	 0.108884433207925 
1397	 0.106310193504582 
1398	 0.102655798361426 
1399	 9.73323716589373E-02 
1400	 9.39983170660043E-02 
1401	 9.10350803878562E-02 
1402	 8.81818472378041E-02 
1403	 8.70375240193928E-02 
1404	 8.51543453855642E-02 
1405	 8.25485708804464E-02 
1406	 8.04718821243645E-02 
1407	 7.84417357164665E-02 
1408	 7.72734304307157E-02 
1409	 7.60036543728766E-02 
1410	 7.46522729896777E-02 
1411	 7.36293006521211E-02 
1412	 0.072806193038229 
1413	 7.18874220484308E-02 
1414	 0.071054410420524 
1415	 7.03008961754494E-02 
1416	 6.95523867699846E-02 
1417	 6.88707682607851E-02 
1418	 6.82544985273976E-02 
1419	 6.76852196807496E-02 
1420	 6.71434602188311E-02 
1421	 6.66205553548276E-02 
1422	 6.61251281936433E-02 
1423	 6.57056426235032E-02 
1424	 6.52227858846267E-02 
1425	 6.49027246686218E-02 
1426	 6.47710648443819E-02 
1427	 6.44764250191297E-02 
1428	 6.41613102113016E-02 
1429	 6.38494516688935E-02 
1430	 6.33959360872107E-02 
1431	 6.30755906586374E-02 
1432	 6.28461829231043E-02 
1433	 6.25830084622911E-02 
1434	 6.23229617705377E-02 
1435	 6.21113271610873E-02 
1436	 6.18993291958326E-02 
1437	 6.17375615417434E-02 
1438	 6.17457481708442E-02 
1439	 6.15725838016931E-02 
1440	 6.12436350344009E-02 
1441	 6.10523076931621E-02 
1442	 6.08169651723488E-02 
1443	 6.06020983060119E-02 
1444	 6.07275509909263E-02 
1445	 6.08716877399346E-02 
1446	 6.08850170022994E-02 
1447	 6.10319549497267E-02 
1448	 6.11346411572779E-02 
1449	 0.061164199409597 
1450	 6.12792325694062E-02 
1451	 6.14707124457491E-02 
1452	 6.15973791967079E-02 
1453	 6.17097166247646E-02 
1454	 6.18008987588354E-02 
1455	 6.18694036198385E-02 
1456	 6.19801649816917E-02 
1457	 6.20994654130083E-02 
1458	 6.22027799211881E-02 
1459	 6.23508229401084E-02 
1460	 6.24596681312651E-02 
1461	 0.062500105164017 
1462	 6.26315793221983E-02 
1463	 6.27925600980471E-02 
1464	 6.30114539754061E-02 
1465	 6.33324464028543E-02 
1466	 6.36218636951528E-02 
1467	 6.38690517437004E-02 
1468	 6.42635917058324E-02 
1469	 6.47138852508541E-02 
1470	 0.065200851403801 
1471	 6.58225781035112E-02 
1472	 6.63840846503582E-02 
1473	 0.066823480477346 
1474	 6.73920595465091E-02 
1475	 6.80301684645386E-02 
1476	 6.86298060127471E-02 
1477	 6.92378962140105E-02 
1478	 6.98707577260023E-02 
1479	 7.04297855256369E-02 
1480	 7.10901901790253E-02 
1481	 7.18044085396103E-02 
1482	 7.25614875723622E-02 
1483	 7.33559804280297E-02 
1484	 7.41753884901536E-02 
1485	 7.51013166298848E-02 
1486	 7.59121916382073E-02 
1487	 7.66404456393901E-02 
1488	 0.07739386937392 
1489	 7.81523400865037E-02 
1490	 7.88389615364363E-02 
1491	 7.96828558217046E-02 
1492	 8.05800745715092E-02 
1493	 8.14024407084988E-02 
1494	 8.22466333756005E-02 
1495	 8.30674907815235E-02 
1496	 0.083881501466344 
1497	 8.46686591379965E-02 
1498	 8.54558687446667E-02 
1499	 8.62747657530187E-02 
1500	 8.70856784468162E-02 
1501	 8.79387277756895E-02 
1502	 8.88473095529721E-02 
1503	 8.97551991945254E-02 
1504	 9.06648737995933E-02 
1505	 0.091597331010655 
1506	 9.25583048505371E-02 
1507	 9.35156801420224E-02 
1508	 0.094472964287402 
1509	 9.54422111461817E-02 
1510	 9.64189263564808E-02 
1511	 9.74100549021049E-02 
1512	 9.84418818744555E-02 
1513	 9.94139530680511E-02 
1514	 0.10038708092343 
1515	 0.101338841321907 
1516	 0.102215575488329 
1517	 0.103189699254328 
1518	 0.10421515447482 
1519	 0.105234508924931 
1520	 0.106316002508754 
1521	 0.107355659171329 
1522	 0.108387685276849 
1523	 0.109400668571582 
1524	 0.11037648543278 
1525	 0.111401183376892 
1526	 0.1124588830229 
1527	 0.113477065744846 
1528	 0.114509993643416 
1529	 0.115532733716193 
1530	 0.116508595425547 
1531	 0.117513230390777 
1532	 0.118552587177867 
1533	 0.119579001815771 
1534	 0.120567471877953 
1535	 0.121618994701995 
1536	 0.122732100191323 
1537	 0.123804431445235 
1538	 0.124897860615097 
1539	 0.125981294084872 
1540	 0.127037971402595 
1541	 0.128090439804761 
1542	 0.12914608101146 
1543	 0.130202089672325 
1544	 0.131255699771602 
1545	 0.132288344492987 
1546	 0.133323706236299 
1547	 0.134345332731192 
1548	 0.135318087230455 
1549	 0.136325687999943 
1550	 0.137346609813575 
1551	 0.138386283732247 
1552	 0.139493960046302 
1553	 0.140532951566699 
1554	 0.141568703573742 
1555	 0.142559773166584 
1556	 0.143459853564116 
1557	 0.144386310898102 
1558	 0.145280204818411 
1559	 0.146209710310312 
1560	 0.14719476422029 
1561	 0.148142459403578 
1562	 0.149095936797764 
1563	 0.150042145925269 
1564	 0.15095424899511 
1565	 0.151881678255066 
1566	 0.152818046946307 
1567	 0.153746785338311 
1568	 0.15470236350988 
1569	 0.155672913043851 
1570	 0.156620627207977 
1571	 0.157583855374041 
1572	 0.15851829890017 
1573	 0.159412016199223 
1574	 0.160325751792975 
1575	 0.161238548123266 
1576	 0.162131730227438 
1577	 0.163010879663125 
1578	 0.163853238449394 
1579	 0.164647518019452 
1580	 0.165487727941714 
1581	 0.166306751312346 
1582	 0.167156413111803 
1583	 0.168059391124806 
1584	 0.168892735588696 
1585	 0.169713972602492 
1586	 0.170493566831574 
1587	 0.171218486295364 
1588	 0.172001837372572 
1589	 0.172809435663249 
1590	 0.173538857812351 
1591	 0.174259765070038 
1592	 0.174981773809493 
1593	 0.175647963389996 
1594	 0.176322260494826 
1595	 0.177024804015196 
1596	 0.177722487722291 
1597	 0.178365974164881 
1598	 0.1790836823845 
1599	 0.179894953786022 
1600	 0.180598963955647 
1601	 0.181280272046124 
1602	 0.181937545344387 
1603	 0.182524724405254 
1604	 0.183171707769888 
1605	 0.183816214943707 
1606	 0.184497340750393 
1607	 0.185212362176555 
1608	 0.1859039725584 
1609	 0.186632854526381 
1610	 0.187263179779386 
1611	 0.187860901252972 
1612	 0.188400754369282 
1613	 0.188806040304436 
1614	 0.189380209409587 
1615	 0.190003757957383 
1616	 0.190584668248495 
1617	 0.191263476114271 
1618	 0.191805319675152 
1619	 0.192213510122724 
1620	 0.192730981258812 
1621	 0.193269704473489 
1622	 0.193790836396032 
1623	 0.194354809288468 
1624	 0.194849097002102 
1625	 0.195301396868883 
1626	 0.19574733301506 
1627	 0.196152865917563 
1628	 0.196607118495373 
1629	 0.197040323932663 
1630	 0.197556976035241 
1631	 0.19816225851168 
1632	 0.198697239383168 
1633	 0.199308511671813 
1634	 0.199744126644362 
1635	 0.200044404566755 
1636	 0.200429443238712 
1637	 0.200743611089661 
1638	 0.201113306649196 
1639	 0.201532864442228 
1640	 0.20198020607049 
1641	 0.202462253329373 
1642	 0.202868564683639 
1643	 0.203297672521531 
1644	 0.203664126783855 
1645	 0.203923809090456 
1646	 0.20423148609373 
1647	 0.204553102730835 
1648	 0.204881649869144 
1649	 0.205210984548159 
1650	 0.205498879810009 
1651	 0.205823652004941 
1652	 0.206018071307679 
1653	 0.206083991072604 
1654	 0.206271149334593 
1655	 0.206431163247949 
1656	 0.206682541622866 
1657	 0.207054933879735 
1658	 0.207242170059453 
1659	 0.207428810499973 
1660	 0.207486449434433 
1661	 0.20759152085776 
1662	 0.207735088971594 
1663	 0.207800426151153 
1664	 0.207880256394632 
1665	 0.208006419278944 
1666	 0.20820070775946 
1667	 0.208419356996424 
1668	 0.208613247639919 
1669	 0.208924725540654 
1670	 0.209157294179035 
1671	 0.209240177303954 
1672	 0.209365776605218 
1673	 0.209392990787144 
1674	 0.209337083654561 
1675	 0.209392758903374 
1676	 0.209400342677041 
1677	 0.209279575408711 
1678	 0.209306803755883 
1679	 0.209355070814269 
1680	 0.209300196936478 
1681	 0.209317513499141 
1682	 0.209322211816652 
1683	 0.209158312364329 
1684	 0.209000211336313 
1685	 0.208934813431708 
1686	 0.208799264213132 
1687	 0.208642807431083 
1688	 0.208525254444033 
1689	 0.208384600323037 
1690	 0.208029500896411 
1691	 0.207778302589137 
1692	 0.207522713431802 
1693	 0.207262534826948 
1694	 0.207052070886619 
1695	 0.206871031153199 
1696	 0.206754581988026 
1697	 0.206545614899499 
1698	 0.206324896998917 
1699	 0.206066774571093 
1700	 0.205692131457484 
1701	 0.205343035135865 
1702	 0.204972344745698 
1703	 0.20467843756324 
1704	 0.204452434292327 
1705	 0.204137555275821 
1706	 0.20385257785211 
1707	 0.2035414456632 
1708	 0.20307060111576 
1709	 0.202748953029902 
1710	 0.202592661467648 
1711	 0.202249180400988 
1712	 0.201852747888837 
1713	 0.201483154986122 
1714	 0.201050622316202 
1715	 0.200626115100961 
1716	 0.200268082975578 
1717	 0.199812048538634 
1718	 0.19920265618527 
1719	 0.198678231575001 
1720	 0.198172811992148 
1721	 0.197651902149831 
1722	 0.197154856274301 
1723	 0.196690851377602 
1724	 0.196252787324382 
1725	 0.195759221805428 
1726	 0.195309195258253 
1727	 0.194713819364751 
1728	 0.193960071318303 
1729	 0.193308940921285 
1730	 0.192604973422731 
1731	 0.192041956905182 
1732	 0.19150328965219 
1733	 0.190810794404082 
1734	 0.190308930734084 
1735	 0.189827535910573 
1736	 0.189135148970302 
1737	 0.188452416024346 
1738	 0.187601096902693 
1739	 0.186718401172486 
1740	 0.18600838985389 
1741	 0.185413508054017 
1742	 0.184764668321186 
1743	 0.18392550011072 
1744	 0.183120506044901 
1745	 0.182319235717718 
1746	 0.181534719625408 
1747	 0.180766560123943 
1748	 0.179931054006416 
1749	 0.179132171985059 
1750	 0.178348442277074 
1751	 0.177648972512638 
1752	 0.176966180529098 
1753	 0.176203737720312 
1754	 0.175520925420423 
1755	 0.174800134197896 
1756	 0.173976465324966 
1757	 0.173060769819714 
1758	 0.172233507460559 
1759	 0.171423646657321 
1760	 0.170687679471193 
1761	 0.170066736288745 
1762	 0.169380008534263 
1763	 0.168720392134322 
1764	 0.167985132743443 
1765	 0.167173403606898 
1766	 0.166440214557511 
1767	 0.165633027443525 
1768	 0.164902773281354 
1769	 0.164298053828704 
1770	 0.163618474069774 
1771	 0.162871157016759 
1772	 0.162300281764174 
1773	 0.161838062726468 
1774	 0.161309589211722 
1775	 0.160763352950636 
1776	 0.160327637652273 
1777	 0.159807658963076 
1778	 0.159258117474295 
1779	 0.158895655891034 
1780	 0.158463593409612 
1781	 0.157819002166097 
1782	 0.157384632567918 
1783	 0.157125274138713 
1784	 0.156929560343802 
1785	 0.156858601730234 
1786	 0.156535702388936 
1787	 0.156030545205357 
1788	 0.155373254195272 
1789	 0.154596667266226 
1790	 0.154165120384302 
1791	 0.153997418772605 
1792	 0.153746798371739 
1793	 0.153554614542469 
1794	 0.153295206602891 
1795	 0.152802734982484 
1796	 0.152364888899216 
1797	 0.151880618961204 
1798	 0.151603074269971 
1799	 0.151484071945254 
1800	 0.151702207109638 
1801	 0.150475119639483 
1802	 0.149802456204331 
1803	 0.149400770244639 
1804	 0.150079491889606 
1805	 0.150349634740744 
1806	 0.150483675583455 
1807	 0.150447308081496 
1808	 0.150576068522331 
1809	 0.150649772746605 
1810	 0.150335212460154 
1811	 0.149080115380558 
1812	 0.148535090563599 
1813	 0.148546902184992 
1814	 0.147757263564136 
1815	 0.146204198084688 
1816	 0.145428285331867 
1817	 0.144095007463615 
1818	 0.143376010983888 
1819	 0.14330214154864 
1820	 0.145118850203771 
1821	 0.145841281177476 
1822	 0.146741357438564 
1823	 0.147621523323684 
1824	 0.148783440986238 
1825	 0.149419967066694 
1826	 0.149840402639255 
1827	 0.149974651017098 
1828	 0.149608509653819 
1829	 0.147073849204881 
1830	 0.147359067976232 
1831	 0.151246719043916 
1832	 0.150434385524055 
1833	 0.14776510056638 
1834	 0.144934049550482 
1835	 0.126794113712635 
1836	 0.117922052739999 
1837	 0.132083728223672 
1838	 0.136414697854897 
1839	 0.140097541537645 
1840	 0.142648941689815 
1841	 0.148727070275004 
1842	 0.162199487831787 
1843	 0.154854737704851 
1844	 0.139357038262527 
1845	 0.128726983158869 
1846	 9.79579815914455E-02 
1847	 7.84132236213504E-02 
1848	 6.40265826848841E-02 
1849	 4.95274395473561E-02 
1850	 6.53728857711365E-02 
1851	 0.107184769037538 
1852	 0.12502119793376 
1853	 0.170973090019207 
1854	 0.177011277303443 
1855	 0.133574741981042 
1856	 0.124813554858973 
1857	 0.131914786574122 
1858	 0.117988938680816 
1859	 0.115293698859917 
1860	 0.12973490567433 
1861	 0.124331417733743 
1862	 9.90363693749954E-02 
1863	 9.67366646609991E-02 
1864	 0.101036305184684 
1865	 0.102968348749072 
1866	 0.122979488827047 
1867	 0.129088837668108 
1868	 0.110824043020743 
1869	 9.58339436318643E-02 
1870	 8.55425503321055E-02 
1871	 6.64719869539577E-02 
1872	 6.18621563465439E-02 
1873	 7.51150332137764E-02 
1874	 7.59070211403846E-02 
1875	 8.56404216528057E-02 
1876	 0.076788532505081 
1877	 6.01695530324234E-02 
1878	 0.049190029522465 
1879	 4.72313007052964E-02 
1880	 3.43490887363898E-02 
1881	 3.41771423121998E-02 
1882	 0.047658992753993 
1883	 4.82094068515702E-02 
1884	 4.47540487731117E-02 
1885	 4.29681941344527E-02 
1886	 3.84883300364917E-02 
1887	 3.17624480999489E-02 
1888	 3.34257981387047E-02 
1889	 3.82142110531977E-02 
1890	 3.96536802267008E-02 
1891	 4.24986998417076E-02 
1892	 4.35093063821707E-02 
1893	 4.06285151545126E-02 
1894	 4.16246153378755E-02 
1895	 4.86990847265039E-02 
1896	 5.19487709414655E-02 
1897	 5.65638020069525E-02 
1898	 5.24011317434415E-02 
1899	 6.02271128732613E-02 
1900	 5.20730413407239E-02 
1901	 5.45043070862604E-02 
1902	 8.04091160593732E-02 
1903	 8.47758661889189E-02 
1904	 7.12025906839985E-02 
1905	 6.59118722450377E-02 
1906	 0.064056971767715 
1907	 0.029122069139927 
1908	 2.30664635284902E-02 
1909	 3.99030228218774E-02 
1910	 4.29206215327558E-02 
1911	 4.10297840012537E-02 
1912	 3.97791960385243E-02 
1913	 3.45107115218625E-02 
1914	 3.39911750340148E-02 
1915	 0.038872398124509 
1916	 3.68302963913775E-02 
1917	 3.30865530933902E-02 
1918	 2.87941308003202E-02 
1919	 2.79705139389603E-02 
1920	 2.58595994128449E-02 
1921	 2.53463869274596E-02 
1922	 2.94047952782696E-02 
1923	 2.93434820346327E-02 
1924	 2.61183105910072E-02 
1925	 2.50811882896903E-02 
1926	 2.39626914226295E-02 
1927	 2.38964959417055E-02 
1928	 2.51162564068501E-02 
1929	 0.025451021799306 
1930	 2.53356186437414E-02 
1931	 2.48596727538486E-02 
1932	 2.36829446553964E-02 
1933	 2.42655780019105E-02 
1934	 0.023828277401701 
1935	 2.32830569984739E-02 
1936	 2.31773735411409E-02 
1937	 2.27674596866103E-02 
1938	 2.26216016351975E-02 
1939	 2.31200401403277E-02 
1940	 2.35659712474501E-02 
1941	 2.34520845733585E-02 
1942	 2.31190600861732E-02 
1943	 0.023245636949277 
1944	 2.35038325390102E-02 
1945	 2.29308439584341E-02 
1946	 2.21794171036099E-02 
1947	 2.20210924599806E-02 
1948	 2.16203751696611E-02 
1949	 2.17288188719169E-02 
1950	 2.22856509200507E-02 
1951	 2.34939314559246E-02 
1952	 2.42444393770004E-02 
1953	 2.51762888075855E-02 
1954	 2.57239818146944E-02 
1955	 2.61263539777407E-02 
1956	 2.65225016266579E-02 
1957	 2.57825662444218E-02 
1958	 2.54278022422336E-02 
1959	 2.47909614043722E-02 
1960	 0.024714373518175 
1961	 2.44105207883505E-02 
1962	 2.53371214682778E-02 
1963	 2.62817444494225E-02 
1964	 2.68598661600694E-02 
1965	 0.026829919273866 
1966	 2.62314623601823E-02 
1967	 2.60782822822205E-02 
1968	 2.59163276967899E-02 
1969	 2.59994752929511E-02 
1970	 2.67042134343846E-02 
1971	 2.69100895018864E-02 
1972	 2.68833126309272E-02 
1973	 2.69861379388244E-02 
1974	 2.70901844884167E-02 
1975	 2.72268267167569E-02 
1976	 2.75518221607348E-02 
1977	 2.79388121065837E-02 
1978	 2.81216905918659E-02 
1979	 2.82220437771482E-02 
1980	 2.84239059187124E-02 
1981	 2.86364535926824E-02 
1982	 2.87972939122089E-02 
1983	 0.029037691631739 
1984	 2.91307584325545E-02 
1985	 2.90551486329175E-02 
1986	 2.90628242011522E-02 
1987	 2.91333953195295E-02 
1988	 2.93988571619975E-02 
1989	 2.99224236627303E-02 
1990	 3.01949274263624E-02 
1991	 3.05247897315912E-02 
1992	 3.09347751786079E-02 
1993	 3.09147056895321E-02 
1994	 3.09574693501823E-02 
1995	 3.11343065054835E-02 
1996	 3.12614048586504E-02 
1997	 3.14596604149736E-02 
1998	 3.18357294759784E-02 
1999	 3.21401067992748E-02 
2000	 0.032544258276346 
2001	 3.25603828028932E-02 
2002	 0.032653144091379 
2003	 3.32434907194461E-02 
2004	 3.31860093095782E-02 
2005	 0.033405070294542 
2006	 3.40657006732869E-02 
2007	 3.52211564295316E-02 
2008	 3.59293544776521E-02 
2009	 3.66451543136958E-02 
2010	 3.64902309997953E-02 
2011	 3.60672256677512E-02 
2012	 3.62534286697512E-02 
2013	 3.59403363615629E-02 
2014	 3.62455371955404E-02 
2015	 3.68666800883304E-02 
2016	 3.68717522192157E-02 
2017	 3.69829312595465E-02 
2018	 3.70856007028569E-02 
2019	 3.71105554792665E-02 
2020	 3.68545310873928E-02 
2021	 3.67919646669307E-02 
2022	 3.70687348156428E-02 
2023	 3.74333929490942E-02 
2024	 3.80105015976752E-02 
2025	 3.85087189190702E-02 
2026	 3.90295319586964E-02 
2027	 3.93885976865422E-02 
2028	 3.95631923214694E-02 
2029	 3.97117442157042E-02 
2030	 3.96069928067827E-02 
2031	 3.96985393670189E-02 
2032	 3.99064757355099E-02 
2033	 4.02086180487087E-02 
2034	 4.06667167212933E-02 
2035	 4.10559891599835E-02 
2036	 4.10812952133288E-02 
2037	 4.11632623325737E-02 
2038	 4.09570405639453E-02 
2039	 4.07820363510929E-02 
2040	 0.041046821720223 
2041	 4.16131687474191E-02 
2042	 4.22925136136945E-02 
2043	 0.042679362529502 
2044	 4.31075174972054E-02 
2045	 0.043524452032346 
2046	 4.37812636185792E-02 
2047	 4.38440548662585E-02 
2048	 4.40812274550195E-02 
2049	 4.41503255123247E-02 
2050	 4.43688367497452E-02 
2051	 4.49917012352819E-02 
2052	 4.52655502167658E-02 
2053	 4.55656776677009E-02 
2054	 4.60578114208991E-02 
2055	 4.61152799649258E-02 
2056	 4.67792986698009E-02 
2057	 4.77053333645761E-02 
2058	 4.79751450424348E-02 
2059	 4.83575724430072E-02 
2060	 4.86066195984592E-02 
2061	 4.87815649903318E-02 
2062	 4.89484508928187E-02 
2063	 4.92385503795495E-02 
2064	 4.94012328552454E-02 
2065	 4.94384837770932E-02 
2066	 4.97777305129681E-02 
2067	 5.02964457386897E-02 
2068	 5.06552239748189E-02 
2069	 5.10805514635998E-02 
2070	 5.14606179178323E-02 
2071	 5.17674195355533E-02 
2072	 5.21426785029177E-02 
2073	 0.052579319892751 
2074	 5.31211486835293E-02 
2075	 5.35517785305609E-02 
2076	 5.39880960867367E-02 
2077	 5.45066050466769E-02 
2078	 5.47066802894413E-02 
2079	 5.47868095009336E-02 
2080	 5.51799516717664E-02 
2081	 5.55400497982766E-02 
2082	 5.59941224522069E-02 
2083	 0.056533261138376 
2084	 5.66475539126658E-02 
2085	 5.68461519124041E-02 
2086	 5.71087418760406E-02 
2087	 5.74649739745901E-02 
2088	 0.057935120318225 
2089	 5.86183596265584E-02 
2090	 5.89296473339833E-02 
2091	 5.91977049064569E-02 
2092	 5.94534443137618E-02 
2093	 5.97547612861997E-02 
2094	 6.02139266427031E-02 
2095	 6.04872763910352E-02 
2096	 6.09760025276836E-02 
2097	 0.061266784074278 
2098	 6.13232309708493E-02 
2099	 0.061750920845142 
2100	 6.18850551029116E-02 
2101	 6.21249481282867E-02 
2102	 6.25569479033326E-02 
2103	 6.32504439223278E-02 
2104	 6.37312009158045E-02 
2105	 6.41579992119243E-02 
2106	 6.45391190788295E-02 
2107	 6.48563403932463E-02 
2108	 0.064912885947736 
2109	 6.53308643802273E-02 
2110	 6.59321429663028E-02 
2111	 6.62272693604364E-02 
2112	 0.066860325707067 
2113	 6.73639746739559E-02 
2114	 6.76771461868765E-02 
2115	 6.82792434688924E-02 
2116	 6.88440654006723E-02 
2117	 6.92942755354672E-02 
2118	 6.97580252089134E-02 
2119	 7.02273335201239E-02 
2120	 0.070609319808388 
2121	 7.08711444684569E-02 
2122	 7.12351598046528E-02 
2123	 0.071600757147192 
2124	 7.16253898821358E-02 
2125	 7.17886589612801E-02 
2126	 7.20469008945685E-02 
2127	 7.23091766088348E-02 
2128	 7.28079788635624E-02 
2129	 7.31431859378184E-02 
2130	 7.35971468633824E-02 
2131	 7.42550762335464E-02 
2132	 7.46522441556172E-02 
2133	 7.49420370378134E-02 
2134	 0.07531445688049 
2135	 7.56993157363513E-02 
2136	 0.075891334665968 
2137	 7.61455521883716E-02 
2138	 7.68474481818355E-02 
2139	 7.72084347696274E-02 
2140	 7.71886503880852E-02 
2141	 7.73988857276648E-02 
2142	 7.74963519009661E-02 
2143	 7.73425481602722E-02 
2144	 7.76201250571043E-02 
2145	 0.078013239311572 
2146	 7.79066770143297E-02 
2147	 0.078424185022122 
2148	 7.89449997156236E-02 
2149	 7.90416598920302E-02 
2150	 7.95740289916408E-02 
2151	 7.99410633129669E-02 
2152	 8.00465003075172E-02 
2153	 8.03069831275095E-02 
2154	 8.07654500094589E-02 
2155	 8.09759388669854E-02 
2156	 0.080980407220986 
2157	 8.10580972109601E-02 
2158	 8.10437790752193E-02 
2159	 8.12425765575048E-02 
2160	 8.13885825206826E-02 
2161	 8.15791800943415E-02 
2162	 8.19747005548301E-02 
2163	 8.21353183374774E-02 
2164	 8.25664461648657E-02 
2165	 0.082842155978978 
2166	 8.28063047016753E-02 
2167	 8.26119544056238E-02 
2168	 0.082568633633962 
2169	 8.24014991414334E-02 
2170	 8.25217398887626E-02 
2171	 8.28090637957201E-02 
2172	 8.33185269018867E-02 
2173	 8.37436455591677E-02 
2174	 0.084092599145393 
2175	 0.084169899569742 
2176	 8.43082038329098E-02 
2177	 8.46465213966525E-02 
2178	 8.47288583753119E-02 
2179	 8.50557044040982E-02 
2180	 8.50303668345176E-02 
2181	 8.46406623771793E-02 
2182	 8.44716510616913E-02 
2183	 8.44524983006425E-02 
2184	 8.44566145548444E-02 
2185	 8.43623191393058E-02 
2186	 8.43689945159374E-02 
2187	 8.45079179667866E-02 
2188	 8.46531778533424E-02 
2189	 8.49856937357996E-02 
2190	 8.56101239385591E-02 
2191	 8.61695120242545E-02 
2192	 0.086410552570528 
2193	 0.08611765941827 
2194	 8.60096275537561E-02 
2195	 8.57146487327754E-02 
2196	 8.53462150097043E-02 
2197	 8.59035121467672E-02 
2198	 8.62762949129061E-02 
2199	 8.61528274665772E-02 
2200	 8.63076088109088E-02 
2201	 8.62135059931171E-02 
2202	 0.086163102023263 
2203	 8.64269619554228E-02 
2204	 8.66258987637747E-02 
2205	 8.68917253200871E-02 
2206	 8.69024389775637E-02 
2207	 8.65157814268806E-02 
2208	 8.63116957206017E-02 
2209	 8.59711156475684E-02 
2210	 8.58916484909466E-02 
2211	 8.58835888443574E-02 
2212	 8.62215150826614E-02 
2213	 8.65904980966688E-02 
2214	 8.65058812664673E-02 
2215	 8.57361004129879E-02 
2216	 8.52269161287125E-02 
2217	 8.49309888667097E-02 
2218	 8.49416125955513E-02 
2219	 8.58771982763624E-02 
2220	 8.63718320475785E-02 
2221	 8.66178491433219E-02 
2222	 8.69417638790071E-02 
2223	 8.64944540572685E-02 
2224	 8.63138129322065E-02 
2225	 8.61760394676935E-02 
2226	 8.57813660765767E-02 
2227	 8.58411831982534E-02 
2228	 8.56562653724428E-02 
2229	 8.53548482544785E-02 
2230	 8.55318145665639E-02 
2231	 8.55221318004778E-02 
2232	 8.53435145650423E-02 
2233	 8.50192089865945E-02 
2234	 0.084765694114044 
2235	 8.43283017644371E-02 
2236	 8.34354631634066E-02 
2237	 8.37868570136926E-02 
2238	 8.39377173989375E-02 
2239	 8.37304235223049E-02 
2240	 8.41710033419534E-02 
2241	 8.42471554296389E-02 
2242	 8.45899204438715E-02 
2243	 0.08494973393226 
2244	 8.47637576147346E-02 
2245	 8.43856280875945E-02 
2246	 8.37631191433923E-02 
2247	 0.083084466706697 
2248	 8.29203112228857E-02 
2249	 0.08285824250732 
2250	 8.27134407882242E-02 
2251	 8.31348287521601E-02 
2252	 8.26741408326981E-02 
2253	 8.18788351599824E-02 
2254	 8.16166091664112E-02 
2255	 8.10480559007487E-02 
2256	 8.06995314164858E-02 
2257	 8.06604912508069E-02 
2258	 8.05449674364786E-02 
2259	 8.00129646972547E-02 
2260	 7.96381250404553E-02 
2261	 0.079320537417663 
2262	 7.88268659862437E-02 
2263	 7.86254253367193E-02 
2264	 7.85710047350578E-02 
2265	 7.79794668200213E-02 
2266	 7.74894313393747E-02 
2267	 7.72927837607438E-02 
2268	 7.72787922675354E-02 
2269	 7.72649021001991E-02 
2270	 7.75003907993746E-02 
2271	 7.77814290234755E-02 
2272	 7.73318627781599E-02 
2273	 7.69301666840723E-02 
2274	 7.62794525309388E-02 
2275	 7.54758055633201E-02 
2276	 7.52664060675199E-02 
2277	 7.49477473157104E-02 
2278	 7.47954640099546E-02 
2279	 7.46456762558874E-02 
2280	 7.35532540796873E-02 
2281	 7.19379888096885E-02 
2282	 0.07122451289492 
2283	 7.09745608404682E-02 
2284	 7.07594866990097E-02 
2285	 0.071134016634834 
2286	 7.15268771763198E-02 
2287	 7.18528041931697E-02 
2288	 7.20773361234813E-02 
2289	 7.22098133721202E-02 
2290	 7.24271724886805E-02 
2291	 7.17560263753377E-02 
2292	 7.01101158714287E-02 
2293	 0.068678762577884 
2294	 6.69756717157105E-02 
2295	 6.62200375943243E-02 
2296	 6.61614899386952E-02 
2297	 0.066348751526604 
2298	 6.71670316363497E-02 
2299	 6.74487833195409E-02 
2300	 6.73768832065627E-02 
2301	 6.72179792940166E-02 
2302	 6.70146712279227E-02 
2303	 6.72246724506537E-02 
2304	 6.69623181621787E-02 
2305	 6.65304688312319E-02 
2306	 6.65407867338355E-02 
2307	 6.54853215449141E-02 
2308	 6.44863548394195E-02 
2309	 6.36799769815164E-02 
2310	 6.21901594367465E-02 
2311	 6.20492493479546E-02 
2312	 0.06264140084222 
2313	 6.25697343623908E-02 
2314	 6.26163660116087E-02 
2315	 6.23198166685843E-02 
2316	 6.11364859801227E-02 
2317	 6.10737797772772E-02 
2318	 0.061694879051623 
2319	 6.18582882478497E-02 
2320	 6.18824824164001E-02 
2321	 6.15770273378983E-02 
2322	 6.08213654532285E-02 
2323	 6.03454638335944E-02 
2324	 5.97626381527843E-02 
2325	 5.88940179214149E-02 
2326	 5.86455744386444E-02 
2327	 5.79025887189975E-02 
2328	 5.68434636632223E-02 
2329	 5.70594553913935E-02 
2330	 5.81704302886541E-02 
2331	 5.83917048443001E-02 
2332	 5.88659541850707E-02 
2333	 5.91879569556496E-02 
2334	 5.66035818710912E-02 
2335	 5.48399257272056E-02 
2336	 5.47000662996054E-02 
2337	 5.34190758033905E-02 
2338	 5.38001934781778E-02 
2339	 5.43774552236974E-02 
2340	 5.34513263128909E-02 
2341	 5.38279864212925E-02 
2342	 5.43777457347888E-02 
2343	 5.46254711997035E-02 
2344	 5.52659246411636E-02 
2345	 5.46598854460713E-02 
2346	 0.053138401404245 
2347	 5.17522068666854E-02 
2348	 5.09963379713871E-02 
2349	 5.00762825781331E-02 
2350	 0.049448480388412 
2351	 5.04058698240792E-02 
2352	 5.06125621033737E-02 
2353	 5.00939058789447E-02 
2354	 5.02062877396598E-02 
2355	 4.99503005575587E-02 
2356	 4.98717435658576E-02 
2357	 5.00285361789641E-02 
2358	 5.00081689238461E-02 
2359	 5.01017128320413E-02 
2360	 4.91609897486404E-02 
2361	 4.81862349172375E-02 
2362	 4.76667590874142E-02 
2363	 4.73020943667417E-02 
2364	 4.77476280177722E-02 
2365	 0.047800804114007 
2366	 4.70401361939318E-02 
2367	 4.57409986761197E-02 
2368	 0.045671709011963 
2369	 4.71015769287528E-02 
2370	 4.81988273154602E-02 
2371	 4.90371073867157E-02 
2372	 4.89583980951948E-02 
2373	 4.64350149762529E-02 
2374	 4.52906160905883E-02 
2375	 4.38183122681408E-02 
2376	 4.37675401488134E-02 
2377	 4.53732394849257E-02 
2378	 4.49240907020996E-02 
2379	 4.44789112479807E-02 
2380	 4.47948659777194E-02 
2381	 4.43333573467664E-02 
2382	 4.38171557021821E-02 
2383	 4.44452962741339E-02 
2384	 4.39555462945047E-02 
2385	 4.11899773587157E-02 
2386	 4.03755973280055E-02 
2387	 4.03966975607003E-02 
2388	 4.06941515960002E-02 
2389	 4.25061004860924E-02 
2390	 4.31330803875163E-02 
2391	 4.34652168921656E-02 
2392	 0.044081663663988 
2393	 4.42999573446736E-02 
2394	 4.38768668905942E-02 
2395	 4.28540236438024E-02 
2396	 4.25003478807297E-02 
2397	 4.26779512921429E-02 
2398	 4.19726214040855E-02 
2399	 0.042045950422745 
2400	 4.16529610271487E-02 
2401	 3.96025020560296E-02 
2402	 3.77919385282728E-02 
2403	 3.80599152781946E-02 
2404	 3.64720695368759E-02 
2405	 0.037608126850662 
2406	 3.86835369630145E-02 
2407	 3.80390495921717E-02 
2408	 3.92084914592771E-02 
2409	 3.95938564767122E-02 
2410	 3.69385581078225E-02 
2411	 3.67251660638637E-02 
2412	 3.69842146316095E-02 
2413	 3.31412343154748E-02 
2414	 3.25217991321926E-02 
2415	 3.33193636075293E-02 
2416	 3.25365625749102E-02 
2417	 3.48867301431542E-02 
2418	 3.76987137160967E-02 
2419	 3.78857697548048E-02 
2420	 3.84258025042593E-02 
2421	 3.76422510969387E-02 
2422	 3.68731727457565E-02 
2423	 3.75549440906732E-02 
2424	 3.70021017902189E-02 
2425	 3.78413645771664E-02 
2426	 3.68366116247675E-02 
2427	 0.034477658026714 
2428	 3.37068012872431E-02 
2429	 3.12777599037342E-02 
2430	 3.07314915630565E-02 
2431	 3.21524321493852E-02 
2432	 0.031230877111844 
2433	 3.39207376124896E-02 
2434	 3.45164086480734E-02 
2435	 3.58645294128648E-02 
2436	 3.51659984884228E-02 
2437	 2.90691005999943E-02 
2438	 2.81450148092799E-02 
2439	 2.76249768510409E-02 
2440	 2.69655560696536E-02 
2441	 3.15246725927192E-02 
2442	 3.34316778492961E-02 
2443	 3.43610984508426E-02 
2444	 3.45482617779863E-02 
2445	 3.29063554964343E-02 
2446	 3.23549933952374E-02 
2447	 0.030325267031511 
2448	 3.05927888378372E-02 
2449	 3.28528437142526E-02 
2450	 3.30848416693644E-02 
2451	 3.34338115777268E-02 
2452	 3.37559123474709E-02 
2453	 3.51045889988459E-02 
2454	 3.55172091721247E-02 
2455	 3.53302996693703E-02 
2456	 3.43304695080538E-02 
2457	 2.86704327079207E-02 
2458	 2.97299207453474E-02 
2459	 3.87817544079747E-02 
2460	 3.89862257721773E-02 
2461	 3.56916211667435E-02 
2462	 3.49022158194496E-02 
2463	 0.026959682152415 
2464	 2.57367087454108E-02 
2465	 3.66053555833635E-02 
2466	 0.039700451291507 
2467	 3.89421527497012E-02 
2468	 3.84720295509715E-02 
2469	 3.47715002937181E-02 
2470	 3.07085616711815E-02 
2471	 2.29577106797687E-02 
2472	 2.12925890581928E-02 
2473	 2.26361842798485E-02 
2474	 2.12237540486248E-02 
2475	 2.91620715794427E-02 
2476	 2.99627962559859E-02 
2477	 2.05686442546937E-02 
2478	 1.65771538892682E-02 
2479	 7.44521083228273E-03 
2480	 8.67792079365112E-03 
2481	 0.025016634031552 
2482	 2.70269221318477E-02 
2483	 3.11639801764472E-02 
2484	 0.033285910542598 
2485	 8.12944257380678E-03 
2486	 5.5820420852986E-03 
2487	 4.25306256227083E-02 
2488	 7.23529223069351E-02 
2489	 0.083519384009163 
2490	 9.35795902595369E-02 
2491	 6.48768281502304E-02 
2492	 4.41831247775792E-02 
2493	 5.25013383530511E-02 
2494	 3.67721714487253E-02 
2495	 3.69168160514926E-02 
2496	 5.03119584102892E-02 
2497	 5.79464160947403E-02 
2498	 6.12951248238866E-02 
2499	 7.14255880904599E-02 
2500	 0.040857597194763 
