Wavelength	ref00019.asd
350	 0.100822477707989 
351	 0.101767582200011 
352	 0.102198327260194 
353	 0.102302129464099 
354	 0.102489702465637 
355	 0.102617078316813 
356	 0.102679191267935 
357	 0.10322998680121 
358	 0.103429234823805 
359	 0.103694134694436 
360	 0.10441402771948 
361	 0.104157210106378 
362	 0.103774202528816 
363	 0.103679425865144 
364	 0.103856031378517 
365	 0.10372406835902 
366	 0.103712727991905 
367	 0.10399272563807 
368	 0.10421525148659 
369	 0.104331984620701 
370	 0.104434238972949 
371	 0.104536064971737 
372	 0.104263148613973 
373	 0.104002026099319 
374	 0.103978621218165 
375	 0.104305609082862 
376	 0.105036414175518 
377	 0.105658441049503 
378	 0.106015285788378 
379	 0.106424438012327 
380	 0.106726987607095 
381	 0.106925978189001 
382	 0.107082010351375 
383	 0.107270221972264 
384	 0.10789104757533 
385	 0.108670819232247 
386	 0.109138234917234 
387	 0.10975842758892 
388	 0.11055706014794 
389	 0.111244336963661 
390	 0.111308032828009 
391	 0.111772950154049 
392	 0.112542241028737 
393	 0.113262419459389 
394	 0.113486894652422 
395	 0.113782578091572 
396	 0.114241963627086 
397	 0.114753236833858 
398	 0.115177055302226 
399	 0.115425400702214 
400	 0.115502789963962 
401	 0.115500737354179 
402	 0.115696331613157 
403	 0.11599457569527 
404	 0.116428131087034 
405	 0.117462693631693 
406	 0.118425620619201 
407	 0.119339939354093 
408	 0.120393416796265 
409	 0.121291543381065 
410	 0.122242949166631 
411	 0.123304897903771 
412	 0.124381237034939 
413	 0.125420100756361 
414	 0.126604305988017 
415	 0.127991829673261 
416	 0.129318645661875 
417	 0.130639317125862 
418	 0.131981824274527 
419	 0.13336610732641 
420	 0.134791156551212 
421	 0.1359883126979 
422	 0.137015076545831 
423	 0.138221223751818 
424	 0.139642663510244 
425	 0.141112346424775 
426	 0.142486789007945 
427	 0.143756520122154 
428	 0.145054841194757 
429	 0.146216558970442 
430	 0.147103202540559 
431	 0.148235063895533 
432	 0.149443857576499 
433	 0.150547282524382 
434	 0.151405446162568 
435	 0.152050668548122 
436	 0.152771124975555 
437	 0.153661803985487 
438	 0.15433986755197 
439	 0.155085468272656 
440	 0.155974996340192 
441	 0.156952575918928 
442	 0.157725411484001 
443	 0.158305308810943 
444	 0.158743996342764 
445	 0.159113849720106 
446	 0.15951684378021 
447	 0.159983508193777 
448	 0.160500901329802 
449	 0.161005385067933 
450	 0.161492386043112 
451	 0.161913279883541 
452	 0.16225793979729 
453	 0.16284261656625 
454	 0.16353431051018 
455	 0.164250837955049 
456	 0.165013456582828 
457	 0.16558652869946 
458	 0.16604868553524 
459	 0.166576949024129 
460	 0.16739860515308 
461	 0.168271806852445 
462	 0.169104540600199 
463	 0.169890828945622 
464	 0.170572714809422 
465	 0.171448855161491 
466	 0.172543325080521 
467	 0.173426876284033 
468	 0.174182333284833 
469	 0.174840904661716 
470	 0.175443936151392 
471	 0.176066752338556 
472	 0.176681137982137 
473	 0.177246586316142 
474	 0.177726878329656 
475	 0.178219097053644 
476	 0.178726440827832 
477	 0.179230250560715 
478	 0.179701169046237 
479	 0.180098646475092 
480	 0.180482637393467 
481	 0.180946366542887 
482	 0.18153573994675 
483	 0.182211956595305 
484	 0.182923739519562 
485	 0.183607820262638 
486	 0.184196459703468 
487	 0.18477719857381 
488	 0.185359592662945 
489	 0.185682750439179 
490	 0.185785035429417 
491	 0.185923189427708 
492	 0.186388051705547 
493	 0.187006730495231 
494	 0.18754696831239 
495	 0.187912372581493 
496	 0.188184971860761 
497	 0.188605621090124 
498	 0.189113011168318 
499	 0.189609256140562 
500	 0.190171590381079 
501	 0.190743790286851 
502	 0.191209024350019 
503	 0.191456054733721 
504	 0.191744384201884 
505	 0.192001037859647 
506	 0.192240629196793 
507	 0.192695337542246 
508	 0.19305038716999 
509	 0.193330665602279 
510	 0.193639119908198 
511	 0.193929299135719 
512	 0.19409662495651 
513	 0.194255698242349 
514	 0.194684275721072 
515	 0.195067314013581 
516	 0.195432994600791 
517	 0.19580602540193 
518	 0.196070032363155 
519	 0.196211394545288 
520	 0.196146510314406 
521	 0.195866036573544 
522	 0.19582713509518 
523	 0.195982004495072 
524	 0.196199685291526 
525	 0.196301040770798 
526	 0.196407073822802 
527	 0.196526958479541 
528	 0.196596637956416 
529	 0.196397850455038 
530	 0.196155815503182 
531	 0.196027272137286 
532	 0.196090224694071 
533	 0.196145079284829 
534	 0.196132636150655 
535	 0.195999239329002 
536	 0.195648568467207 
537	 0.195541987120786 
538	 0.195582044645875 
539	 0.195533715929386 
540	 0.19544758620078 
541	 0.195303455340018 
542	 0.195044776041466 
543	 0.194603556217208 
544	 0.194147005977311 
545	 0.193818911819226 
546	 0.193601532874794 
547	 0.193123506701572 
548	 0.192742794793629 
549	 0.192337125624165 
550	 0.191675897520301 
551	 0.191185043805628 
552	 0.190654756038951 
553	 0.190014887761651 
554	 0.189420438665309 
555	 0.188880912551487 
556	 0.188489737658735 
557	 0.188262972065904 
558	 0.187929604111664 
559	 0.187534143757284 
560	 0.187068844521304 
561	 0.186514200609945 
562	 0.186070506948431 
563	 0.185670390653836 
564	 0.18523710580067 
565	 0.184752135541917 
566	 0.18418195695629 
567	 0.183467665907713 
568	 0.182582611066536 
569	 0.181632714662674 
570	 0.180825213369735 
571	 0.180152006929125 
572	 0.179396815171902 
573	 0.178416890095247 
574	 0.177688380845177 
575	 0.177572448532519 
576	 0.177934647122109 
577	 0.178340491407551 
578	 0.178424566600869 
579	 0.177844748792684 
580	 0.176096780854168 
581	 0.173723538030021 
582	 0.171296788914354 
583	 0.169254439823149 
584	 0.167567280530911 
585	 0.166171665418156 
586	 0.164933192702468 
587	 0.163571305710822 
588	 0.162162322099707 
589	 0.160579339441967 
590	 0.158661539620466 
591	 0.157107599416882 
592	 0.156426167350709 
593	 0.156409998701347 
594	 0.155841698050258 
595	 0.154549206809953 
596	 0.152871982639435 
597	 0.151333291868543 
598	 0.15011943693056 
599	 0.148820397205617 
600	 0.147345867517568 
601	 0.145949188807359 
602	 0.144407351580759 
603	 0.142834632023492 
604	 0.14134517149247 
605	 0.139849908505222 
606	 0.138418247503979 
607	 0.137262068413041 
608	 0.136606755329821 
609	 0.13615267571932 
610	 0.135903671635505 
611	 0.135818580023636 
612	 0.135756556377421 
613	 0.135712617454134 
614	 0.135536526715118 
615	 0.135173963131535 
616	 0.135043019763187 
617	 0.134815760105948 
618	 0.134465502173503 
619	 0.134178244706358 
620	 0.133922638748427 
621	 0.133725913164878 
622	 0.133597702147859 
623	 0.133504380813408 
624	 0.1334837368912 
625	 0.133433734426873 
626	 0.133266656731498 
627	 0.13322378849964 
628	 0.133201792717191 
629	 0.133169385032669 
630	 0.133177496182235 
631	 0.133179467199273 
632	 0.133063864374695 
633	 0.132824450432965 
634	 0.132724033533809 
635	 0.132803043671423 
636	 0.132888994855398 
637	 0.132748086249789 
638	 0.132522436563682 
639	 0.13244060932038 
640	 0.132530360236671 
641	 0.132558074932362 
642	 0.132473592605139 
643	 0.132388390642245 
644	 0.132398928620315 
645	 0.132399411644719 
646	 0.132373480084479 
647	 0.132409569187684 
648	 0.132634488723748 
649	 0.132890750948819 
650	 0.133057860583435 
651	 0.133125701936179 
652	 0.133250932207773 
653	 0.133445797358924 
654	 0.133680390949669 
655	 0.134003577411545 
656	 0.134911103312433 
657	 0.13548402457669 
658	 0.135581489826926 
659	 0.135826474018792 
660	 0.136265971046206 
661	 0.136735549020768 
662	 0.137158946399804 
663	 0.137741873474003 
664	 0.138233533168957 
665	 0.138690788503056 
666	 0.139257304841321 
667	 0.139918210810021 
668	 0.140465778570557 
669	 0.140971368421421 
670	 0.141740848854402 
671	 0.142257176902232 
672	 0.142743551959485 
673	 0.14339602771309 
674	 0.144045839836417 
675	 0.144755737806655 
676	 0.145450408121608 
677	 0.146038992569074 
678	 0.146678855070344 
679	 0.147253765003021 
680	 0.147755438687864 
681	 0.148301242117997 
682	 0.148917167140969 
683	 0.149514597792244 
684	 0.150011607904713 
685	 0.150356299884622 
686	 0.151050627079549 
687	 0.151985765170112 
688	 0.152650456042475 
689	 0.153039733882322 
690	 0.153262983259883 
691	 0.153427356395614 
692	 0.153575938243819 
693	 0.15377955764981 
694	 0.154020310305351 
695	 0.154264804415494 
696	 0.154514688528921 
697	 0.154709646976367 
698	 0.154810770402875 
699	 0.154800109518434 
700	 0.154710849250751 
701	 0.154747955952191 
702	 0.154872214230401 
703	 0.154753064462658 
704	 0.15460928965865 
705	 0.154344763234984 
706	 0.153928901536726 
707	 0.153688182425926 
708	 0.153486635399144 
709	 0.153171644533472 
710	 0.152634145706604 
711	 0.152112571966304 
712	 0.151569665623457 
713	 0.150960980880657 
714	 0.150262057153531 
715	 0.149459127229753 
716	 0.148621506817486 
717	 0.147816153304935 
718	 0.14713284221969 
719	 0.146574136134233 
720	 0.145929493475234 
721	 0.144992740718462 
722	 0.144138971799101 
723	 0.143396321802781 
724	 0.142674123852127 
725	 0.141875491379938 
726	 0.141217595583736 
727	 0.140541076669784 
728	 0.139714036446999 
729	 0.138911350693423 
730	 0.138112699106341 
731	 0.137305099757203 
732	 0.136477316001777 
733	 0.135651945485321 
734	 0.134904244292241 
735	 0.134362120543412 
736	 0.13419040278533 
737	 0.13399323781412 
738	 0.133965942471116 
739	 0.134203096216786 
740	 0.13436586321051 
741	 0.134747121581959 
742	 0.135196639981649 
743	 0.135532053562811 
744	 0.136153934700589 
745	 0.136738082212379 
746	 0.137207421714027 
747	 0.137695947524246 
748	 0.13825706801443 
749	 0.138816266321083 
750	 0.139371677903977 
751	 0.140080081232502 
752	 0.140613033049383 
753	 0.141114601242713 
754	 0.141746402449837 
755	 0.142259636579812 
756	 0.142493541730701 
757	 0.142568787728779 
758	 0.142846641685989 
759	 0.144180894498657 
760	 0.146286265805945 
761	 0.148125253931403 
762	 0.147625095059408 
763	 0.147577350731185 
764	 0.147794198625652 
765	 0.147734506256098 
766	 0.147465348853386 
767	 0.14734252230786 
768	 0.147405475405649 
769	 0.14757534331048 
770	 0.147662965183318 
771	 0.147792312409784 
772	 0.147976530223633 
773	 0.148136996487851 
774	 0.148409573899133 
775	 0.148750273196305 
776	 0.149061649083593 
777	 0.149208715515255 
778	 0.149380781325196 
779	 0.149648361456196 
780	 0.149995248110353 
781	 0.150250337103134 
782	 0.150560759084493 
783	 0.150979239305346 
784	 0.151480289843683 
785	 0.151917477624165 
786	 0.152351208061345 
787	 0.152843578876726 
788	 0.153426678390216 
789	 0.154002340283396 
790	 0.15454587073195 
791	 0.155091884827206 
792	 0.155757166673188 
793	 0.15656341085011 
794	 0.157435318142275 
795	 0.1582629401746 
796	 0.158977962293904 
797	 0.159667523968575 
798	 0.16042676475048 
799	 0.161304904847581 
800	 0.16203957702453 
801	 0.16272544916046 
802	 0.16344538569667 
803	 0.16422864921304 
804	 0.165006553793048 
805	 0.165738206958949 
806	 0.166427457040111 
807	 0.167174651710539 
808	 0.16770817646179 
809	 0.168084674537233 
810	 0.168454658782571 
811	 0.168887656777423 
812	 0.169198576721277 
813	 0.169482267928451 
814	 0.16994735933455 
815	 0.170319829086723 
816	 0.170532185363081 
817	 0.170617578487583 
818	 0.170679758714984 
819	 0.170421729832362 
820	 0.17004899273595 
821	 0.169794339434573 
822	 0.169805962650618 
823	 0.169268901344058 
824	 0.16821137928685 
825	 0.166962347798312 
826	 0.165738050424772 
827	 0.164532041759611 
828	 0.163177510074948 
829	 0.161551074706542 
830	 0.159943460104864 
831	 0.158348505710289 
832	 0.156892619804214 
833	 0.15577055597969 
834	 0.154800178904995 
835	 0.15385315518354 
836	 0.153030435285578 
837	 0.152655629447118 
838	 0.152291546276704 
839	 0.15185899240005 
840	 0.151406115404919 
841	 0.151073547232087 
842	 0.150820088115947 
843	 0.150494305210763 
844	 0.150006085038568 
845	 0.149558234670517 
846	 0.149163568942924 
847	 0.148790025171321 
848	 0.148401272054182 
849	 0.148086626092519 
850	 0.147806838031749 
851	 0.147441379883859 
852	 0.146897923710409 
853	 0.146762187618519 
854	 0.146634974652543 
855	 0.146143883382481 
856	 0.145171987327718 
857	 0.144416917715987 
858	 0.144058307192555 
859	 0.143984244235362 
860	 0.143840704116361 
861	 0.143381365930755 
862	 0.142831419558905 
863	 0.142441994900183 
864	 0.1421690327001 
865	 0.142101308251298 
866	 0.141891807070698 
867	 0.141227839745635 
868	 0.140537111883868 
869	 0.139667102752221 
870	 0.138920865371259 
871	 0.138635382406663 
872	 0.138318879607033 
873	 0.137920062612311 
874	 0.137335364574203 
875	 0.136495093287613 
876	 0.135872601156203 
877	 0.13515160595687 
878	 0.13424087499853 
879	 0.133377687700973 
880	 0.132935100029737 
881	 0.132511590957356 
882	 0.131873695514584 
883	 0.131185926331926 
884	 0.130286669865213 
885	 0.129478773416409 
886	 0.128886549927899 
887	 0.128153830093918 
888	 0.127523667758809 
889	 0.126817553469123 
890	 0.125989370732529 
891	 0.125590028656931 
892	 0.125052257062399 
893	 0.124416471681113 
894	 0.123897670036314 
895	 0.123575479013303 
896	 0.123180533014524 
897	 0.122700416347001 
898	 0.122234908575549 
899	 0.121798888473861 
900	 0.12116016541676 
901	 0.120200207083204 
902	 0.118991197799846 
903	 0.118037584583414 
904	 0.117262985355905 
905	 0.116634609296176 
906	 0.116175487881107 
907	 0.115989177886885 
908	 0.115768561050776 
909	 0.115117428328816 
910	 0.113785352161589 
911	 0.112791210896361 
912	 0.111932536201805 
913	 0.111095357907228 
914	 0.11033404578757 
915	 0.109142494186032 
916	 0.107550597576689 
917	 0.105866774054421 
918	 0.104534358062152 
919	 0.103065375906752 
920	 0.10160238173302 
921	 0.100194491609688 
922	 9.86575608136068E-02 
923	 9.69025979643328E-02 
924	 9.52007128786246E-02 
925	 9.36881480026285E-02 
926	 9.21619081560167E-02 
927	 9.00890191014093E-02 
928	 8.83395128016611E-02 
929	 8.74882964954946E-02 
930	 0.086901901904944 
931	 8.64400516489771E-02 
932	 8.52575483406385E-02 
933	 8.30433306363719E-02 
934	 8.10747873630762E-02 
935	 7.84886795693605E-02 
936	 7.53257574791432E-02 
937	 7.20980907203941E-02 
938	 6.95782163771287E-02 
939	 6.75754393774225E-02 
940	 6.59818762628943E-02 
941	 6.45171622562984E-02 
942	 6.25967721675093E-02 
943	 6.19078683218393E-02 
944	 6.18141695836175E-02 
945	 6.14110494955378E-02 
946	 6.06571332008601E-02 
947	 5.85948626710316E-02 
948	 5.65309798248617E-02 
949	 5.55314907228527E-02 
950	 5.47999119377157E-02 
951	 5.42118911802736E-02 
952	 5.32233520310421E-02 
953	 5.18978060131854E-02 
954	 5.15872635741821E-02 
955	 5.08146057420205E-02 
956	 5.02458359957944E-02 
957	 5.02463199129153E-02 
958	 4.96064555805982E-02 
959	 4.79968781711264E-02 
960	 0.047156327689486 
961	 4.78540768393537E-02 
962	 0.048257430134981 
963	 4.71628803925944E-02 
964	 4.65769465618346E-02 
965	 4.70298149668197E-02 
966	 4.55513533483937E-02 
967	 0.045701859730657 
968	 4.54112961741347E-02 
969	 0.043974327445873 
970	 0.044437042928967 
971	 4.53537819690968E-02 
972	 4.55476371921765E-02 
973	 4.51841377864314E-02 
974	 4.60673609198273E-02 
975	 4.56109829048564E-02 
976	 4.58943458268491E-02 
977	 4.71602479053924E-02 
978	 4.65198516853647E-02 
979	 4.59770886695899E-02 
980	 4.59489147574114E-02 
981	 4.58335299736886E-02 
982	 4.45919527290632E-02 
983	 0.045062888216034 
984	 4.49662639231736E-02 
985	 4.42972495946317E-02 
986	 4.52812136518119E-02 
987	 4.56781017271877E-02 
988	 4.52838958535319E-02 
989	 4.51765920799252E-02 
990	 4.65146111510096E-02 
991	 4.57388622108573E-02 
992	 4.64141814791279E-02 
993	 4.82904731625207E-02 
994	 0.048568352133896 
995	 0.046664873428925 
996	 4.62451299091752E-02 
997	 4.68572411702646E-02 
998	 4.66316853581892E-02 
999	 4.81024182611063E-02 
1000	 4.73202262699952E-02 
1001	 5.67163461417072E-02 
1002	 5.69026793456026E-02 
1003	 5.70984493752475E-02 
1004	 5.73085564809356E-02 
1005	 5.75482870028795E-02 
1006	 5.77702835871785E-02 
1007	 5.80442631272411E-02 
1008	 5.84077608289704E-02 
1009	 5.86963401566765E-02 
1010	 5.89304601716367E-02 
1011	 5.92245931143308E-02 
1012	 5.95347200738133E-02 
1013	 5.97537567446747E-02 
1014	 0.060029160646294 
1015	 0.060309281141126 
1016	 6.05535236671121E-02 
1017	 6.08251080495413E-02 
1018	 6.11300022654734E-02 
1019	 6.15166413534882E-02 
1020	 6.18138077640311E-02 
1021	 6.20814191680666E-02 
1022	 6.23556507562042E-02 
1023	 6.26121433309756E-02 
1024	 6.27971549621411E-02 
1025	 6.30443257424731E-02 
1026	 0.063347169336006 
1027	 6.37012936913443E-02 
1028	 6.39920055022012E-02 
1029	 6.41854250900289E-02 
1030	 0.06452917856637 
1031	 6.49061777259809E-02 
1032	 6.52504845625815E-02 
1033	 6.56653429569924E-02 
1034	 6.62348091390789E-02 
1035	 6.66367141595428E-02 
1036	 6.69581147589939E-02 
1037	 6.73636457968838E-02 
1038	 6.77136622786108E-02 
1039	 6.81724818995561E-02 
1040	 6.87538182533287E-02 
1041	 6.92764911353159E-02 
1042	 6.97893229301432E-02 
1043	 7.03306834751396E-02 
1044	 7.09277327518677E-02 
1045	 7.14643759780609E-02 
1046	 7.20542500822331E-02 
1047	 7.26746433706206E-02 
1048	 7.31694297970289E-02 
1049	 7.38462233881315E-02 
1050	 7.45445448153745E-02 
1051	 7.53164062046627E-02 
1052	 0.076048364482214 
1053	 7.68416829806931E-02 
1054	 7.75260028361981E-02 
1055	 7.82663171642472E-02 
1056	 7.89559292029361E-02 
1057	 0.079606448585252 
1058	 8.03109403725523E-02 
1059	 8.08931929942282E-02 
1060	 8.15242730709872E-02 
1061	 8.21489140888486E-02 
1062	 8.26642314546242E-02 
1063	 8.31513792721958E-02 
1064	 8.36442644258154E-02 
1065	 0.084047270458997 
1066	 8.43878018203485E-02 
1067	 8.46638314015541E-02 
1068	 8.49962137393543E-02 
1069	 8.51979948487129E-02 
1070	 8.53464661893358E-02 
1071	 8.56198181918566E-02 
1072	 8.57661276996832E-02 
1073	 0.085820839195539 
1074	 8.59604663725123E-02 
1075	 8.60182065220513E-02 
1076	 0.086020638770652 
1077	 8.60501260457595E-02 
1078	 8.59923093104721E-02 
1079	 8.58462704115028E-02 
1080	 8.57340128398373E-02 
1081	 8.55909678840979E-02 
1082	 8.54162753170717E-02 
1083	 8.52148487672937E-02 
1084	 8.50213439922618E-02 
1085	 8.47100769974122E-02 
1086	 8.42965846803932E-02 
1087	 0.083888062810926 
1088	 8.34935779733092E-02 
1089	 8.30756288008543E-02 
1090	 8.26639150560294E-02 
1091	 0.082203196408253 
1092	 8.16932145362382E-02 
1093	 8.12209210589434E-02 
1094	 8.07368113375048E-02 
1095	 8.02676891355538E-02 
1096	 7.98171712092199E-02 
1097	 7.93806266789335E-02 
1098	 7.89141564408488E-02 
1099	 7.84286889659792E-02 
1100	 7.80051502536308E-02 
1101	 7.75932276430609E-02 
1102	 7.72200912376927E-02 
1103	 7.67566446037289E-02 
1104	 7.62689725611827E-02 
1105	 0.07579851514618 
1106	 0.075326718952751 
1107	 7.49535691246885E-02 
1108	 0.074668981215041 
1109	 7.43676096032491E-02 
1110	 7.40282594588206E-02 
1111	 7.37100130539879E-02 
1112	 7.34843148656407E-02 
1113	 7.31026291449166E-02 
1114	 7.25723727389233E-02 
1115	 7.20808586988462E-02 
1116	 7.15537680104924E-02 
1117	 7.08882260209251E-02 
1118	 7.02630815168989E-02 
1119	 0.069517867182206 
1120	 6.87238192691515E-02 
1121	 6.79492485620228E-02 
1122	 6.72487018048704E-02 
1123	 6.66151558887478E-02 
1124	 6.57942541204322E-02 
1125	 6.48556175937973E-02 
1126	 6.39911085799008E-02 
1127	 6.31018381375514E-02 
1128	 6.22592792615621E-02 
1129	 6.15944346016836E-02 
1130	 6.08013137477533E-02 
1131	 5.98430954688407E-02 
1132	 5.91428766168465E-02 
1133	 5.85364347453423E-02 
1134	 5.80035448583125E-02 
1135	 5.74334500219905E-02 
1136	 5.69903873012573E-02 
1137	 5.64611493600935E-02 
1138	 0.055809537601702 
1139	 5.53374338665548E-02 
1140	 5.49172921192975E-02 
1141	 5.44888541111608E-02 
1142	 5.42284737243779E-02 
1143	 0.053911486328393 
1144	 5.36251797080034E-02 
1145	 5.33131832494785E-02 
1146	 5.29753328583035E-02 
1147	 5.26356013494088E-02 
1148	 5.22987072978152E-02 
1149	 5.20179125338613E-02 
1150	 5.17586787699498E-02 
1151	 5.15433518918987E-02 
1152	 0.051402172303948 
1153	 5.12481169940294E-02 
1154	 5.10702573269136E-02 
1155	 0.050895588513204 
1156	 5.07704203305835E-02 
1157	 5.06949977323781E-02 
1158	 5.05831080481546E-02 
1159	 5.05099425087659E-02 
1160	 5.04629523424445E-02 
1161	 5.04318005010986E-02 
1162	 5.03619537828929E-02 
1163	 5.03274298458164E-02 
1164	 5.02685341904039E-02 
1165	 5.01345254927965E-02 
1166	 5.00522968552173E-02 
1167	 5.00052658472186E-02 
1168	 4.99442248588267E-02 
1169	 4.98822730133877E-02 
1170	 4.98248441256446E-02 
1171	 4.97545804446362E-02 
1172	 4.97241966039877E-02 
1173	 4.96682702564881E-02 
1174	 0.049580163986602 
1175	 4.95416597146873E-02 
1176	 4.94471952447179E-02 
1177	 4.93866876715727E-02 
1178	 4.93565045046092E-02 
1179	 4.93028589532353E-02 
1180	 4.92645207969869E-02 
1181	 4.91732314357059E-02 
1182	 4.90039568928772E-02 
1183	 4.89212773552707E-02 
1184	 4.88337273262341E-02 
1185	 4.87735068257267E-02 
1186	 4.88097300781997E-02 
1187	 4.87896512368276E-02 
1188	 4.87301771184838E-02 
1189	 4.87254043243323E-02 
1190	 4.86343594581374E-02 
1191	 4.84968592741054E-02 
1192	 0.048364434735127 
1193	 4.82264469187804E-02 
1194	 4.81891797998738E-02 
1195	 4.82751532033067E-02 
1196	 4.82308579560437E-02 
1197	 4.81848136503799E-02 
1198	 4.81102620856419E-02 
1199	 4.79297163893073E-02 
1200	 4.78411616710393E-02 
1201	 4.77837858951419E-02 
1202	 0.047764640147843 
1203	 4.78144846452409E-02 
1204	 4.78079149884166E-02 
1205	 4.78087871801529E-02 
1206	 4.78052877680891E-02 
1207	 4.77702088063019E-02 
1208	 4.77318619949567E-02 
1209	 4.76717374778129E-02 
1210	 4.76748030501361E-02 
1211	 4.76543148375896E-02 
1212	 4.76406778860092E-02 
1213	 4.76076238721793E-02 
1214	 0.047569507000907 
1215	 4.75568657934614E-02 
1216	 4.75417806196823E-02 
1217	 4.75170505749483E-02 
1218	 4.75168659042478E-02 
1219	 0.047511588196011 
1220	 0.047474393877826 
1221	 4.74560518232453E-02 
1222	 4.74705544735238E-02 
1223	 4.74738965712845E-02 
1224	 0.047466490282976 
1225	 4.74589878582943E-02 
1226	 0.047480175013368 
1227	 4.74586065249872E-02 
1228	 4.73908233080517E-02 
1229	 4.73440900107961E-02 
1230	 4.73001098584707E-02 
1231	 4.72474931188148E-02 
1232	 4.72370692898211E-02 
1233	 4.72666015595589E-02 
1234	 4.72713471225841E-02 
1235	 4.72835175500802E-02 
1236	 4.72970145692928E-02 
1237	 4.73351967745089E-02 
1238	 4.73143618725588E-02 
1239	 4.72601768706026E-02 
1240	 4.72244931846744E-02 
1241	 4.71696267890823E-02 
1242	 4.70989993271605E-02 
1243	 4.70427591638855E-02 
1244	 4.69664267860126E-02 
1245	 4.68550523713548E-02 
1246	 4.67314836010731E-02 
1247	 4.66131984201653E-02 
1248	 4.64722164632836E-02 
1249	 4.62778938223613E-02 
1250	 4.61038339429153E-02 
1251	 4.59009835951029E-02 
1252	 4.57524556689569E-02 
1253	 4.56045876589386E-02 
1254	 4.54523946013499E-02 
1255	 4.53650081404063E-02 
1256	 4.53472081633162E-02 
1257	 4.52597059694419E-02 
1258	 4.51727574101495E-02 
1259	 4.51039068082266E-02 
1260	 0.045013380913859 
1261	 4.49201401346286E-02 
1262	 4.48120867794808E-02 
1263	 4.47916315348134E-02 
1264	 4.47773741464279E-02 
1265	 4.47993116147961E-02 
1266	 4.49554663532425E-02 
1267	 4.50510282889888E-02 
1268	 4.50707334662136E-02 
1269	 4.51719243999491E-02 
1270	 4.53551779987261E-02 
1271	 4.54855585169941E-02 
1272	 4.56304166975068E-02 
1273	 4.57452007768026E-02 
1274	 4.59132893606099E-02 
1275	 4.60677461366989E-02 
1276	 4.62248523645431E-02 
1277	 0.046420944684676 
1278	 4.66207299644263E-02 
1279	 4.68140688006023E-02 
1280	 0.046976263372618 
1281	 0.047173513856866 
1282	 4.73292829507639E-02 
1283	 0.047376509567462 
1284	 4.75325228600374E-02 
1285	 4.77681287598476E-02 
1286	 4.79498109455681E-02 
1287	 4.81642158362339E-02 
1288	 4.83309566656859E-02 
1289	 4.84234846277365E-02 
1290	 4.85648269007662E-02 
1291	 4.87522826813089E-02 
1292	 4.88781602106605E-02 
1293	 4.89773777460912E-02 
1294	 4.90906247952401E-02 
1295	 4.92019681522193E-02 
1296	 4.92473702708214E-02 
1297	 4.93218147798747E-02 
1298	 4.94413728937441E-02 
1299	 0.049474705579625 
1300	 4.94327854988025E-02 
1301	 4.94569750836739E-02 
1302	 4.94669035807977E-02 
1303	 4.95050189012122E-02 
1304	 0.049614263119311 
1305	 4.96367875411345E-02 
1306	 4.96065329100992E-02 
1307	 4.96135008222832E-02 
1308	 4.96305494242631E-02 
1309	 4.95898838080254E-02 
1310	 4.95451535873809E-02 
1311	 4.94800419271595E-02 
1312	 0.04933246218012 
1313	 4.92198000738995E-02 
1314	 4.91004006137227E-02 
1315	 4.90274239435019E-02 
1316	 4.90222027824607E-02 
1317	 4.89440152807213E-02 
1318	 4.88645543702686E-02 
1319	 4.87801690977159E-02 
1320	 4.86834787213402E-02 
1321	 4.84860754688622E-02 
1322	 4.83230165907024E-02 
1323	 4.81662529974725E-02 
1324	 4.80206723726255E-02 
1325	 4.78432933901931E-02 
1326	 4.76872749974762E-02 
1327	 4.75860990733778E-02 
1328	 4.74143113830105E-02 
1329	 4.71863972053944E-02 
1330	 4.69856770545112E-02 
1331	 4.67445969269461E-02 
1332	 4.65786781810382E-02 
1333	 4.64436889050337E-02 
1334	 0.046337149853069 
1335	 0.046285783537619 
1336	 4.62501501542113E-02 
1337	 4.63213469350652E-02 
1338	 4.62602054857432E-02 
1339	 4.60854467786461E-02 
1340	 4.60194737302865E-02 
1341	 4.59469987719975E-02 
1342	 4.58344029617789E-02 
1343	 4.57904634605941E-02 
1344	 4.57398281643538E-02 
1345	 4.56064667341093E-02 
1346	 4.53771826086483E-02 
1347	 4.53884382940294E-02 
1348	 4.53315068594022E-02 
1349	 4.53108836981216E-02 
1350	 4.53621945726275E-02 
1351	 4.52633877252831E-02 
1352	 4.51080688039527E-02 
1353	 4.48148365215605E-02 
1354	 4.38762126690337E-02 
1355	 4.32346315684777E-02 
1356	 4.26408665932757E-02 
1357	 4.25631171159279E-02 
1358	 4.47793625605352E-02 
1359	 4.68480413726143E-02 
1360	 5.12121933928006E-02 
1361	 5.65099558241375E-02 
1362	 6.25229806197867E-02 
1363	 6.45421917259478E-02 
1364	 5.23146204812844E-02 
1365	 4.86526523398773E-02 
1366	 4.75928770653003E-02 
1367	 4.08289918993993E-02 
1368	 3.42412745499722E-02 
1369	 3.54515947634904E-02 
1370	 3.74237109488559E-02 
1371	 3.63866894219456E-02 
1372	 3.95425850614905E-02 
1373	 4.05402182524807E-02 
1374	 3.82463131037492E-02 
1375	 3.49481408088719E-02 
1376	 3.51954980788989E-02 
1377	 3.60371890122038E-02 
1378	 0.035569655262602 
1379	 3.45303742591078E-02 
1380	 3.37406788738743E-02 
1381	 3.16041273824593E-02 
1382	 3.28347591754844E-02 
1383	 3.58543544981377E-02 
1384	 3.73736605951114E-02 
1385	 4.10721431318268E-02 
1386	 4.04910682593634E-02 
1387	 3.73499757380042E-02 
1388	 3.59187299733714E-02 
1389	 3.30788648058486E-02 
1390	 3.25596234013897E-02 
1391	 3.40523245386114E-02 
1392	 3.37110095805288E-02 
1393	 3.33201144691439E-02 
1394	 3.26447587159853E-02 
1395	 3.03739896491854E-02 
1396	 2.98315198167412E-02 
1397	 3.03392786324991E-02 
1398	 3.06728770793731E-02 
1399	 3.17594362655814E-02 
1400	 3.22731537659537E-02 
1401	 3.24344067314238E-02 
1402	 3.24188793674745E-02 
1403	 3.19310202483717E-02 
1404	 3.19704674416942E-02 
1405	 3.20682299887686E-02 
1406	 3.23187503631416E-02 
1407	 3.33204405815749E-02 
1408	 3.37461519466074E-02 
1409	 3.27716540373517E-02 
1410	 3.22038903170639E-02 
1411	 3.15344924052818E-02 
1412	 3.01132867030139E-02 
1413	 3.00324044132346E-02 
1414	 3.06257336467651E-02 
1415	 3.07788568407014E-02 
1416	 3.11533556829906E-02 
1417	 3.11987236725156E-02 
1418	 3.10665414818473E-02 
1419	 3.09197279587116E-02 
1420	 3.06804470694026E-02 
1421	 3.06604464318919E-02 
1422	 0.030616667498615 
1423	 3.06300767771656E-02 
1424	 0.030809488506843 
1425	 3.08702864923588E-02 
1426	 3.10135653532639E-02 
1427	 0.030891343661446 
1428	 3.05697599614052E-02 
1429	 3.03623401023243E-02 
1430	 2.99347171663344E-02 
1431	 2.97352716598564E-02 
1432	 2.97484356975618E-02 
1433	 2.97376431391049E-02 
1434	 2.97556878027676E-02 
1435	 2.98011473901536E-02 
1436	 0.029992713672522 
1437	 2.99980080728732E-02 
1438	 2.98944593161211E-02 
1439	 2.98335511049583E-02 
1440	 0.029678600630763 
1441	 2.95615953323566E-02 
1442	 2.95064381673832E-02 
1443	 2.94495070535277E-02 
1444	 0.029307606769713 
1445	 2.92444380879128E-02 
1446	 2.93083455979249E-02 
1447	 0.029425588535212 
1448	 2.94234445501248E-02 
1449	 2.94415970917342E-02 
1450	 2.94468481730656E-02 
1451	 2.93326188074018E-02 
1452	 2.93598260158821E-02 
1453	 2.95080933311254E-02 
1454	 2.95336775888263E-02 
1455	 2.95523578070508E-02 
1456	 2.95444935037041E-02 
1457	 2.94856501011664E-02 
1458	 2.94449042239553E-02 
1459	 2.93855864490812E-02 
1460	 2.93442534184474E-02 
1461	 2.93098029204943E-02 
1462	 0.029265166257552 
1463	 2.92103658084708E-02 
1464	 2.91879279436701E-02 
1465	 2.91844165322527E-02 
1466	 2.91600336354711E-02 
1467	 2.90963789541683E-02 
1468	 2.91337651339804E-02 
1469	 2.93104413333299E-02 
1470	 2.92856918535146E-02 
1471	 2.92490591215893E-02 
1472	 2.91733682120855E-02 
1473	 2.88462762642005E-02 
1474	 2.87107281830101E-02 
1475	 2.87336866402523E-02 
1476	 2.86896956407714E-02 
1477	 2.86085198640065E-02 
1478	 2.86124681845973E-02 
1479	 2.86817873213076E-02 
1480	 2.86843845700912E-02 
1481	 2.87901026530283E-02 
1482	 2.87618273113905E-02 
1483	 2.85118305801245E-02 
1484	 2.84298460307858E-02 
1485	 2.83898937008378E-02 
1486	 2.83485932049654E-02 
1487	 2.83590742475628E-02 
1488	 2.84349276227447E-02 
1489	 2.84350361830997E-02 
1490	 2.84575609530725E-02 
1491	 0.028431084759596 
1492	 2.83068016832867E-02 
1493	 2.82588274707635E-02 
1494	 2.81811877614384E-02 
1495	 2.81414535895294E-02 
1496	 2.81641315931768E-02 
1497	 2.81719616819745E-02 
1498	 2.81548965213924E-02 
1499	 0.028168113687845 
1500	 2.82255014563072E-02 
1501	 2.82509649098089E-02 
1502	 2.82656575334109E-02 
1503	 2.82666915212538E-02 
1504	 2.82512781823618E-02 
1505	 2.82738246018192E-02 
1506	 2.83030354456645E-02 
1507	 2.83177890693581E-02 
1508	 2.83877601597088E-02 
1509	 2.83597654629651E-02 
1510	 2.82600637228598E-02 
1511	 0.028187219875355 
1512	 2.80304822030837E-02 
1513	 2.80146471223236E-02 
1514	 0.02809598405102 
1515	 2.81081179864055E-02 
1516	 2.81675080510758E-02 
1517	 2.81897469985493E-02 
1518	 2.81666739907251E-02 
1519	 2.81332223877908E-02 
1520	 2.80754637892944E-02 
1521	 2.80712012890138E-02 
1522	 2.80702166741688E-02 
1523	 2.80542445612141E-02 
1524	 0.028089666250433 
1525	 2.80959835473586E-02 
1526	 2.80673419293884E-02 
1527	 2.80136665844353E-02 
1528	 2.79302218780151E-02 
1529	 2.78985473021277E-02 
1530	 2.78218346974619E-02 
1531	 2.78238517502741E-02 
1532	 2.79479961248408E-02 
1533	 2.79997798443824E-02 
1534	 0.028071606312969 
1535	 2.80867634353397E-02 
1536	 0.028050229222097 
1537	 2.80085727473269E-02 
1538	 2.78948109087279E-02 
1539	 2.78456684484441E-02 
1540	 2.78411120001171E-02 
1541	 2.78051802801067E-02 
1542	 2.77802576441171E-02 
1543	 2.77589198758098E-02 
1544	 2.77009364697762E-02 
1545	 2.76691617886572E-02 
1546	 2.76811499865498E-02 
1547	 2.76723145811372E-02 
1548	 2.76662363184416E-02 
1549	 2.76424142383244E-02 
1550	 2.75800193203916E-02 
1551	 2.75583651839909E-02 
1552	 2.75430837742796E-02 
1553	 2.75383400476583E-02 
1554	 2.75731515797522E-02 
1555	 2.75994849472111E-02 
1556	 2.76479241655648E-02 
1557	 2.76543060514997E-02 
1558	 2.76327372568067E-02 
1559	 2.76163415617794E-02 
1560	 2.75169860816581E-02 
1561	 2.75044867123323E-02 
1562	 2.75846854247215E-02 
1563	 2.76280191707827E-02 
1564	 2.76982648203248E-02 
1565	 2.77821182749805E-02 
1566	 2.77920091446439E-02 
1567	 2.77980985995807E-02 
1568	 2.77825852931652E-02 
1569	 2.77394271099525E-02 
1570	 2.77424380878934E-02 
1571	 2.77433619675702E-02 
1572	 2.77476282032657E-02 
1573	 2.77869520239526E-02 
1574	 2.78005390356567E-02 
1575	 2.77824682683765E-02 
1576	 0.027804652605314 
1577	 0.027860583131095 
1578	 2.78713439898969E-02 
1579	 2.78786107070382E-02 
1580	 2.78658132854454E-02 
1581	 2.78061002260205E-02 
1582	 2.78186205668063E-02 
1583	 2.78500592855863E-02 
1584	 2.78904195002489E-02 
1585	 2.79774589566442E-02 
1586	 2.80213474030578E-02 
1587	 2.80535137563359E-02 
1588	 2.80768980960005E-02 
1589	 0.028079896304572 
1590	 2.81131566868296E-02 
1591	 2.81721900033632E-02 
1592	 2.81580635495635E-02 
1593	 2.81177007135695E-02 
1594	 2.81065368727849E-02 
1595	 2.80616737744393E-02 
1596	 2.80200738702371E-02 
1597	 2.80165451435561E-02 
1598	 0.027980132128944 
1599	 2.78613748242455E-02 
1600	 0.027865247528411 
1601	 2.79586338855184E-02 
1602	 0.027972101893501 
1603	 2.80031255919869E-02 
1604	 2.80145635899132E-02 
1605	 2.79875972225522E-02 
1606	 2.79499557843421E-02 
1607	 2.79130934174983E-02 
1608	 0.027877122755518 
1609	 2.77747784633381E-02 
1610	 2.77846331264314E-02 
1611	 2.79029785443174E-02 
1612	 0.027893560993651 
1613	 2.78713333411767E-02 
1614	 2.78394690725874E-02 
1615	 2.76927493786457E-02 
1616	 2.77062927707788E-02 
1617	 2.78425005805762E-02 
1618	 2.78608139926429E-02 
1619	 2.78937382556367E-02 
1620	 2.78826482378874E-02 
1621	 2.77912636419179E-02 
1622	 0.027744311624229 
1623	 2.77111659530869E-02 
1624	 2.76892182507348E-02 
1625	 2.76688345997968E-02 
1626	 2.76289743472862E-02 
1627	 2.75911622712816E-02 
1628	 2.75742376707649E-02 
1629	 2.75259498405707E-02 
1630	 2.75421952433398E-02 
1631	 2.76177074226954E-02 
1632	 2.76764264437305E-02 
1633	 2.77832954259303E-02 
1634	 2.77902487086802E-02 
1635	 2.77529682638127E-02 
1636	 2.77390992219228E-02 
1637	 2.76824624285093E-02 
1638	 2.76237162311612E-02 
1639	 2.75539981445862E-02 
1640	 2.75606902973048E-02 
1641	 2.75555172655665E-02 
1642	 2.75999221934686E-02 
1643	 2.77963139338035E-02 
1644	 2.78049913794753E-02 
1645	 0.027691532911143 
1646	 2.76975223727507E-02 
1647	 0.027696274499627 
1648	 2.76936548675256E-02 
1649	 2.77509967725102E-02 
1650	 2.77728653256388E-02 
1651	 2.77405333964401E-02 
1652	 2.77445703739213E-02 
1653	 2.78008533275773E-02 
1654	 2.77944919366275E-02 
1655	 2.77462507155883E-02 
1656	 2.77054757508849E-02 
1657	 2.76686431013671E-02 
1658	 2.75770846356786E-02 
1659	 0.027495138945063 
1660	 2.74831753417854E-02 
1661	 2.74228959835926E-02 
1662	 2.73929975467172E-02 
1663	 2.74094117086634E-02 
1664	 2.74467421796025E-02 
1665	 0.027564526199378 
1666	 2.76483274005818E-02 
1667	 2.76313255002578E-02 
1668	 2.76574112118855E-02 
1669	 2.76373768233593E-02 
1670	 2.76284405819605E-02 
1671	 2.77200820842839E-02 
1672	 2.77657018607157E-02 
1673	 2.77076596763105E-02 
1674	 2.76804558854935E-02 
1675	 2.77163218578564E-02 
1676	 0.02765699089333 
1677	 2.75974157242538E-02 
1678	 2.76306720052643E-02 
1679	 2.76355495155951E-02 
1680	 2.76081777413308E-02 
1681	 2.76327461127055E-02 
1682	 2.75294205967348E-02 
1683	 0.027396119687409 
1684	 2.73877080207643E-02 
1685	 2.73584244554616E-02 
1686	 2.74058184198969E-02 
1687	 2.74683545400701E-02 
1688	 2.74149106377878E-02 
1689	 2.73593870489512E-02 
1690	 2.72447567754224E-02 
1691	 2.72063670447469E-02 
1692	 0.027302765677985 
1693	 2.73077416869745E-02 
1694	 2.72710058526884E-02 
1695	 2.72781511753135E-02 
1696	 2.71971790976753E-02 
1697	 2.72143110333309E-02 
1698	 2.74187940574352E-02 
1699	 2.74560715935877E-02 
1700	 2.74363376698474E-02 
1701	 2.74371595500317E-02 
1702	 2.73293131659436E-02 
1703	 2.72742057703484E-02 
1704	 2.72416344768588E-02 
1705	 2.72534103795855E-02 
1706	 2.73007377029242E-02 
1707	 2.73413403429351E-02 
1708	 2.75177491967031E-02 
1709	 0.02754925291325 
1710	 2.73910719513761E-02 
1711	 2.73599487660769E-02 
1712	 2.73590157278427E-02 
1713	 2.73132542004124E-02 
1714	 2.73450137275918E-02 
1715	 2.73591347519837E-02 
1716	 2.72129043935797E-02 
1717	 2.72147540451248E-02 
1718	 2.73993260630234E-02 
1719	 2.74248133798612E-02 
1720	 2.74379984937835E-02 
1721	 2.74425848856558E-02 
1722	 2.73402116368698E-02 
1723	 2.72500297802171E-02 
1724	 2.71784873593037E-02 
1725	 2.71387990576228E-02 
1726	 2.71102390416752E-02 
1727	 2.70047974539333E-02 
1728	 2.68840789892977E-02 
1729	 2.68126250058583E-02 
1730	 2.66182539600375E-02 
1731	 2.67483286355336E-02 
1732	 2.69438721994076E-02 
1733	 2.69635525854877E-02 
1734	 2.69915084727866E-02 
1735	 0.026960138402786 
1736	 2.67230132950522E-02 
1737	 2.67428675788593E-02 
1738	 2.69560962699428E-02 
1739	 0.026985281590428 
1740	 2.70985726150262E-02 
1741	 2.70769369112978E-02 
1742	 2.69006385021284E-02 
1743	 2.69758707174877E-02 
1744	 2.70520498155177E-02 
1745	 0.026976229642421 
1746	 2.69005928530072E-02 
1747	 2.67905006829437E-02 
1748	 2.66413895162746E-02 
1749	 0.026643087524673 
1750	 2.66814309362011E-02 
1751	 2.65352741361339E-02 
1752	 0.026408273934892 
1753	 2.63407519106111E-02 
1754	 2.62272107527406E-02 
1755	 2.60248493071015E-02 
1756	 0.025881249517156 
1757	 2.57755546206237E-02 
1758	 2.57562566747247E-02 
1759	 2.60551087770005E-02 
1760	 2.60711490651192E-02 
1761	 2.59486201991442E-02 
1762	 2.58575153049036E-02 
1763	 2.56310059021525E-02 
1764	 2.54955284466332E-02 
1765	 2.54045516579132E-02 
1766	 2.52554311842725E-02 
1767	 2.50237559463383E-02 
1768	 2.49744686250438E-02 
1769	 2.50680468795308E-02 
1770	 2.50173230179132E-02 
1771	 2.50573356184492E-02 
1772	 2.49870518419433E-02 
1773	 2.46606022169669E-02 
1774	 2.46966754070604E-02 
1775	 2.45868863271042E-02 
1776	 2.44963426156701E-02 
1777	 2.46518594314094E-02 
1778	 2.45641639548235E-02 
1779	 2.44473137033683E-02 
1780	 2.44328037475331E-02 
1781	 2.43716965291861E-02 
1782	 2.42901005757364E-02 
1783	 2.42204293851215E-02 
1784	 2.40285806478947E-02 
1785	 2.35856826042285E-02 
1786	 2.33374340850283E-02 
1787	 0.023149224308286 
1788	 2.28374053037307E-02 
1789	 0.022710227641188 
1790	 2.26546419544322E-02 
1791	 2.27530070308751E-02 
1792	 2.27574393514328E-02 
1793	 2.27797831022532E-02 
1794	 2.27240837896712E-02 
1795	 2.22468294320735E-02 
1796	 2.22614653893373E-02 
1797	 2.24384888650137E-02 
1798	 2.22919141902027E-02 
1799	 2.25111130641454E-02 
1800	 2.26788545180435E-02 
1801	 1.76113593522026E-02 
1802	 1.71853635926982E-02 
1803	 1.73846354384936E-02 
1804	 1.82425832242922E-02 
1805	 1.86167424149588E-02 
1806	 1.87214759164495E-02 
1807	 1.92697607417934E-02 
1808	 2.04098190193872E-02 
1809	 2.04719158284758E-02 
1810	 0.021069745518161 
1811	 2.24686500847467E-02 
1812	 2.29428316060972E-02 
1813	 2.25618843509226E-02 
1814	 2.25678718976835E-02 
1815	 2.25958834152301E-02 
1816	 2.21583600216856E-02 
1817	 2.13285556906786E-02 
1818	 2.02903532306498E-02 
1819	 1.88340044556165E-02 
1820	 1.55247052652847E-02 
1821	 1.48994211523401E-02 
1822	 1.59312963118002E-02 
1823	 1.63789875869837E-02 
1824	 1.99532986548417E-02 
1825	 2.11617466659729E-02 
1826	 1.83431208207292E-02 
1827	 0.018730151403616 
1828	 2.04040089205429E-02 
1829	 2.27671492812141E-02 
1830	 2.82968573386277E-02 
1831	 4.76406283290731E-02 
1832	 5.55594754483287E-02 
1833	 5.55915351404198E-02 
1834	 5.72515707643169E-02 
1835	 2.33458099703937E-02 
1836	 1.13367498863306E-02 
1837	 0.04609847922765 
1838	 4.68021733110101E-02 
1839	 3.67680521280927E-02 
1840	 1.50765659028473E-02 
1841	 1.52670511035448E-02 
1842	-2.89441735147258E-03 
1843	-3.43682696388322E-03 
1844	 3.54751631654656E-02 
1845	 4.68463288196656E-02 
1846	 2.91840222205613E-02 
1847	 0.032812844323005 
1848	 4.29515501292295E-02 
1849	 6.79443983913243E-02 
1850	 7.41012494263824E-02 
1851	 8.84329713174927E-02 
1852	 8.33409155268608E-02 
1853	 4.13339356874245E-02 
1854	 3.63651120331601E-02 
1855	 5.62764121176493E-02 
1856	 5.24379960425736E-02 
1857	 4.74557840536746E-02 
1858	 4.83170723622952E-02 
1859	 4.32453913089335E-02 
1860	 1.57597382573351E-02 
1861	 1.70386167994077E-02 
1862	 3.48864527304093E-02 
1863	 4.43086434380407E-02 
1864	 6.24165778077512E-02 
1865	 7.01556563451691E-02 
1866	 6.64017214614586E-02 
1867	 8.26135821731714E-02 
1868	 8.67647241000933E-02 
1869	 8.21733502284156E-02 
1870	 0.064875119671031 
1871	 1.98182201902731E-02 
1872	 8.7524063678347E-03 
1873	 2.71945514066126E-04 
1874	 4.22866011517159E-03 
1875	 3.43630516233462E-02 
1876	 4.31519499456495E-02 
1877	 3.91939177709649E-02 
1878	 4.27101157288788E-02 
1879	 5.87980854554969E-02 
1880	 0.06563133235319 
1881	 6.34522893027569E-02 
1882	 6.25155924876209E-02 
1883	 0.057483129754502 
1884	 3.92898498379489E-02 
1885	 3.21178452278483E-02 
1886	 2.87713938480933E-02 
1887	 2.61971204566115E-02 
1888	 3.12935270321312E-02 
1889	 2.92346276813729E-02 
1890	 2.97633782847202E-02 
1891	 0.036778484973242 
1892	 3.58254087595999E-02 
1893	 2.65392692613931E-02 
1894	 2.51587993028705E-02 
1895	 2.28289911385457E-02 
1896	 2.12411347922005E-02 
1897	 0.025352540713549 
1898	 2.95719993322139E-02 
1899	 2.79259706042824E-02 
1900	 3.10121184264397E-02 
1901	 3.67041522972705E-02 
1902	 5.51053819841045E-02 
1903	 5.23473074036088E-02 
1904	 3.46511631417998E-02 
1905	 2.78657382376228E-02 
1906	 5.41276196530578E-03 
1907	-6.75183752919367E-03 
1908	 2.67176206616081E-02 
1909	 4.77388543715278E-02 
1910	 4.71209346299909E-02 
1911	 4.79558357404822E-02 
1912	 0.043559326045233 
1913	 0.027519563524976 
1914	 2.12683627387352E-02 
1915	 1.91773206648968E-02 
1916	 0.018309698346031 
1917	 1.72154122005883E-02 
1918	 1.64543462788711E-02 
1919	 2.02418459219362E-02 
1920	 2.04746553680793E-02 
1921	 1.89489156992863E-02 
1922	 2.21538207163137E-02 
1923	 2.25744356777926E-02 
1924	 2.17160402026835E-02 
1925	 2.21195531949449E-02 
1926	 0.022778422373262 
1927	 2.22956663494082E-02 
1928	 2.17612586020919E-02 
1929	 2.18834058345291E-02 
1930	 2.01385809501205E-02 
1931	 1.91979730642802E-02 
1932	 1.96327640772446E-02 
1933	 1.94829325548713E-02 
1934	 1.91141636219589E-02 
1935	 1.92905299001852E-02 
1936	 0.018482780200704 
1937	 1.66943077691758E-02 
1938	 0.015989032570405 
1939	 1.53943604376839E-02 
1940	 1.47219068643535E-02 
1941	 1.52151424086667E-02 
1942	 1.53131501095957E-02 
1943	 1.48022849114948E-02 
1944	 1.45823890514303E-02 
1945	 0.014732981707958 
1946	 1.56124111991938E-02 
1947	 1.57883072513671E-02 
1948	 1.61130715107168E-02 
1949	 1.60502961734926E-02 
1950	 1.54586002939153E-02 
1951	 0.014872893763252 
1952	 1.45305671247432E-02 
1953	 1.47247620415763E-02 
1954	 1.53169819156258E-02 
1955	 1.49739271969952E-02 
1956	 1.35346448514287E-02 
1957	 1.31031920381212E-02 
1958	 1.26284724087549E-02 
1959	 1.14033624615049E-02 
1960	 1.10884267804725E-02 
1961	 1.14619129542194E-02 
1962	 0.011806372705485 
1963	 1.21832557623937E-02 
1964	 0.01297194106322 
1965	 0.013046694852093 
1966	 1.31947393354492E-02 
1967	 1.34261660546447E-02 
1968	 1.37047620587208E-02 
1969	 1.37874678102722E-02 
1970	 1.39998812849019E-02 
1971	 1.40128713745375E-02 
1972	 1.38072988084336E-02 
1973	 1.35030225836277E-02 
1974	 1.34244283701136E-02 
1975	 0.013309538755722 
1976	 1.31550911035717E-02 
1977	 1.31008653547093E-02 
1978	 1.31671342600649E-02 
1979	 1.35995229752247E-02 
1980	 1.38791595273347E-02 
1981	 1.38818520293903E-02 
1982	 1.39820805541759E-02 
1983	 0.014070399947878 
1984	 1.39588329122718E-02 
1985	 1.40952949606278E-02 
1986	 1.45005534358199E-02 
1987	 1.45682641053362E-02 
1988	 1.45248168332586E-02 
1989	 1.41689330285563E-02 
1990	 1.37531261918669E-02 
1991	 0.013730936605785 
1992	 1.38755296697922E-02 
1993	 0.014512137870543 
1994	 1.52286065403379E-02 
1995	 1.55736179333785E-02 
1996	 1.57527146234202E-02 
1997	 1.56896261851473E-02 
1998	 1.53256059507945E-02 
1999	 1.49980949739589E-02 
2000	 1.48563448960577E-02 
2001	 1.50723580709669E-02 
2002	 1.52991815051502E-02 
2003	 1.53379782357092E-02 
2004	 1.53907597586314E-02 
2005	 1.54851464234101E-02 
2006	 1.54247954416483E-02 
2007	 0.015267301462661 
2008	 1.50312764101412E-02 
2009	 1.46213920216827E-02 
2010	 1.39654542209334E-02 
2011	 1.36744911017758E-02 
2012	 1.36797201893807E-02 
2013	 1.37522663157294E-02 
2014	 1.37404616420065E-02 
2015	 1.38274270937276E-02 
2016	 1.37287990494421E-02 
2017	 1.33276026395387E-02 
2018	 1.33340816097777E-02 
2019	 1.34046540723938E-02 
2020	 1.35369952195678E-02 
2021	 1.34518676677793E-02 
2022	 1.34608791548553E-02 
2023	 1.36505589274522E-02 
2024	 0.013436244518584 
2025	 1.32537140831458E-02 
2026	 1.35020799691462E-02 
2027	 1.32181142960999E-02 
2028	 1.30863400204199E-02 
2029	 1.34417304729136E-02 
2030	 1.36003985204684E-02 
2031	 0.013668508706369 
2032	 1.37750661152516E-02 
2033	 1.39660289392796E-02 
2034	 1.39771727195377E-02 
2035	 1.36123912702369E-02 
2036	 1.37682429742855E-02 
2037	 1.40561564045173E-02 
2038	 1.37103657060995E-02 
2039	 1.38744105737514E-02 
2040	 1.40767495664196E-02 
2041	 1.39315309931924E-02 
2042	 1.40162254867977E-02 
2043	 1.42156374823238E-02 
2044	 1.44133498008301E-02 
2045	 1.44295653375918E-02 
2046	 1.43483476574582E-02 
2047	 1.43375507036086E-02 
2048	 1.42173252274616E-02 
2049	 1.40509896319442E-02 
2050	 1.40589533518818E-02 
2051	 1.39996039073178E-02 
2052	 1.41508974378761E-02 
2053	 1.43742055610459E-02 
2054	 1.46613067617999E-02 
2055	 1.49211385383665E-02 
2056	 1.46454546043111E-02 
2057	 1.43874276611725E-02 
2058	 0.014196214053238 
2059	 1.39446219770168E-02 
2060	 1.37157171985657E-02 
2061	 1.38345703158096E-02 
2062	 1.35626021913528E-02 
2063	 1.31250317623821E-02 
2064	 1.31159265035621E-02 
2065	 1.30214842771925E-02 
2066	 1.31677891880798E-02 
2067	 1.37268329953964E-02 
2068	 1.39949120671091E-02 
2069	 1.44694064642845E-02 
2070	 1.46223605417053E-02 
2071	 1.40953715452009E-02 
2072	 1.38898612097903E-02 
2073	 1.36538743981276E-02 
2074	 0.013210902627463 
2075	 1.30821052786913E-02 
2076	 0.013572111815462 
2077	 1.35163298140089E-02 
2078	 1.34605891726701E-02 
2079	 1.36515218320282E-02 
2080	 1.33372732408625E-02 
2081	 1.31511249754225E-02 
2082	 1.32222281547388E-02 
2083	 1.33407845743092E-02 
2084	 1.35645729076446E-02 
2085	 1.38719216664095E-02 
2086	 1.42079162719731E-02 
2087	 1.41901943063995E-02 
2088	 0.013865315954415 
2089	 1.35049186827104E-02 
2090	 1.32997218776957E-02 
2091	 1.30802364853956E-02 
2092	 1.32280755882368E-02 
2093	 1.35212260406657E-02 
2094	 1.35591620541382E-02 
2095	 1.35699044869161E-02 
2096	 0.01350727833592 
2097	 1.33222788554612E-02 
2098	 1.34025309273841E-02 
2099	 1.34243880779859E-02 
2100	 1.32957618555047E-02 
2101	 1.32341408922426E-02 
2102	 1.31520515966811E-02 
2103	 1.29321680798958E-02 
2104	 1.28404370126038E-02 
2105	 1.28492722582162E-02 
2106	 1.28618019762348E-02 
2107	 1.29110099906046E-02 
2108	 1.27378724597523E-02 
2109	 1.27560868555831E-02 
2110	 1.33306175820755E-02 
2111	 1.37238399187551E-02 
2112	 1.39248407059086E-02 
2113	 1.40860015660964E-02 
2114	 1.36168776502154E-02 
2115	 1.30670509462314E-02 
2116	 0.012982523383899 
2117	 1.29226827251798E-02 
2118	 0.013103524356768 
2119	 1.31667879567877E-02 
2120	 1.33675525681719E-02 
2121	 1.31665315199105E-02 
2122	 1.30107140009603E-02 
2123	 1.28601279539393E-02 
2124	 1.28596379115997E-02 
2125	 1.32004512441284E-02 
2126	 1.34739269371849E-02 
2127	 1.34083142316548E-02 
2128	 1.31672189514478E-02 
2129	 1.29526671719644E-02 
2130	 1.27072893916768E-02 
2131	 1.25139612150323E-02 
2132	 1.22750987196303E-02 
2133	 1.19690484182545E-02 
2134	 0.012004244655242 
2135	 1.21714245980355E-02 
2136	 1.26702280662459E-02 
2137	 1.31296000947502E-02 
2138	 1.33600857721595E-02 
2139	 1.32005347991765E-02 
2140	 0.012800067389224 
2141	 1.26035972078828E-02 
2142	 1.24738205273918E-02 
2143	 0.012528315590033 
2144	 1.28822932803106E-02 
2145	 1.27772641395358E-02 
2146	 1.25836954603048E-02 
2147	 1.25924556307043E-02 
2148	 1.20187528256745E-02 
2149	 1.17364567916252E-02 
2150	 1.20409143929279E-02 
2151	 1.21258156131368E-02 
2152	 1.23051895048476E-02 
2153	 1.24097893716532E-02 
2154	 1.25663310083976E-02 
2155	 1.22410806021366E-02 
2156	 1.19942524847154E-02 
2157	 1.20367443878576E-02 
2158	 1.21722130993481E-02 
2159	 1.25231210962596E-02 
2160	 1.31424625651414E-02 
2161	 1.32739604012392E-02 
2162	 1.32989517506699E-02 
2163	 1.35160790927762E-02 
2164	 1.32972231137932E-02 
2165	 1.33604991555003E-02 
2166	 1.33694670587914E-02 
2167	 1.28912522338126E-02 
2168	 1.27326753340665E-02 
2169	 1.27253006803765E-02 
2170	 0.012597615954051 
2171	 1.24434598918483E-02 
2172	 1.26362472703507E-02 
2173	 1.24692349452349E-02 
2174	 1.23083874464307E-02 
2175	 1.23688690365212E-02 
2176	 1.18734610818305E-02 
2177	 1.17042885842167E-02 
2178	 1.18184962432811E-02 
2179	 1.18445910247821E-02 
2180	 1.22196995467531E-02 
2181	 0.012393016266058 
2182	 1.25167724428137E-02 
2183	 1.25197735881056E-02 
2184	 1.24444320679848E-02 
2185	 1.26346546580721E-02 
2186	 1.28495084273858E-02 
2187	 1.27783704332402E-02 
2188	 1.23087752363544E-02 
2189	 1.22488476965463E-02 
2190	 1.23434347489686E-02 
2191	 1.20496143446165E-02 
2192	 1.19919498225479E-02 
2193	 1.24304628823338E-02 
2194	 0.012298238306765 
2195	 0.012046834861268 
2196	 1.17658520547506E-02 
2197	 1.16692755592923E-02 
2198	 1.16438854245438E-02 
2199	 1.16260026441613E-02 
2200	 1.21623315815441E-02 
2201	 1.23622310189144E-02 
2202	 1.22714880936513E-02 
2203	 1.22299589292022E-02 
2204	 1.18854788749821E-02 
2205	 1.16374717691533E-02 
2206	 1.17605043307248E-02 
2207	 1.22149364714452E-02 
2208	 1.23548163501163E-02 
2209	 1.25460212699119E-02 
2210	 1.26179040072006E-02 
2211	 1.25802991013349E-02 
2212	 1.19894716270802E-02 
2213	 1.16784079694732E-02 
2214	 1.12663139749656E-02 
2215	 0.010976966195919 
2216	 1.10503869040615E-02 
2217	 1.14465869819087E-02 
2218	 1.22596954086674E-02 
2219	 1.24328148774703E-02 
2220	 1.26015882144537E-02 
2221	 1.26203189804269E-02 
2222	 1.19005169229891E-02 
2223	 1.15486640726304E-02 
2224	 1.10661697187371E-02 
2225	 1.04556434285227E-02 
2226	 1.04867268300928E-02 
2227	 1.07077392655452E-02 
2228	 1.11829196429197E-02 
2229	 1.18348038109651E-02 
2230	 1.21390077308737E-02 
2231	 1.21680323194296E-02 
2232	 1.15723455927487E-02 
2233	 1.13538756585963E-02 
2234	 1.10002905786218E-02 
2235	 1.11307989165148E-02 
2236	 1.12289116514529E-02 
2237	 1.14025371837147E-02 
2238	 1.16237613690501E-02 
2239	 1.14799339660382E-02 
2240	 1.14610668566195E-02 
2241	 1.15505553628042E-02 
2242	 1.15284402080948E-02 
2243	 1.14530844091088E-02 
2244	 1.14405400778184E-02 
2245	 1.14035859727605E-02 
2246	 1.12615204214056E-02 
2247	 1.12862837632167E-02 
2248	 1.11222614221511E-02 
2249	 1.09988139506789E-02 
2250	 1.12181477751021E-02 
2251	 1.08445338682963E-02 
2252	 1.03230487301485E-02 
2253	 1.05686660206383E-02 
2254	 0.010550382661792 
2255	 1.04216160077866E-02 
2256	 1.04676947147122E-02 
2257	 1.08028035711507E-02 
2258	 0.010605243194922 
2259	 1.07746931539941E-02 
2260	 0.011209208345873 
2261	 1.16962698420917E-02 
2262	 0.01198684467156 
2263	 1.17090998040493E-02 
2264	 1.14819689979582E-02 
2265	 1.13626091615372E-02 
2266	 1.16097891757697E-02 
2267	 1.17901392125595E-02 
2268	 1.19016291477069E-02 
2269	 1.17139078427676E-02 
2270	 1.06360095599476E-02 
2271	 9.76656422625519E-03 
2272	 9.30619981654855E-03 
2273	 9.1682811521419E-03 
2274	 9.81245502615898E-03 
2275	 1.03897386389388E-02 
2276	 1.08129941456336E-02 
2277	 1.12585838283871E-02 
2278	 1.08968518086713E-02 
2279	 1.05078574958928E-02 
2280	 1.02685844115495E-02 
2281	 9.7330620234471E-03 
2282	 9.59951225092427E-03 
2283	 9.78904121766329E-03 
2284	 1.00899767493695E-02 
2285	 1.07867016038226E-02 
2286	 0.011204530892551 
2287	 1.17457842468363E-02 
2288	 1.15738621091391E-02 
2289	 1.14324174842374E-02 
2290	 1.12935428870703E-02 
2291	 1.09555018771376E-02 
2292	 1.12101518453094E-02 
2293	 1.11672024633753E-02 
2294	 1.08352389811112E-02 
2295	 1.07607691095399E-02 
2296	 1.09935352884971E-02 
2297	 1.13125811879473E-02 
2298	 1.09363710516583E-02 
2299	 1.06151707358664E-02 
2300	 1.02817416540823E-02 
2301	 1.00691993225247E-02 
2302	 9.86965958391145E-03 
2303	 9.33005777100636E-03 
2304	 9.35630350105436E-03 
2305	 9.18187847850525E-03 
2306	 9.27422753666633E-03 
2307	 9.85304824304125E-03 
2308	 9.67064099458487E-03 
2309	 9.41241090566007E-03 
2310	 9.41500770725006E-03 
2311	 9.61370645442944E-03 
2312	 9.91745533632532E-03 
2313	 9.87035809104682E-03 
2314	 9.68350639302585E-03 
2315	 9.72703422150116E-03 
2316	 9.64137806165574E-03 
2317	 9.11182759923892E-03 
2318	 9.04514878747291E-03 
2319	 9.22463710689748E-03 
2320	 8.96216232606649E-03 
2321	 8.76692960417516E-03 
2322	 9.13607171466222E-03 
2323	 9.08969826544159E-03 
2324	 8.5511804792799E-03 
2325	 8.13033075449502E-03 
2326	 8.27825503830346E-03 
2327	 8.02427933153482E-03 
2328	 7.42838220211872E-03 
2329	 7.27799093426628E-03 
2330	 7.93509211586191E-03 
2331	 8.19152892328523E-03 
2332	 9.61166137979536E-03 
2333	 1.13134713795608E-02 
2334	 1.09926754008301E-02 
2335	 0.01056339844707 
2336	 9.13968588687859E-03 
2337	 7.78512943900632E-03 
2338	 8.05677476080588E-03 
2339	 8.13597134297199E-03 
2340	 8.90673340611226E-03 
2341	 9.25444794661553E-03 
2342	 8.3761833981481E-03 
2343	 8.8168300126377E-03 
2344	 8.97838084441066E-03 
2345	 9.01132052871352E-03 
2346	 9.7665597571633E-03 
2347	 8.67464396900121E-03 
2348	 7.87710589726568E-03 
2349	 8.26793772388749E-03 
2350	 7.63368505813159E-03 
2351	 7.85471940378579E-03 
2352	 8.88467060773336E-03 
2353	 8.77577772345762E-03 
2354	 8.88415694878826E-03 
2355	 7.85293725862167E-03 
2356	 6.76089129303923E-03 
2357	 7.53521086662455E-03 
2358	 7.13569586923213E-03 
2359	 8.7966913098027E-03 
2360	 1.07004754259022E-02 
2361	 9.93105701603135E-03 
2362	 1.04605939037144E-02 
2363	 9.84253656159082E-03 
2364	 9.4195693316484E-03 
2365	 1.03470250070568E-02 
2366	 9.62902311498747E-03 
2367	 9.7428307543318E-03 
2368	 9.55536823181921E-03 
2369	 7.95041841580697E-03 
2370	 8.38584694454746E-03 
2371	 8.81941712013341E-03 
2372	 8.59404040346274E-03 
2373	 8.62168749194359E-03 
2374	 7.98513829620479E-03 
2375	 5.30843451640094E-03 
2376	 5.48957394424873E-03 
2377	 7.22787408901219E-03 
2378	 8.43333248339772E-03 
2379	 1.15298824370762E-02 
2380	 0.012103601401856 
2381	 1.05149853198567E-02 
2382	 1.03055685444825E-02 
2383	 1.05595132811739E-02 
2384	 1.07307065469785E-02 
2385	 1.07363106620696E-02 
2386	 1.04614415555516E-02 
2387	 9.23055104873886E-03 
2388	 8.20255679499725E-03 
2389	 8.04919960967687E-03 
2390	 8.45625652529816E-03 
2391	 9.26926594121873E-03 
2392	 0.0098506278847 
2393	 1.05653430816798E-02 
2394	 9.70486035449517E-03 
2395	 7.2176403115067E-03 
2396	 6.02723233627057E-03 
2397	 5.1991270247685E-03 
2398	 5.17316566219547E-03 
2399	 5.90730707033914E-03 
2400	 7.14296333280792E-03 
2401	 8.76013466225358E-03 
2402	 1.03729611690607E-02 
2403	 0.013097309437429 
2404	 0.014842144416891 
2405	 1.33743726969071E-02 
2406	 1.07802805586499E-02 
2407	 7.26773958027782E-03 
2408	 2.78286599695703E-03 
2409	 1.52844692348436E-03 
2410	 1.80524333787952E-03 
2411	 3.20375978886491E-03 
2412	 7.20716732751534E-03 
2413	 0.011051607528042 
2414	 1.24791293556119E-02 
2415	 1.29730553822828E-02 
2416	 1.20238171890017E-02 
2417	 1.00591276660114E-02 
2418	 1.01541064205491E-02 
2419	 1.05075152068353E-02 
2420	 1.07042981066247E-02 
2421	 1.11123769451392E-02 
2422	 1.19554933960117E-02 
2423	 1.20116164606518E-02 
2424	 1.17238526353981E-02 
2425	 0.013228603004578 
2426	 1.30392657400096E-02 
2427	 9.29659274656238E-03 
2428	 6.49020620739229E-03 
2429	 5.57761296012253E-03 
2430	 3.99650259581528E-03 
2431	 4.43551410077305E-03 
2432	 6.36895191171401E-03 
2433	 5.65086863850541E-03 
2434	 6.50614168399904E-03 
2435	 1.12315401864951E-02 
2436	 1.48468482317478E-02 
2437	 1.79756220220185E-02 
2438	 2.00030275643716E-02 
2439	 2.11866290270079E-02 
2440	 2.10208660544009E-02 
2441	 0.020685147229152 
2442	 1.84971640492219E-02 
2443	 1.31563742977168E-02 
2444	 1.01496626305549E-02 
2445	 4.06219871161253E-03 
2446	 1.77247740312339E-03 
2447	 4.57819504745223E-03 
2448	 6.18146668503416E-03 
2449	 0.010925096675118 
2450	 1.34023329010803E-02 
2451	 1.37595299498791E-02 
2452	 1.43157961898832E-02 
2453	 1.46491558107021E-02 
2454	 1.36622201984373E-02 
2455	 1.17825054768763E-02 
2456	 9.63967935328251E-03 
2457	 3.63958360074653E-03 
2458	 2.21699417882571E-03 
2459	 5.11226875134962E-03 
2460	 6.62111968820153E-03 
2461	 0.01095598377566 
2462	 1.26945115438981E-02 
2463	 0.011363955006204 
2464	 9.98857277116399E-03 
2465	 6.48404936516235E-03 
2466	 6.99717059321708E-03 
2467	 9.03731438425638E-03 
2468	 1.09207205085581E-02 
2469	 1.73603146332112E-02 
2470	 1.98630137250997E-02 
2471	 2.19869404183386E-02 
2472	 2.04427030538107E-02 
2473	 1.17086822987897E-02 
2474	 6.91369345635222E-03 
2475	-9.77714107109071E-04 
2476	-2.00528238637274E-03 
2477	 6.1755455600139E-03 
2478	 6.5319363189735E-03 
2479	 5.77841900588946E-03 
2480	 6.45319757388359E-03 
2481	 2.9931629574017E-04 
2482	 6.84363659465837E-03 
2483	 2.84023446981206E-02 
2484	 3.02502015808947E-02 
2485	 3.04904796740775E-02 
2486	 9.75937886646493E-03 
2487	-7.61788974754677E-03 
2488	-1.16196613857288E-02 
2489	-5.91337278872569E-03 
2490	-7.19091271462136E-03 
2491	-1.37061021181613E-02 
2492	 9.09213889273839E-03 
2493	 1.02069123797828E-02 
2494	 1.15420208493879E-02 
2495	 5.05322092631455E-02 
2496	 2.63675330607995E-02 
2497	-1.11346573379764E-02 
2498	 8.57430484236756E-03 
2499	-4.48897722020706E-03 
2500	-8.03366547045223E-03 
