Wavelength	ref00020.asd
350	 5.61850214672667E-02 
351	 5.62353058686852E-02 
352	 5.63037101866846E-02 
353	 5.65730132291089E-02 
354	 5.62357790228901E-02 
355	 5.59391588127704E-02 
356	 5.60524991546835E-02 
357	 0.055789657062724 
358	 0.05591691291633 
359	 5.63952045124336E-02 
360	 5.68065210810721E-02 
361	 5.63264837418098E-02 
362	 5.59335362390469E-02 
363	 5.60442563372386E-02 
364	 5.65050777248388E-02 
365	 5.60056984021447E-02 
366	 5.59241220560505E-02 
367	 5.64335419319771E-02 
368	 5.55889282448878E-02 
369	 5.58736011960541E-02 
370	 5.63422364376012E-02 
371	 5.59661899767735E-02 
372	 5.60759001660442E-02 
373	 5.61435877909247E-02 
374	 5.61960919301452E-02 
375	 0.056470458368949 
376	 5.64820830188991E-02 
377	 5.66124466985099E-02 
378	 5.70710173185965E-02 
379	 5.77553975937815E-02 
380	 5.80334398069132E-02 
381	 5.84477806994936E-02 
382	 5.93263928726378E-02 
383	 5.96861678943643E-02 
384	 0.060202240470381 
385	 6.08972013194884E-02 
386	 6.15589078793221E-02 
387	 6.24533466507329E-02 
388	 6.35185941813141E-02 
389	 6.45340013987872E-02 
390	 6.51851888473065E-02 
391	 6.61685870285655E-02 
392	 6.74633121380733E-02 
393	 6.88936987936006E-02 
394	 7.02235916288289E-02 
395	 7.19422998672789E-02 
396	 7.40469137693175E-02 
397	 7.62895563570404E-02 
398	 7.82059314036983E-02 
399	 8.04608218024301E-02 
400	 8.30484300439293E-02 
401	 8.54228921074335E-02 
402	 8.81166788890691E-02 
403	 0.09112340568185 
404	 9.44416065148727E-02 
405	 9.83090374527619E-02 
406	 0.102212238221654 
407	 0.106392813943607 
408	 0.111245320863024 
409	 0.116585303754487 
410	 0.12192615977841 
411	 0.127230757916476 
412	 0.132841032178802 
413	 0.138240506294903 
414	 0.143675192238431 
415	 0.149329574089696 
416	 0.155007956496868 
417	 0.160787861113868 
418	 0.166360844211471 
419	 0.171520301276629 
420	 0.177120342887387 
421	 0.182498462111352 
422	 0.187420192564143 
423	 0.192126323660158 
424	 0.196823940106038 
425	 0.201143976034789 
426	 0.204983467218209 
427	 0.209065802302203 
428	 0.212629934613583 
429	 0.215864583674068 
430	 0.219171864488421 
431	 0.222128974255607 
432	 0.225005182293813 
433	 0.227767679554095 
434	 0.230114787059377 
435	 0.232127604719725 
436	 0.233696117242201 
437	 0.234894147963138 
438	 0.236214508557027 
439	 0.237329378976459 
440	 0.238325491481326 
441	 0.239369292075414 
442	 0.240289347508258 
443	 0.24099987833874 
444	 0.241507979873107 
445	 0.241902695336772 
446	 0.242132048089822 
447	 0.242335331854988 
448	 0.242588097792684 
449	 0.242748946440849 
450	 0.242817223821151 
451	 0.242760310158328 
452	 0.242574950644369 
453	 0.242508624536292 
454	 0.242299577870027 
455	 0.241940519524357 
456	 0.241758244637385 
457	 0.241407044526359 
458	 0.240956388911013 
459	 0.24051349275305 
460	 0.239999456745529 
461	 0.239484442241992 
462	 0.238962910211181 
463	 0.238384543716959 
464	 0.237693953991278 
465	 0.237022542617989 
466	 0.236386267840434 
467	 0.235604957874864 
468	 0.234715107859348 
469	 0.233882508089246 
470	 0.233192122318899 
471	 0.232280557017637 
472	 0.231359735981866 
473	 0.230478876479809 
474	 0.229555756179138 
475	 0.228476315691333 
476	 0.227372290674332 
477	 0.22634167565177 
478	 0.225358441959417 
479	 0.224390798040074 
480	 0.223404207878781 
481	 0.222370845892615 
482	 0.221297447546001 
483	 0.22019962120648 
484	 0.219109473541416 
485	 0.218064710026457 
486	 0.216786779303791 
487	 0.215534841359634 
488	 0.214500753648878 
489	 0.213415849635395 
490	 0.21228119125933 
491	 0.21113578703863 
492	 0.210018033734944 
493	 0.208847433514827 
494	 0.20776752970793 
495	 0.206773014702955 
496	 0.205656738096826 
497	 0.204566378590453 
498	 0.203523437548517 
499	 0.202508879980651 
500	 0.20146502653523 
501	 0.200463851444994 
502	 0.199444343515989 
503	 0.198293548030222 
504	 0.197254757991358 
505	 0.196280020078495 
506	 0.195331553899124 
507	 0.194455888096543 
508	 0.193534760998842 
509	 0.19261527235182 
510	 0.191762116351615 
511	 0.190853980362758 
512	 0.190049330131707 
513	 0.189340590311743 
514	 0.188577633701703 
515	 0.187863116912043 
516	 0.187150740815953 
517	 0.186433180019388 
518	 0.185853576646143 
519	 0.1852510902482 
520	 0.184611181051167 
521	 0.183982096088291 
522	 0.183397498114588 
523	 0.182872195178888 
524	 0.182395032519153 
525	 0.181936289676276 
526	 0.181563428577277 
527	 0.181186206382814 
528	 0.180753755804884 
529	 0.180448306896945 
530	 0.180174206582083 
531	 0.17989740126204 
532	 0.179621943348716 
533	 0.179370492733399 
534	 0.179149129930004 
535	 0.178959580948708 
536	 0.178796848456929 
537	 0.17870390610278 
538	 0.178665060563832 
539	 0.178645783849587 
540	 0.178623820597431 
541	 0.178597870944204 
542	 0.178576301233917 
543	 0.178579343513394 
544	 0.17870269484411 
545	 0.178843841308436 
546	 0.178965588781588 
547	 0.179263312973418 
548	 0.179594387318019 
549	 0.179901182637261 
550	 0.180173940380642 
551	 0.180461044145173 
552	 0.180861390242098 
553	 0.181324708567336 
554	 0.181624373701787 
555	 0.18214383777108 
556	 0.182783301078598 
557	 0.183375758131983 
558	 0.183935675738861 
559	 0.184622230687678 
560	 0.18535828504622 
561	 0.185945859286345 
562	 0.186608417286086 
563	 0.187320405022722 
564	 0.188075328527969 
565	 0.188957406820578 
566	 0.189832677845924 
567	 0.19072205945355 
568	 0.191677747789351 
569	 0.192616524329911 
570	 0.193676298663949 
571	 0.194847975155086 
572	 0.195993942580817 
573	 0.197355373171956 
574	 0.19884668592194 
575	 0.200389728438066 
576	 0.202050849469439 
577	 0.203768583081233 
578	 0.205531869237201 
579	 0.207339872668393 
580	 0.209044390148 
581	 0.210802653035737 
582	 0.212663450871212 
583	 0.214502975212484 
584	 0.216296944449903 
585	 0.218169051131902 
586	 0.220207393662708 
587	 0.222224435472663 
588	 0.224422830531766 
589	 0.2268841450116 
590	 0.229538538679168 
591	 0.232370091501627 
592	 0.235344312458708 
593	 0.238429344410928 
594	 0.241419476569541 
595	 0.244581494455782 
596	 0.247807850904083 
597	 0.250927254962804 
598	 0.254034485257836 
599	 0.25715504359195 
600	 0.260312511575081 
601	 0.263518349466563 
602	 0.266685419656917 
603	 0.269835484069447 
604	 0.272968716887737 
605	 0.275990113312083 
606	 0.278977638054728 
607	 0.28193690978394 
608	 0.284813652288738 
609	 0.287498191393 
610	 0.290130841830943 
611	 0.292756250845404 
612	 0.295274719010257 
613	 0.297635189020145 
614	 0.299883439435209 
615	 0.302064479792789 
616	 0.304133285170013 
617	 0.30611884907086 
618	 0.308021014687818 
619	 0.309849382427186 
620	 0.311555565252014 
621	 0.313159739647637 
622	 0.314664269914853 
623	 0.316007179089522 
624	 0.317346163486778 
625	 0.318664685359084 
626	 0.319885935552764 
627	 0.321011671652423 
628	 0.322111063262624 
629	 0.323154579408381 
630	 0.324013167670698 
631	 0.324885532523393 
632	 0.325674862397604 
633	 0.326320770855265 
634	 0.327016285099115 
635	 0.327617946009256 
636	 0.32814106394008 
637	 0.328663680103802 
638	 0.329199583388129 
639	 0.329621685722002 
640	 0.329929713319195 
641	 0.330285894239094 
642	 0.330600591079189 
643	 0.330874547416011 
644	 0.331117555913195 
645	 0.331276292442781 
646	 0.331475996134132 
647	 0.33171527090856 
648	 0.331921795389829 
649	 0.332182274245156 
650	 0.332426585078411 
651	 0.332626936539106 
652	 0.332863432648352 
653	 0.333097738256484 
654	 0.333369264753701 
655	 0.333691971609254 
656	 0.333827679352077 
657	 0.333979426835567 
658	 0.334180804760084 
659	 0.334348821688954 
660	 0.334512135971511 
661	 0.334554381960865 
662	 0.334498903523792 
663	 0.334689348934177 
664	 0.334804357954442 
665	 0.334848866335371 
666	 0.334924173545554 
667	 0.335000877084578 
668	 0.335086812620205 
669	 0.335180754399341 
670	 0.335275253167844 
671	 0.335393696608966 
672	 0.335521587659359 
673	 0.33565506768656 
674	 0.33584737589977 
675	 0.335945149661358 
676	 0.336091293793028 
677	 0.33645172948953 
678	 0.336604801932321 
679	 0.336743862856871 
680	 0.336952793637322 
681	 0.337163749817658 
682	 0.337475957311984 
683	 0.337844886598424 
684	 0.338219780566234 
685	 0.338590723121586 
686	 0.3391754756099 
687	 0.339884343681663 
688	 0.340416657918518 
689	 0.34086896714292 
690	 0.341308594466125 
691	 0.341778320735288 
692	 0.342256124243819 
693	 0.342947340374224 
694	 0.343775004353833 
695	 0.344671054474839 
696	 0.345792958774917 
697	 0.346977598365686 
698	 0.348114270245211 
699	 0.349169523052741 
700	 0.350475514385257 
701	 0.352027415309334 
702	 0.35369374611318 
703	 0.355241311619474 
704	 0.356980688292297 
705	 0.358746021561425 
706	 0.360393153074093 
707	 0.362046868883989 
708	 0.363813227321092 
709	 0.365686491648654 
710	 0.367577139852617 
711	 0.369385033703099 
712	 0.371298359472923 
713	 0.373346573492892 
714	 0.375349312088862 
715	 0.377239273579924 
716	 0.378987621909791 
717	 0.380672008460864 
718	 0.382410352776902 
719	 0.384641618237442 
720	 0.387153576226441 
721	 0.389460371719091 
722	 0.391724274169577 
723	 0.393730987308855 
724	 0.395566580946159 
725	 0.397422764931543 
726	 0.399462982009341 
727	 0.401506095887201 
728	 0.403444290970388 
729	 0.405355309810752 
730	 0.407193869209421 
731	 0.40897038995185 
732	 0.410719609067276 
733	 0.412423348875696 
734	 0.413944297406844 
735	 0.415319957252156 
736	 0.416697398021456 
737	 0.417979148775736 
738	 0.419147562630895 
739	 0.420245641143038 
740	 0.421362608992637 
741	 0.422402241954569 
742	 0.423337883761409 
743	 0.424178734411381 
744	 0.425017173396972 
745	 0.425730105144302 
746	 0.42633077861587 
747	 0.426925489752863 
748	 0.42737374709953 
749	 0.427783545077344 
750	 0.42824175050457 
751	 0.428747809179832 
752	 0.429095881087245 
753	 0.429393460370678 
754	 0.429743422419477 
755	 0.429871823552962 
756	 0.4300953516423 
757	 0.430373174006442 
758	 0.430510356525081 
759	 0.430895202599761 
760	 0.432138967930983 
761	 0.434267536574494 
762	 0.434927978552985 
763	 0.434534971271281 
764	 0.433993283042274 
765	 0.433696730291086 
766	 0.433233377400923 
767	 0.432749141459637 
768	 0.432420905382307 
769	 0.432364075909745 
770	 0.432326443676984 
771	 0.432372226586367 
772	 0.432476202580709 
773	 0.432532033697246 
774	 0.432550061694679 
775	 0.43262319753654 
776	 0.432764904212841 
777	 0.432835465062948 
778	 0.432865363164068 
779	 0.432969519453305 
780	 0.433193523927116 
781	 0.433270752182426 
782	 0.433310336361392 
783	 0.43337206050624 
784	 0.433475184824994 
785	 0.433562489982631 
786	 0.433652625045987 
787	 0.433723126578954 
788	 0.433710251300595 
789	 0.433742538274748 
790	 0.433877120369625 
791	 0.434078961312395 
792	 0.434153218466749 
793	 0.434347512060456 
794	 0.434576869546634 
795	 0.434679067327708 
796	 0.434632126903213 
797	 0.434734527243007 
798	 0.434980282449319 
799	 0.435164082248381 
800	 0.435141475072748 
801	 0.435174539347531 
802	 0.435330240124881 
803	 0.435412207120855 
804	 0.435495852423125 
805	 0.435691609328477 
806	 0.435989564059215 
807	 0.436135132484093 
808	 0.436111175669176 
809	 0.436088935913212 
810	 0.436202534971161 
811	 0.436186029079775 
812	 0.435999637316748 
813	 0.435784478853412 
814	 0.435739805818306 
815	 0.4355711775996 
816	 0.435612282438754 
817	 0.435906420258134 
818	 0.436129268976273 
819	 0.436352880028578 
820	 0.436523796617151 
821	 0.436614668144122 
822	 0.436654824653199 
823	 0.436855823078937 
824	 0.437164130665297 
825	 0.437436711074192 
826	 0.437574449154685 
827	 0.437626707736321 
828	 0.437639443535802 
829	 0.437660424830193 
830	 0.437721912099864 
831	 0.437955021577199 
832	 0.438263230220847 
833	 0.438422272213272 
834	 0.438679051255472 
835	 0.438891674360998 
836	 0.439048097060821 
837	 0.439323767799597 
838	 0.439431292376094 
839	 0.439535012207205 
840	 0.43975112983124 
841	 0.439931918616633 
842	 0.439982524288379 
843	 0.440067553796771 
844	 0.440311847488788 
845	 0.440441799578268 
846	 0.44056194464879 
847	 0.440665128089795 
848	 0.44073978833161 
849	 0.441007540367409 
850	 0.441268139754249 
851	 0.441422523752159 
852	 0.441485457962263 
853	 0.441533251326186 
854	 0.441660291803804 
855	 0.441849748816425 
856	 0.441976478019301 
857	 0.442289740291634 
858	 0.442396618000704 
859	 0.442310658261983 
860	 0.442803725596629 
861	 0.442883410603223 
862	 0.442810614320409 
863	 0.442923993033298 
864	 0.442909872949082 
865	 0.443045060572252 
866	 0.443238170723845 
867	 0.443335459563162 
868	 0.443476108428202 
869	 0.44366171663078 
870	 0.443747914264883 
871	 0.443652909974828 
872	 0.443936541673837 
873	 0.444212734711659 
874	 0.444252948492911 
875	 0.444084036984192 
876	 0.444385532450015 
877	 0.444615365536463 
878	 0.444524780361182 
879	 0.44433346756677 
880	 0.444573664428716 
881	 0.444835136991439 
882	 0.444838960537119 
883	 0.444714453424988 
884	 0.444837684931462 
885	 0.44505523235042 
886	 0.44519533302275 
887	 0.445276762097215 
888	 0.445444933875638 
889	 0.445470233137022 
890	 0.445255927763478 
891	 0.445282533827235 
892	 0.445120141509117 
893	 0.444947071108042 
894	 0.444993780913582 
895	 0.444982616811057 
896	 0.444525005513658 
897	 0.444319378605812 
898	 0.445008977906443 
899	 0.444665285342603 
900	 0.444552531480838 
901	 0.444851084407939 
902	 0.445128734894248 
903	 0.445429174027483 
904	 0.445605298172683 
905	 0.445688488592035 
906	 0.445731537093605 
907	 0.445075462583373 
908	 0.444777216738889 
909	 0.445054312396042 
910	 0.445281690159078 
911	 0.445325288527738 
912	 0.445344623039894 
913	 0.445406828386793 
914	 0.445475017724088 
915	 0.445900827961549 
916	 0.446124539919413 
917	 0.446039808713764 
918	 0.446146428614997 
919	 0.446236745666202 
920	 0.446408432340678 
921	 0.446627390227588 
922	 0.446658306775062 
923	 0.446477489806691 
924	 0.446300378425338 
925	 0.446189863571707 
926	 0.445895117034513 
927	 0.44506858304755 
928	 0.444269319295473 
929	 0.443783766924327 
930	 0.442968864554033 
931	 0.442297016412967 
932	 0.441748142079166 
933	 0.441424489736521 
934	 0.441907810836411 
935	 0.441521696830484 
936	 0.441013180652968 
937	 0.441070187259245 
938	 0.44090487798115 
939	 0.441369527618997 
940	 0.441433686935676 
941	 0.440813416042709 
942	 0.441326142613967 
943	 0.440340280865937 
944	 0.439677546901616 
945	 0.440411740259845 
946	 0.439577046386882 
947	 0.439111870949361 
948	 0.438523162221415 
949	 0.437535938335575 
950	 0.437556714722071 
951	 0.437403601944431 
952	 0.436533710488829 
953	 0.43541183105954 
954	 0.436038505571191 
955	 0.435573294159752 
956	 0.435306110760304 
957	 0.4359973065156 
958	 0.435396810045442 
959	 0.434977978438646 
960	 0.434524744564813 
961	 0.434209179119895 
962	 0.43547845944596 
963	 0.435448566798233 
964	 0.434933477935807 
965	 0.434957311884192 
966	 0.435363919523654 
967	 0.43614794363514 
968	 0.436370939757236 
969	 0.435930513629884 
970	 0.436183946191659 
971	 0.436022449343369 
972	 0.436049764112181 
973	 0.436367898336 
974	 0.436027907903316 
975	 0.436793442233247 
976	 0.437758688135989 
977	 0.438071152040801 
978	 0.437777998798644 
979	 0.438005639099175 
980	 0.438729493257851 
981	 0.439230786844272 
982	 0.438625480206551 
983	 0.439123932778681 
984	 0.440000248758421 
985	 0.440363202661717 
986	 0.439868686680501 
987	 0.440269472486981 
988	 0.440195913599138 
989	 0.439930879399683 
990	 0.440876423286288 
991	 0.441478437062715 
992	 0.442014718506598 
993	 0.44257959263381 
994	 0.442991762246064 
995	 0.44264272637535 
996	 0.443340698912607 
997	 0.443662188230814 
998	 0.442052678824981 
999	 0.443311192271937 
1000	 0.445862700960677 
1001	 0.425799521520874 
1002	 0.426099530915477 
1003	 0.426435749629506 
1004	 0.426884279201595 
1005	 0.427217983033187 
1006	 0.427523693947835 
1007	 0.427807522128826 
1008	 0.427972318805462 
1009	 0.428258056310016 
1010	 0.42858333675067 
1011	 0.429001331977048 
1012	 0.429383085299095 
1013	 0.429684756470424 
1014	 0.429945856343051 
1015	 0.430203992322042 
1016	 0.430486104315192 
1017	 0.430889319655064 
1018	 0.431209511835559 
1019	 0.431484823652919 
1020	 0.431759953509283 
1021	 0.432006704849793 
1022	 0.432302191614862 
1023	 0.432584925540952 
1024	 0.433000184521793 
1025	 0.43339408091922 
1026	 0.4335803565999 
1027	 0.433848658880956 
1028	 0.43420033226871 
1029	 0.434459910564 
1030	 0.434733702957203 
1031	 0.434934065988408 
1032	 0.435024324286507 
1033	 0.435222030992027 
1034	 0.435495996354865 
1035	 0.435769009338624 
1036	 0.436072361326338 
1037	 0.436386780273569 
1038	 0.436779323900372 
1039	 0.43696334740118 
1040	 0.437186120984042 
1041	 0.437470066797707 
1042	 0.437607885163506 
1043	 0.437829444970268 
1044	 0.438032277769636 
1045	 0.438158596219037 
1046	 0.438335084043264 
1047	 0.4384959875542 
1048	 0.438633085669113 
1049	 0.438761639402167 
1050	 0.438911509086315 
1051	 0.439024041247764 
1052	 0.439226495229079 
1053	 0.439535223434641 
1054	 0.439694736620392 
1055	 0.439790906191236 
1056	 0.43988799585679 
1057	 0.43987450525134 
1058	 0.439919072097627 
1059	 0.44009993548766 
1060	 0.440272288681482 
1061	 0.440304127329822 
1062	 0.44035113805436 
1063	 0.440406956298638 
1064	 0.440369039152459 
1065	 0.440407241697121 
1066	 0.440511831714127 
1067	 0.440620032929371 
1068	 0.440628836152335 
1069	 0.440688404055557 
1070	 0.440678946373118 
1071	 0.440623476944067 
1072	 0.440588671966799 
1073	 0.440498654762701 
1074	 0.440428242534101 
1075	 0.44034596456553 
1076	 0.440284629164822 
1077	 0.440232158686344 
1078	 0.440089500457093 
1079	 0.439950087661008 
1080	 0.439836313675911 
1081	 0.439774384661426 
1082	 0.439740234916872 
1083	 0.43977264801463 
1084	 0.439768844758841 
1085	 0.439791080711873 
1086	 0.439751979455703 
1087	 0.439463946037703 
1088	 0.439184419775323 
1089	 0.439000912243142 
1090	 0.438835786882961 
1091	 0.438859511084563 
1092	 0.438881358821674 
1093	 0.438783326507496 
1094	 0.438705493177511 
1095	 0.438471820219645 
1096	 0.438256116508125 
1097	 0.43809592373148 
1098	 0.437877233828281 
1099	 0.437567746086774 
1100	 0.437258205439418 
1101	 0.43704399528788 
1102	 0.436784279125544 
1103	 0.43649095403749 
1104	 0.43621107406805 
1105	 0.435905016080623 
1106	 0.435494930022581 
1107	 0.435033203921025 
1108	 0.434552455088942 
1109	 0.43394129157357 
1110	 0.433336277246375 
1111	 0.432700780620867 
1112	 0.431922546919282 
1113	 0.431270193922593 
1114	 0.430632334804724 
1115	 0.4299725896957 
1116	 0.429355242224493 
1117	 0.42878527995768 
1118	 0.428156294490463 
1119	 0.427433376641599 
1120	 0.426673642310687 
1121	 0.426043773558045 
1122	 0.425577913873602 
1123	 0.425244285756623 
1124	 0.424897445119453 
1125	 0.424692184262871 
1126	 0.424348144337652 
1127	 0.423803202398935 
1128	 0.423476313377499 
1129	 0.423357153003341 
1130	 0.423007717782112 
1131	 0.422731914693588 
1132	 0.422294298386143 
1133	 0.421744067323281 
1134	 0.421079159902582 
1135	 0.42034620560736 
1136	 0.419740019643865 
1137	 0.418849044470117 
1138	 0.417748424154859 
1139	 0.416654382911661 
1140	 0.415292773224432 
1141	 0.413938229871235 
1142	 0.412740819930752 
1143	 0.41154469502986 
1144	 0.410328587940397 
1145	 0.409168930647146 
1146	 0.407998514373053 
1147	 0.406996890547378 
1148	 0.406026189906123 
1149	 0.405290000734394 
1150	 0.404780239076232 
1151	 0.404374034836369 
1152	 0.404175522679113 
1153	 0.403955744696201 
1154	 0.403764732945518 
1155	 0.403704312988982 
1156	 0.403531291933667 
1157	 0.403477662513099 
1158	 0.403558698223971 
1159	 0.403577996011594 
1160	 0.403635458633061 
1161	 0.40377324630295 
1162	 0.403853264033281 
1163	 0.40392854112472 
1164	 0.40394418569718 
1165	 0.403915281075999 
1166	 0.403899433151327 
1167	 0.403813013882377 
1168	 0.403819954906973 
1169	 0.403920674402935 
1170	 0.403971463276942 
1171	 0.403929483142507 
1172	 0.40383582466403 
1173	 0.403710772590823 
1174	 0.403653463038731 
1175	 0.403680407796144 
1176	 0.40373952490418 
1177	 0.403749692852789 
1178	 0.403743275662944 
1179	 0.403699282291489 
1180	 0.403609615162982 
1181	 0.403580608750257 
1182	 0.403561950266394 
1183	 0.403537751528836 
1184	 0.403513619590903 
1185	 0.403519595550892 
1186	 0.403552377464437 
1187	 0.403551760561792 
1188	 0.403539477466247 
1189	 0.40360016066526 
1190	 0.403614887102798 
1191	 0.403551952998399 
1192	 0.403552661338166 
1193	 0.403541895780909 
1194	 0.40348811975118 
1195	 0.403357564057359 
1196	 0.40333355939252 
1197	 0.403302803666499 
1198	 0.403353026650621 
1199	 0.403531374300491 
1200	 0.403633086964306 
1201	 0.403705207878746 
1202	 0.403827737205357 
1203	 0.403947151060435 
1204	 0.404084637584596 
1205	 0.404295754152261 
1206	 0.404473722396167 
1207	 0.404634316257001 
1208	 0.40479553134477 
1209	 0.404945408744104 
1210	 0.405096840424461 
1211	 0.405297614175454 
1212	 0.405456230731559 
1213	 0.405660521288033 
1214	 0.405904230389454 
1215	 0.406136800263625 
1216	 0.406393735414924 
1217	 0.406601761299173 
1218	 0.406804450563973 
1219	 0.406987284548978 
1220	 0.407116726774791 
1221	 0.407276715687472 
1222	 0.407475863850136 
1223	 0.407614753662441 
1224	 0.407691185900452 
1225	 0.407833082644345 
1226	 0.407950119606535 
1227	 0.408112020098421 
1228	 0.408319312924331 
1229	 0.408576962320776 
1230	 0.408866342527364 
1231	 0.409076508093107 
1232	 0.409268535292824 
1233	 0.409434366682805 
1234	 0.409631590410659 
1235	 0.409806913840043 
1236	 0.409974246679146 
1237	 0.410188873714379 
1238	 0.41033818442196 
1239	 0.410392623649847 
1240	 0.410536091213055 
1241	 0.410726122320564 
1242	 0.410873100809563 
1243	 0.411032985763595 
1244	 0.411179526770338 
1245	 0.411253028960451 
1246	 0.411401381140364 
1247	 0.41164894542497 
1248	 0.411814542346944 
1249	 0.411964785887638 
1250	 0.412115454123963 
1251	 0.412235848170314 
1252	 0.412320048598197 
1253	 0.412404530309722 
1254	 0.412480165281825 
1255	 0.412605923384493 
1256	 0.41270624845138 
1257	 0.412873831207329 
1258	 0.413171108024892 
1259	 0.413339459797212 
1260	 0.413483335126566 
1261	 0.413588468132142 
1262	 0.413583874592453 
1263	 0.413668829412576 
1264	 0.41377197942716 
1265	 0.413877113092044 
1266	 0.414036875074805 
1267	 0.414154233617404 
1268	 0.414312163893883 
1269	 0.414352906158543 
1270	 0.414296969545131 
1271	 0.414257777894317 
1272	 0.414235112059459 
1273	 0.414029699941837 
1274	 0.413876817176681 
1275	 0.413728819061418 
1276	 0.413567429250605 
1277	 0.413347067269955 
1278	 0.413160736582987 
1279	 0.413002282401704 
1280	 0.412830361619093 
1281	 0.412652092385857 
1282	 0.412450097507424 
1283	 0.412274481911231 
1284	 0.41203327129324 
1285	 0.41171440437779 
1286	 0.411436631824696 
1287	 0.411196394260131 
1288	 0.410865324931808 
1289	 0.41051072205577 
1290	 0.410121986350446 
1291	 0.409620115619845 
1292	 0.409162247094024 
1293	 0.408703937831456 
1294	 0.408256511082134 
1295	 0.407862411812537 
1296	 0.407387373635531 
1297	 0.406903300922287 
1298	 0.406418966165257 
1299	 0.405877365883533 
1300	 0.405276634199524 
1301	 0.404671897241724 
1302	 0.404013697608817 
1303	 0.403403972589117 
1304	 0.402817634926523 
1305	 0.402163386984114 
1306	 0.401542637982052 
1307	 0.400810875238118 
1308	 0.399927104760767 
1309	 0.399130947502847 
1310	 0.39835267641864 
1311	 0.397517203853237 
1312	 0.396668818345194 
1313	 0.395822455141592 
1314	 0.394901214266219 
1315	 0.394029436863031 
1316	 0.393257644679765 
1317	 0.392402941710728 
1318	 0.391528242936896 
1319	 0.390610534312928 
1320	 0.389621547731539 
1321	 0.3886248233392 
1322	 0.38754539189382 
1323	 0.38638819998712 
1324	 0.385228267027668 
1325	 0.383969734970043 
1326	 0.38274088195711 
1327	 0.381479456545528 
1328	 0.380226475014639 
1329	 0.378900041789219 
1330	 0.377692310316216 
1331	 0.376567392618001 
1332	 0.375430969530834 
1333	 0.374417955006255 
1334	 0.373327265314847 
1335	 0.372222709153533 
1336	 0.371092758612632 
1337	 0.369882619254317 
1338	 0.368722767085822 
1339	 0.367471853442962 
1340	 0.366281629597833 
1341	 0.365051716656088 
1342	 0.36381152337238 
1343	 0.362407879651175 
1344	 0.361032064479356 
1345	 0.359518007031654 
1346	 0.357898927668967 
1347	 0.356240648625742 
1348	 0.35450925322121 
1349	 0.352707270851326 
1350	 0.350894419200279 
1351	 0.348745831191587 
1352	 0.346533998590021 
1353	 0.34392845195411 
1354	 0.341318464933768 
1355	 0.338040385911073 
1356	 0.336214131826741 
1357	 0.332626367755093 
1358	 0.330890227989511 
1359	 0.325752651632303 
1360	 0.31914694832701 
1361	 0.312559789522672 
1362	 0.312724453011214 
1363	 0.309446389765996 
1364	 0.318438203407042 
1365	 0.321312049506122 
1366	 0.321597055908254 
1367	 0.316621163952432 
1368	 0.309098052052522 
1369	 0.304566444081615 
1370	 0.297543573278811 
1371	 0.294487706489353 
1372	 0.295189464827154 
1373	 0.294263987025805 
1374	 0.29262417169387 
1375	 0.291579630747885 
1376	 0.290258988232383 
1377	 0.290046405626624 
1378	 0.289769699585817 
1379	 0.292311002997989 
1380	 0.287154272252395 
1381	 0.277933832393858 
1382	 0.272490711298286 
1383	 0.263817716306855 
1384	 0.259396088043256 
1385	 0.25969978353817 
1386	 0.257518555364506 
1387	 0.255536343867045 
1388	 0.252467215113322 
1389	 0.249883547156729 
1390	 0.246881771744342 
1391	 0.242503455820616 
1392	 0.239440380163649 
1393	 0.236876525388075 
1394	 0.234116812472426 
1395	 0.231021114442254 
1396	 0.228921826173474 
1397	 0.227576277569451 
1398	 0.225848296664317 
1399	 0.225224619374277 
1400	 0.22301348966682 
1401	 0.219167901980564 
1402	 0.216633764073633 
1403	 0.214183771964128 
1404	 0.212037381394745 
1405	 0.210457612746529 
1406	 0.209467376767673 
1407	 0.20849499179615 
1408	 0.20724498659565 
1409	 0.205930412333161 
1410	 0.204728900347126 
1411	 0.203723443078963 
1412	 0.202488498338479 
1413	 0.201775867180124 
1414	 0.201331872785401 
1415	 0.201135663398806 
1416	 0.201220987967199 
1417	 0.20088438245179 
1418	 0.200786888669731 
1419	 0.200218076508764 
1420	 0.199197096611042 
1421	 0.19847327826667 
1422	 0.197541451639068 
1423	 0.197187283461742 
1424	 0.197138010072247 
1425	 0.196950413837322 
1426	 0.197032294964693 
1427	 0.196899784022831 
1428	 0.19659411142468 
1429	 0.196290869999054 
1430	 0.196002185583233 
1431	 0.195661341873128 
1432	 0.195015652151909 
1433	 0.194765168218079 
1434	 0.194788170767478 
1435	 0.194673921742986 
1436	 0.194738359276376 
1437	 0.194692557293733 
1438	 0.194436336427876 
1439	 0.194317139623677 
1440	 0.194234419307556 
1441	 0.194232624034831 
1442	 0.194270315659904 
1443	 0.194392517152722 
1444	 0.194487734184904 
1445	 0.19464486211828 
1446	 0.194985706930682 
1447	 0.195243602849776 
1448	 0.195488812687624 
1449	 0.195790400520163 
1450	 0.196072320809185 
1451	 0.196282236715216 
1452	 0.196505620727858 
1453	 0.1967776350841 
1454	 0.197012860070491 
1455	 0.197229193701363 
1456	 0.197389818256821 
1457	 0.197538614106086 
1458	 0.197710661157577 
1459	 0.197853107506249 
1460	 0.197989017462429 
1461	 0.198143730239616 
1462	 0.198357524454797 
1463	 0.198577479693518 
1464	 0.198810133311134 
1465	 0.19910719828602 
1466	 0.199460648924771 
1467	 0.199716659956859 
1468	 0.200204505560198 
1469	 0.200902241366163 
1470	 0.201600414609824 
1471	 0.202371616688934 
1472	 0.20318156878368 
1473	 0.204023017295122 
1474	 0.204826546500054 
1475	 0.205601748641655 
1476	 0.206401165301726 
1477	 0.207092671377028 
1478	 0.207925008379497 
1479	 0.208874934082408 
1480	 0.209781659511799 
1481	 0.210663214391451 
1482	 0.211633640425432 
1483	 0.2125790489137 
1484	 0.213598836661545 
1485	 0.214756334413337 
1486	 0.215838931837817 
1487	 0.216892274960113 
1488	 0.217928333337123 
1489	 0.218944099496371 
1490	 0.219886257774546 
1491	 0.220878711498945 
1492	 0.221882276538657 
1493	 0.222877631269682 
1494	 0.223872953290387 
1495	 0.224808469326205 
1496	 0.225719499596439 
1497	 0.226649563396508 
1498	 0.227566486693431 
1499	 0.228517438365588 
1500	 0.229510663307534 
1501	 0.230510045943674 
1502	 0.231524372621884 
1503	 0.232555139321881 
1504	 0.233631728202054 
1505	 0.23464341720423 
1506	 0.235643866840486 
1507	 0.236618036952824 
1508	 0.237545016223535 
1509	 0.238491546222697 
1510	 0.239407659380189 
1511	 0.240390002068593 
1512	 0.241444228888038 
1513	 0.242395328106884 
1514	 0.24331430001815 
1515	 0.244288181454387 
1516	 0.245229760638501 
1517	 0.246197122943525 
1518	 0.247255989330598 
1519	 0.248272687851158 
1520	 0.249258113371142 
1521	 0.250237037695421 
1522	 0.251231924424021 
1523	 0.252210966772795 
1524	 0.253146607000996 
1525	 0.254110526107005 
1526	 0.255122202802784 
1527	 0.256084556842617 
1528	 0.257041023574652 
1529	 0.25796710815878 
1530	 0.258835663385564 
1531	 0.259744431166418 
1532	 0.260674520272881 
1533	 0.261568477652366 
1534	 0.262432157362638 
1535	 0.263350123373645 
1536	 0.264268727345296 
1537	 0.265199200548144 
1538	 0.266212850705555 
1539	 0.267168877860941 
1540	 0.268100847330569 
1541	 0.26899935265237 
1542	 0.269847570694515 
1543	 0.270719022980611 
1544	 0.271541406718564 
1545	 0.272423186565954 
1546	 0.273406019114713 
1547	 0.274305630724983 
1548	 0.275200527925395 
1549	 0.276064722591852 
1550	 0.276841067164333 
1551	 0.277651474784546 
1552	 0.278473585554077 
1553	 0.279295866109354 
1554	 0.280161450308902 
1555	 0.28096314121958 
1556	 0.28170681464621 
1557	 0.282476663419081 
1558	 0.283233551568381 
1559	 0.28396803311175 
1560	 0.28470523735266 
1561	 0.285449099652596 
1562	 0.286163639323173 
1563	 0.286886516174656 
1564	 0.287640836858521 
1565	 0.288391302140637 
1566	 0.289124828754012 
1567	 0.289885247841079 
1568	 0.290617205782282 
1569	 0.291359200460863 
1570	 0.292064933661794 
1571	 0.292733945781322 
1572	 0.293426719409559 
1573	 0.294090525377065 
1574	 0.294825671903836 
1575	 0.295613911379316 
1576	 0.296301540313721 
1577	 0.2969949506998 
1578	 0.297610013046418 
1579	 0.29810507043705 
1580	 0.298686283846693 
1581	 0.29926822437464 
1582	 0.299865930280421 
1583	 0.300458023630635 
1584	 0.301127833204265 
1585	 0.301861588890535 
1586	 0.302521144447922 
1587	 0.303246217902618 
1588	 0.303824093079 
1589	 0.304289589701476 
1590	 0.304788557526378 
1591	 0.305205207657296 
1592	 0.305754116632883 
1593	 0.306388759912577 
1594	 0.306901296051675 
1595	 0.307439876671519 
1596	 0.307923583855832 
1597	 0.308266517473986 
1598	 0.30875850576724 
1599	 0.309326978598358 
1600	 0.309874014365923 
1601	 0.310493269247692 
1602	 0.310978711077717 
1603	 0.31137213990535 
1604	 0.311884989509796 
1605	 0.312391675670097 
1606	 0.312867352920061 
1607	 0.313413444939023 
1608	 0.313911862502641 
1609	 0.314311823345672 
1610	 0.314768640075244 
1611	 0.315298320125483 
1612	 0.315740713047171 
1613	 0.316116877684972 
1614	 0.316529868828191 
1615	 0.316931645714647 
1616	 0.317352716670323 
1617	 0.317783470707625 
1618	 0.318204833712418 
1619	 0.318631252631119 
1620	 0.319063960430706 
1621	 0.319530341387534 
1622	 0.319897713666435 
1623	 0.320242631744242 
1624	 0.32054347313888 
1625	 0.320707250702902 
1626	 0.321035707178471 
1627	 0.32143989752792 
1628	 0.321795666254514 
1629	 0.322221528755514 
1630	 0.322564583652691 
1631	 0.322813934994252 
1632	 0.323155264893498 
1633	 0.323546979527814 
1634	 0.32388687900237 
1635	 0.324229320635332 
1636	 0.324588108326278 
1637	 0.324941769725463 
1638	 0.325233550122204 
1639	 0.32548464828192 
1640	 0.32583546418578 
1641	 0.326185330039446 
1642	 0.326502380276614 
1643	 0.326923229359724 
1644	 0.327241295436212 
1645	 0.32742301452057 
1646	 0.327669110387142 
1647	 0.32797102122488 
1648	 0.328177021800229 
1649	 0.328291929249724 
1650	 0.328525840604431 
1651	 0.328796288696462 
1652	 0.328991276651599 
1653	 0.329211313093008 
1654	 0.329418460229624 
1655	 0.329537379922513 
1656	 0.329742452834351 
1657	 0.330041188612933 
1658	 0.330221994718339 
1659	 0.330375977507331 
1660	 0.330458665500931 
1661	 0.330569296625999 
1662	 0.330649425647764 
1663	 0.330788925085215 
1664	 0.331064109233364 
1665	 0.331294865172855 
1666	 0.331448198682168 
1667	 0.331562356745633 
1668	 0.331635781931547 
1669	 0.331701030567649 
1670	 0.331818355457494 
1671	 0.33197045230274 
1672	 0.332053289603882 
1673	 0.332071197169866 
1674	 0.332132245094114 
1675	 0.332196167921735 
1676	 0.332217435044535 
1677	 0.332203342360306 
1678	 0.332121173814169 
1679	 0.332171845757452 
1680	 0.332291548901483 
1681	 0.332251045052064 
1682	 0.332253977299463 
1683	 0.33224864732574 
1684	 0.332131052996807 
1685	 0.33211476028467 
1686	 0.332109214255116 
1687	 0.3319563826216 
1688	 0.331779435662405 
1689	 0.331668064727458 
1690	 0.331525344338809 
1691	 0.331357960642341 
1692	 0.331149049021785 
1693	 0.330981673068329 
1694	 0.330833102608215 
1695	 0.330661791490322 
1696	 0.330453300550326 
1697	 0.330370204137504 
1698	 0.330404817687056 
1699	 0.330323859798142 
1700	 0.330276455765704 
1701	 0.330177231350073 
1702	 0.3299327850684 
1703	 0.329744259126104 
1704	 0.329615966816455 
1705	 0.329470830111533 
1706	 0.329289717976187 
1707	 0.329087632160034 
1708	 0.328900362542766 
1709	 0.328692589198155 
1710	 0.328481809717811 
1711	 0.328244501332227 
1712	 0.327959508754332 
1713	 0.327706808473794 
1714	 0.327436307625719 
1715	 0.327128843703846 
1716	 0.326835820985021 
1717	 0.326551605690873 
1718	 0.326229432888233 
1719	 0.325946451823362 
1720	 0.325739615499192 
1721	 0.3254157633193 
1722	 0.325000255923749 
1723	 0.324662323601066 
1724	 0.324287279123585 
1725	 0.323984092600043 
1726	 0.323828983605214 
1727	 0.323456026438802 
1728	 0.322991607076126 
1729	 0.322541881441787 
1730	 0.321947443391301 
1731	 0.321422039325831 
1732	 0.321039095915498 
1733	 0.320672688612858 
1734	 0.320352426674675 
1735	 0.319948408269126 
1736	 0.319450231529446 
1737	 0.318931880010628 
1738	 0.318339436374715 
1739	 0.317937655065239 
1740	 0.317553703984833 
1741	 0.316929544819914 
1742	 0.316335870904632 
1743	 0.315660636839367 
1744	 0.31489894630633 
1745	 0.314323987037193 
1746	 0.31382423623404 
1747	 0.313300468942864 
1748	 0.312734550208974 
1749	 0.312094198218912 
1750	 0.311440787681628 
1751	 0.31085023110263 
1752	 0.31041213382799 
1753	 0.310125245996287 
1754	 0.309738331512206 
1755	 0.309106692497859 
1756	 0.308508575556634 
1757	 0.307993121411928 
1758	 0.307406879471826 
1759	 0.306892002929999 
1760	 0.306340357482454 
1761	 0.305686935565783 
1762	 0.305015348711088 
1763	 0.304351430887511 
1764	 0.303814148014957 
1765	 0.303223568365289 
1766	 0.302648522662113 
1767	 0.302210538246959 
1768	 0.301809829225951 
1769	 0.301372670605462 
1770	 0.300940841520426 
1771	 0.300611309751735 
1772	 0.300126272555241 
1773	 0.299555353100093 
1774	 0.298978912016876 
1775	 0.298506916192925 
1776	 0.297920254472717 
1777	 0.297268302514351 
1778	 0.296783906052221 
1779	 0.296409549120555 
1780	 0.296294231768445 
1781	 0.296111618477301 
1782	 0.295777720146845 
1783	 0.295582587189789 
1784	 0.295645631087022 
1785	 0.295609542460454 
1786	 0.295332207783885 
1787	 0.295248978796997 
1788	 0.294809165930938 
1789	 0.294218285927137 
1790	 0.294158778666974 
1791	 0.293904268231823 
1792	 0.293157346446796 
1793	 0.292636554621044 
1794	 0.292535207735443 
1795	 0.292374598100783 
1796	 0.292362910127046 
1797	 0.292504138829568 
1798	 0.292064141903586 
1799	 0.29128586747539 
1800	 0.291414892545953 
1801	 0.286115634657616 
1802	 0.286179549471072 
1803	 0.285899474741503 
1804	 0.286442481077518 
1805	 0.286083203332709 
1806	 0.284224603096038 
1807	 0.283256734325435 
1808	 0.282985759335046 
1809	 0.281955702369162 
1810	 0.280689439227421 
1811	 0.278569880352701 
1812	 0.278136234515529 
1813	 0.278365567823321 
1814	 0.278359244380245 
1815	 0.280353000712288 
1816	 0.281358652734591 
1817	 0.282131154996689 
1818	 0.281582032545222 
1819	 0.280248154681037 
1820	 0.278305437428913 
1821	 0.276696007585791 
1822	 0.27139789134617 
1823	 0.270292728102884 
1824	 0.273413150431876 
1825	 0.275160439013944 
1826	 0.281996203785988 
1827	 0.284929938222176 
1828	 0.286066323888948 
1829	 0.286128418768235 
1830	 0.279538692531783 
1831	 0.254205917518425 
1832	 0.236827343901984 
1833	 0.201064528149727 
1834	 0.179770580807804 
1835	 0.205286205905813 
1836	 0.216549127771918 
1837	 0.255876667163929 
1838	 0.290250118083453 
1839	 0.320092309466959 
1840	 0.337391986838433 
1841	 0.338641056868987 
1842	 0.320937645154388 
1843	 0.309435147847482 
1844	 0.259928168561427 
1845	 0.255356937671539 
1846	 0.301798243242163 
1847	 0.306867098510057 
1848	 0.304338167463496 
1849	 0.312728966233734 
1850	 0.299228979799245 
1851	 0.235831388777828 
1852	 0.222934433929951 
1853	 0.24329101579069 
1854	 0.234574640352679 
1855	 0.210511737327808 
1856	 0.212451130219459 
1857	 0.216565659562173 
1858	 0.226834046711005 
1859	 0.228624637675288 
1860	 0.246013097713699 
1861	 0.253980838622342 
1862	 0.250958873130795 
1863	 0.246360234616168 
1864	 0.239287099913668 
1865	 0.241798654635827 
1866	 0.250805487998897 
1867	 0.235656490710115 
1868	 0.230653322888821 
1869	 0.273370913915985 
1870	 0.287124875867017 
1871	 0.291767715608762 
1872	 0.287272886643284 
1873	 0.28320018905181 
1874	 0.265592190806333 
1875	 0.232283253138664 
1876	 0.220412374560012 
1877	 0.22025898419023 
1878	 0.205687131298003 
1879	 0.212254649846158 
1880	 0.216920193320343 
1881	 0.212333632913166 
1882	 0.206575253544206 
1883	 0.200755486507962 
1884	 0.186894031808831 
1885	 0.178982156363383 
1886	 0.172357879936581 
1887	 0.168034349825866 
1888	 0.16671162621168 
1889	 0.165555179976317 
1890	 0.163651773159881 
1891	 0.163670590095246 
1892	 0.163111748643823 
1893	 0.160229274333765 
1894	 0.159099887392541 
1895	 0.160742046199456 
1896	 0.160650901992845 
1897	 0.158663038384443 
1898	 0.157155541416482 
1899	 0.157911534262959 
1900	 0.164583194134671 
1901	 0.170329883856392 
1902	 0.180795579402349 
1903	 0.187278505548538 
1904	 0.200238375305367 
1905	 0.195326551649294 
1906	 0.170512730263523 
1907	 0.165224483480904 
1908	 0.151376423302982 
1909	 0.130473265500277 
1910	 0.136728723702782 
1911	 0.129439689387716 
1912	 0.125044895445386 
1913	 0.123514713086204 
1914	 0.123403858975563 
1915	 0.120847852405851 
1916	 0.120962580606726 
1917	 0.123090112213841 
1918	 0.123413617704212 
1919	 0.125197755111288 
1920	 0.131089457057398 
1921	 0.134755218108438 
1922	 0.134637283946978 
1923	 0.133794983645917 
1924	 0.128507160256085 
1925	 0.127684059896134 
1926	 0.128577206563171 
1927	 0.128990580383555 
1928	 0.131425020680941 
1929	 0.131635284653786 
1930	 0.128989848976886 
1931	 0.126614233077938 
1932	 0.125726507750928 
1933	 0.126005330587057 
1934	 0.127372898170315 
1935	 0.131558761079694 
1936	 0.133020137152288 
1937	 0.134284212587088 
1938	 0.134593186475403 
1939	 0.133578791246919 
1940	 0.133513466206367 
1941	 0.133596337347403 
1942	 0.133287561513249 
1943	 0.134074315290754 
1944	 0.134738951072637 
1945	 0.135748531074087 
1946	 0.13659770808016 
1947	 0.1369962833828 
1948	 0.137373422682158 
1949	 0.137490188827939 
1950	 0.136990716360785 
1951	 0.136624100872384 
1952	 0.136815840877011 
1953	 0.137300839456141 
1954	 0.138435662735876 
1955	 0.139329169217165 
1956	 0.140406165039821 
1957	 0.141656054853839 
1958	 0.142412633222349 
1959	 0.142978879188278 
1960	 0.143582381312978 
1961	 0.144074853046095 
1962	 0.143985470674548 
1963	 0.144741022938413 
1964	 0.144667242972798 
1965	 0.144476109046855 
1966	 0.145150351172148 
1967	 0.145742242429521 
1968	 0.146524854636545 
1969	 0.14710258255495 
1970	 0.147783316417943 
1971	 0.148391779713614 
1972	 0.148849295597766 
1973	 0.149272598868029 
1974	 0.149969567763426 
1975	 0.150567876369642 
1976	 0.150926182369936 
1977	 0.151250792869748 
1978	 0.151441928770618 
1979	 0.151784531897461 
1980	 0.15199702017656 
1981	 0.152400508625643 
1982	 0.152966886165558 
1983	 0.153754721914579 
1984	 0.154454825832021 
1985	 0.155334020745323 
1986	 0.155824313252876 
1987	 0.155948595055035 
1988	 0.156100335450596 
1989	 0.156032579568756 
1990	 0.156085474130188 
1991	 0.156738224196016 
1992	 0.157439597002213 
1993	 0.158024610951443 
1994	 0.158913052262808 
1995	 0.159587852964917 
1996	 0.160011973845684 
1997	 0.160416791394431 
1998	 0.160993051665083 
1999	 0.161228251190867 
2000	 0.161611374877089 
2001	 0.162244837911933 
2002	 0.163452633588019 
2003	 0.164696113702314 
2004	 0.165387908864725 
2005	 0.165744038738406 
2006	 0.166452341313009 
2007	 0.166728179131664 
2008	 0.16755223315611 
2009	 0.168869423481056 
2010	 0.170026634989171 
2011	 0.170768393479393 
2012	 0.171367912540998 
2013	 0.172134749243143 
2014	 0.173282623146941 
2015	 0.174131384243413 
2016	 0.174987437211985 
2017	 0.175427144433966 
2018	 0.175118727975059 
2019	 0.175465745408339 
2020	 0.17602882711799 
2021	 0.176472548730955 
2022	 0.176968813338178 
2023	 0.177731569424607 
2024	 0.177787005089557 
2025	 0.177882119190387 
2026	 0.178345040447172 
2027	 0.178786821813067 
2028	 0.179408938547007 
2029	 0.180045546229447 
2030	 0.18041760541853 
2031	 0.180650646506658 
2032	 0.180894618826254 
2033	 0.18109061976032 
2034	 0.181389822444415 
2035	 0.181774551261166 
2036	 0.182091965320891 
2037	 0.182805020233383 
2038	 0.183431577334883 
2039	 0.183615981600465 
2040	 0.184061856123317 
2041	 0.184476679617163 
2042	 0.184942773380573 
2043	 0.1855977897724 
2044	 0.186080006012436 
2045	 0.186563879786173 
2046	 0.187019921480642 
2047	 0.187302173008724 
2048	 0.187602362734963 
2049	 0.188134730369811 
2050	 0.188556612736629 
2051	 0.18866636475022 
2052	 0.188900812651929 
2053	 0.189609643741965 
2054	 0.190351670476463 
2055	 0.191258691739816 
2056	 0.192174174431215 
2057	 0.192731648441168 
2058	 0.193399831321919 
2059	 0.193935515071304 
2060	 0.194399971299473 
2061	 0.194874348553425 
2062	 0.195440405869406 
2063	 0.195664913471804 
2064	 0.196053821367902 
2065	 0.196585559518878 
2066	 0.197121173316948 
2067	 0.197960603896272 
2068	 0.198656911794135 
2069	 0.199302432274128 
2070	 0.19984587962527 
2071	 0.20017843204337 
2072	 0.200672339166496 
2073	 0.201255790503336 
2074	 0.201785184688761 
2075	 0.202235190867852 
2076	 0.20270836742968 
2077	 0.20298778749653 
2078	 0.203505237010171 
2079	 0.204199406162255 
2080	 0.204656869362843 
2081	 0.205503879877102 
2082	 0.206322421262542 
2083	 0.206560172962432 
2084	 0.206950064249529 
2085	 0.207210121765234 
2086	 0.207461820058637 
2087	 0.207890238310806 
2088	 0.20859286664682 
2089	 0.209222669355801 
2090	 0.209919549835342 
2091	 0.210504959121962 
2092	 0.21108319050448 
2093	 0.211745417472402 
2094	 0.212282693374761 
2095	 0.2125491064048 
2096	 0.21253629358751 
2097	 0.21308510312022 
2098	 0.213841675817891 
2099	 0.21446356739392 
2100	 0.21544442102334 
2101	 0.216297257267445 
2102	 0.216836216651097 
2103	 0.217011996060944 
2104	 0.217244817133315 
2105	 0.217736995667827 
2106	 0.21816760899911 
2107	 0.218535642875948 
2108	 0.219279840386911 
2109	 0.219974923430866 
2110	 0.220505446475347 
2111	 0.221277793275015 
2112	 0.222206248375519 
2113	 0.222943196113502 
2114	 0.22337749513678 
2115	 0.223860348738729 
2116	 0.224110820711793 
2117	 0.224384079204227 
2118	 0.224576156311931 
2119	 0.224964484054038 
2120	 0.225355402038099 
2121	 0.225875507963032 
2122	 0.226488922744486 
2123	 0.226803318361482 
2124	 0.227126270553129 
2125	 0.227511490287078 
2126	 0.227859722357584 
2127	 0.228345097458146 
2128	 0.22897701326262 
2129	 0.229542002295891 
2130	 0.2301651980079 
2131	 0.23069748105984 
2132	 0.230936590571054 
2133	 0.231303902299319 
2134	 0.231698129612296 
2135	 0.232139870879763 
2136	 0.232322530151522 
2137	 0.232499402569126 
2138	 0.232670131593159 
2139	 0.232776068090053 
2140	 0.232989816362821 
2141	 0.233331500023995 
2142	 0.233951337939173 
2143	 0.23420703347484 
2144	 0.23440290489385 
2145	 0.234801818903475 
2146	 0.234799244622131 
2147	 0.235071559335397 
2148	 0.235473030050685 
2149	 0.235487585433293 
2150	 0.235685642034451 
2151	 0.235925088331613 
2152	 0.236077099011862 
2153	 0.236079848890509 
2154	 0.236188889670289 
2155	 0.236207200909214 
2156	 0.235945102938986 
2157	 0.235768774121299 
2158	 0.236035160241023 
2159	 0.236134355520559 
2160	 0.236035067304692 
2161	 0.236180496093801 
2162	 0.23623236971799 
2163	 0.236286514114287 
2164	 0.236169356381813 
2165	 0.236259134830095 
2166	 0.236574668138223 
2167	 0.23654932091227 
2168	 0.236596745305756 
2169	 0.236810948936765 
2170	 0.23688092929733 
2171	 0.236610549056118 
2172	 0.236943499530379 
2173	 0.237392288188083 
2174	 0.237599750880566 
2175	 0.237986271899858 
2176	 0.237895574517714 
2177	 0.237372866891147 
2178	 0.237374378359925 
2179	 0.237242130988252 
2180	 0.23717428714882 
2181	 0.237657111696756 
2182	 0.237546072843325 
2183	 0.237393144059017 
2184	 0.237484842075597 
2185	 0.237201319071163 
2186	 0.237231629254079 
2187	 0.237313603272408 
2188	 0.23731187940428 
2189	 0.237276837772263 
2190	 0.237338339287708 
2191	 0.237732891210875 
2192	 0.237377221469898 
2193	 0.237281567033963 
2194	 0.237521944240033 
2195	 0.237280673192446 
2196	 0.237618857562536 
2197	 0.238186480986698 
2198	 0.238298143999664 
2199	 0.238377164945509 
2200	 0.238048073964975 
2201	 0.237261124625881 
2202	 0.236908844374669 
2203	 0.236523612094414 
2204	 0.236001332854515 
2205	 0.23619564280983 
2206	 0.236423449657188 
2207	 0.236797687558444 
2208	 0.23692888925868 
2209	 0.236921674395249 
2210	 0.236971930242423 
2211	 0.236954229387742 
2212	 0.236852039927315 
2213	 0.236729172358807 
2214	 0.236833654118233 
2215	 0.236794208824005 
2216	 0.236738786464947 
2217	 0.23686822131652 
2218	 0.23709895832772 
2219	 0.237369605231115 
2220	 0.237319745903838 
2221	 0.237438861185615 
2222	 0.237599812911272 
2223	 0.237228798879364 
2224	 0.237115975119481 
2225	 0.236940949938487 
2226	 0.236290061021029 
2227	 0.236398620193247 
2228	 0.236514092476942 
2229	 0.236158077286111 
2230	 0.236442087700593 
2231	 0.236562233978868 
2232	 0.236614883489334 
2233	 0.236579936737861 
2234	 0.23664997457531 
2235	 0.236210724069572 
2236	 0.235859856420605 
2237	 0.235378717430071 
2238	 0.234673514447826 
2239	 0.234521249870352 
2240	 0.234613327174014 
2241	 0.23453764105848 
2242	 0.234790281720919 
2243	 0.234752258251093 
2244	 0.23465791604473 
2245	 0.234835284240709 
2246	 0.234427124046252 
2247	 0.233828938960969 
2248	 0.233215009604364 
2249	 0.232371121159882 
2250	 0.231401278847409 
2251	 0.230866847877431 
2252	 0.230890297022778 
2253	 0.23088839267566 
2254	 0.231274512619432 
2255	 0.231400552041242 
2256	 0.231109902286192 
2257	 0.230306469564008 
2258	 0.229506816155148 
2259	 0.228752874224695 
2260	 0.22837933611571 
2261	 0.228327605395444 
2262	 0.228446451944025 
2263	 0.228178335851907 
2264	 0.228173560694017 
2265	 0.228775148112462 
2266	 0.228350653454942 
2267	 0.227869747080212 
2268	 0.227553877024533 
2269	 0.226665595431646 
2270	 0.225896170162242 
2271	 0.225376587741447 
2272	 0.224900560141018 
2273	 0.224312634611967 
2274	 0.224208940620598 
2275	 0.224208448806845 
2276	 0.224114584504479 
2277	 0.223858702628845 
2278	 0.223206837544131 
2279	 0.222644356414324 
2280	 0.222187476546734 
2281	 0.221917667630979 
2282	 0.221719445704773 
2283	 0.221288977746676 
2284	 0.220627381366913 
2285	 0.220434711223752 
2286	 0.22003931104394 
2287	 0.219590587389044 
2288	 0.219003510310558 
2289	 0.218905518019896 
2290	 0.218656939990267 
2291	 0.218117805191307 
2292	 0.217552297182289 
2293	 0.217181736486116 
2294	 0.216659580301288 
2295	 0.216347642220116 
2296	 0.216276863327256 
2297	 0.215934069086794 
2298	 0.215098094634211 
2299	 0.214210177685947 
2300	 0.214532473306539 
2301	 0.214400174971883 
2302	 0.214257774229367 
2303	 0.214452357442172 
2304	 0.213102648377021 
2305	 0.21257618498591 
2306	 0.212221941866385 
2307	 0.211472494899572 
2308	 0.211811425848936 
2309	 0.212225205424978 
2310	 0.212619274363198 
2311	 0.212258433334993 
2312	 0.211700964731724 
2313	 0.210676739062544 
2314	 0.209162185723717 
2315	 0.208904575105893 
2316	 0.20891691745682 
2317	 0.209036748454589 
2318	 0.209140475077291 
2319	 0.208604576839688 
2320	 0.20736147464458 
2321	 0.206742876043008 
2322	 0.206822474312339 
2323	 0.206550965514331 
2324	 0.206155686057878 
2325	 0.206059692520413 
2326	 0.206612673848085 
2327	 0.205759156327019 
2328	 0.205021849790564 
2329	 0.204826829276602 
2330	 0.203304109387054 
2331	 0.202121505757798 
2332	 0.201789664605686 
2333	 0.201350440754024 
2334	 0.201261912530089 
2335	 0.20054128536497 
2336	 0.200713233380874 
2337	 0.201746199932837 
2338	 0.201530469964953 
2339	 0.202230000500699 
2340	 0.202375828572886 
2341	 0.200594400165345 
2342	 0.199735069606798 
2343	 0.199594578594781 
2344	 0.198891998917828 
2345	 0.198476127562634 
2346	 0.199850359788773 
2347	 0.201029850668786 
2348	 0.199980659793862 
2349	 0.199160965791287 
2350	 0.198481210789423 
2351	 0.196087289551309 
2352	 0.194413194925054 
2353	 0.194178013181465 
2354	 0.194084878895899 
2355	 0.194050304335201 
2356	 0.194041256157405 
2357	 0.194258904462333 
2358	 0.194104851678654 
2359	 0.194427236956942 
2360	 0.194791706774192 
2361	 0.1941212033637 
2362	 0.19375867816526 
2363	 0.192858229479568 
2364	 0.191574559149224 
2365	 0.191372650538258 
2366	 0.190359555866723 
2367	 0.188674359054385 
2368	 0.188592563427992 
2369	 0.188320173115276 
2370	 0.188055992871165 
2371	 0.188662802767429 
2372	 0.18860871497559 
2373	 0.187978422944326 
2374	 0.188021209204229 
2375	 0.188169642273245 
2376	 0.187844143485052 
2377	 0.187079013442637 
2378	 0.186885559841725 
2379	 0.188023136063103 
2380	 0.187469182018778 
2381	 0.185953666800576 
2382	 0.184645027131263 
2383	 0.181148602936624 
2384	 0.179281601693525 
2385	 0.179707915247565 
2386	 0.179428568789449 
2387	 0.178903062841044 
2388	 0.178211062942104 
2389	 0.177131452369894 
2390	 0.176831000303928 
2391	 0.177132476577515 
2392	 0.176816688580089 
2393	 0.176141787951027 
2394	 0.175928536554927 
2395	 0.176786212634362 
2396	 0.176316335095424 
2397	 0.174936150107933 
2398	 0.174336965948926 
2399	 0.171881932423901 
2400	 0.171564711508893 
2401	 0.173557621738502 
2402	 0.175884799753822 
2403	 0.175987702000078 
2404	 0.173406383382768 
2405	 0.168707571146237 
2406	 0.166230495476552 
2407	 0.166473292072478 
2408	 0.166748600402978 
2409	 0.17011277482263 
2410	 0.171905552705115 
2411	 0.169795465189361 
2412	 0.168164563610968 
2413	 0.169056398118901 
2414	 0.17096407557697 
2415	 0.170867404662851 
2416	 0.173319144914071 
2417	 0.171355988942144 
2418	 0.166348594557767 
2419	 0.166643176157438 
2420	 0.16649549466312 
2421	 0.168697632035567 
2422	 0.168718488770253 
2423	 0.164281961314626 
2424	 0.164585714015827 
2425	 0.164573819617991 
2426	 0.161967439148741 
2427	 0.162554968538791 
2428	 0.161917088280361 
2429	 0.159956236523164 
2430	 0.160647373932213 
2431	 0.160578564312315 
2432	 0.158261104862471 
2433	 0.153359586488358 
2434	 0.152310084479097 
2435	 0.152654764130406 
2436	 0.153598052771026 
2437	 0.160928824161041 
2438	 0.16149115799482 
2439	 0.156866932956268 
2440	 0.155658071667737 
2441	 0.151094293195426 
2442	 0.147856143915357 
2443	 0.149291233513758 
2444	 0.148458590004939 
2445	 0.143794214999657 
2446	 0.144225286427936 
2447	 0.147960463222091 
2448	 0.149031651660473 
2449	 0.154482268873791 
2450	 0.154336692724584 
2451	 0.148899674381651 
2452	 0.146516321400442 
2453	 0.139262517622755 
2454	 0.138095896219646 
2455	 0.140541872120233 
2456	 0.144289896245221 
2457	 0.156152915056399 
2458	 0.161365217638036 
2459	 0.163508619021266 
2460	 0.164888911322429 
2461	 0.162086746215339 
2462	 0.159637811014176 
2463	 0.157925378865972 
2464	 0.15526222784664 
2465	 0.152520118982468 
2466	 0.146370216791282 
2467	 0.133455486547167 
2468	 0.130421158326901 
2469	 0.129923057448584 
2470	 0.127416483782275 
2471	 0.133118928026568 
2472	 0.135627481753425 
2473	 0.132739317458523 
2474	 0.133974610210157 
2475	 0.145501691008665 
2476	 0.141493191644514 
2477	 0.123007210964063 
2478	 0.115112373796984 
2479	 9.74628917601169E-02 
2480	 9.47101082944078E-02 
2481	 0.112566283553807 
2482	 0.118838712388566 
2483	 0.136019260728741 
2484	 0.144020798467022 
2485	 0.136675080574003 
2486	 0.128632202308063 
2487	 0.11237316898536 
2488	 0.102979175220966 
2489	 0.130505602020406 
2490	 0.155914072211242 
2491	 0.159643128787959 
2492	 0.132819855959803 
2493	 8.26959913279612E-02 
2494	 5.09704526006286E-02 
2495	 3.90149756225918E-02 
2496	 7.46780248254742E-02 
2497	 0.122767671680213 
2498	 0.137900386174627 
2499	 0.18113369405983 
2500	 0.205933176652169 
