Wavelength	ref00040.asd
350	 1.13158040004917E-02 
351	 1.16016559994819E-02 
352	 1.07609654077916E-02 
353	 1.13506267726839E-02 
354	 0.011704794843134 
355	 1.14881653922961E-02 
356	 1.10745955815367E-02 
357	 1.18986827568136E-02 
358	 1.14645491414112E-02 
359	 0.010857342109317 
360	 1.15321125790903E-02 
361	 1.14878088243285E-02 
362	 1.15310931931553E-02 
363	 1.16271665461115E-02 
364	 1.12426815935276E-02 
365	 1.12257465826058E-02 
366	 1.13749952115857E-02 
367	 0.011368024363843 
368	 1.08887308882186E-02 
369	 1.11601896506323E-02 
370	 1.15320930721495E-02 
371	 1.13333519043216E-02 
372	 1.12580061663186E-02 
373	 1.12946458727545E-02 
374	 1.12955791384571E-02 
375	 1.11379912814889E-02 
376	 1.15290723395869E-02 
377	 1.15002874487747E-02 
378	 1.10640164727857E-02 
379	 1.15221482188822E-02 
380	 1.14861764806804E-02 
381	 1.13031621450416E-02 
382	 1.13738729245206E-02 
383	 1.11445704485461E-02 
384	 1.13949892206893E-02 
385	 0.011762424878148 
386	 1.15501753519915E-02 
387	 1.14703308144532E-02 
388	 1.16947550392762E-02 
389	 1.19363881408004E-02 
390	 1.15478500163276E-02 
391	 1.13897136816614E-02 
392	 1.16490258504091E-02 
393	 1.20973381047084E-02 
394	 1.18499131310961E-02 
395	 1.20395687538152E-02 
396	 0.012325331997988 
397	 1.21020309866616E-02 
398	 1.22967130985742E-02 
399	 1.21481018066029E-02 
400	 1.17538096178428E-02 
401	 1.19105379557748E-02 
402	 1.20364858133724E-02 
403	 1.21414406581484E-02 
404	 1.22872661085679E-02 
405	 1.24892593163685E-02 
406	 1.23838382508335E-02 
407	 0.012160502193941 
408	 1.21610584010602E-02 
409	 1.23940473058525E-02 
410	 1.25510021520247E-02 
411	 0.012530094451292 
412	 1.24525242229836E-02 
413	 1.27154985584142E-02 
414	 1.28622935810725E-02 
415	 1.27051949607512E-02 
416	 1.28969240088866E-02 
417	 1.31370738363331E-02 
418	 1.31817369693121E-02 
419	 0.012921149675567 
420	 1.27715117030281E-02 
421	 1.29765613974857E-02 
422	 1.32958791503868E-02 
423	 1.31447217200406E-02 
424	 1.33299533712617E-02 
425	 1.34945452240795E-02 
426	 1.33702111621677E-02 
427	 1.32744957823602E-02 
428	 0.013413524380641 
429	 1.36607885905923E-02 
430	 1.37883601091679E-02 
431	 1.38222790439234E-02 
432	 1.38526574574167E-02 
433	 1.38980060269104E-02 
434	 1.39185005133649E-02 
435	 0.014091706973695 
436	 1.41823874183338E-02 
437	 1.40773197050314E-02 
438	 1.40168635107182E-02 
439	 1.41221280091225E-02 
440	 1.42576797342813E-02 
441	 1.42473905031302E-02 
442	 1.42817681729057E-02 
443	 1.43253995258424E-02 
444	 1.43415489655192E-02 
445	 1.43136954411214E-02 
446	 1.44654465863987E-02 
447	 1.46467310668607E-02 
448	 0.014714980715977 
449	 1.47121478040034E-02 
450	 1.46702383330475E-02 
451	 1.46647674562622E-02 
452	 0.014765233411268 
453	 1.49000055070513E-02 
454	 1.50152858337313E-02 
455	 1.50878787227498E-02 
456	 1.51289129876664E-02 
457	 1.51566295540215E-02 
458	 1.51506434378574E-02 
459	 1.51214406560287E-02 
460	 0.015196968331843 
461	 1.52997867073862E-02 
462	 1.53712824257485E-02 
463	 1.53753177610737E-02 
464	 1.53618452115524E-02 
465	 1.54234988263982E-02 
466	 1.55585346984162E-02 
467	 1.56232083936181E-02 
468	 1.56663617670213E-02 
469	 0.015727426956188 
470	 0.015813868528856 
471	 1.58107541213669E-02 
472	 1.58243355549082E-02 
473	 1.58966507789737E-02 
474	 1.60124203300216E-02 
475	 1.61326388577504E-02 
476	 1.60836644395366E-02 
477	 1.59084475396772E-02 
478	 1.60890917560602E-02 
479	 1.62199175114813E-02 
480	 1.63080436106545E-02 
481	 1.64490333684721E-02 
482	 1.64588871795487E-02 
483	 1.64056266603127E-02 
484	 1.64105797034274E-02 
485	 1.66156103322655E-02 
486	 1.67008400452802E-02 
487	 0.016693951845665 
488	 1.66872340919656E-02 
489	 1.67342707839048E-02 
490	 1.68387254733987E-02 
491	 1.69546737605191E-02 
492	 1.70163305023947E-02 
493	 1.69762847836689E-02 
494	 0.017040655813617 
495	 0.017216823569167 
496	 1.72500732915535E-02 
497	 1.73499436672622E-02 
498	 1.75041680800191E-02 
499	 1.76417145634818E-02 
500	 1.76760793646738E-02 
501	 1.77343359468303E-02 
502	 1.78383190387163E-02 
503	 0.017939296912041 
504	 1.80308857152747E-02 
505	 1.80591141027523E-02 
506	 1.80261393589178E-02 
507	 1.80218187654016E-02 
508	 1.81816779634783E-02 
509	 1.83499502637006E-02 
510	 1.83559160321576E-02 
511	 0.018407497553921 
512	 1.85026087385789E-02 
513	 1.86163258450172E-02 
514	 1.87058912239241E-02 
515	 1.86808527046558E-02 
516	 1.87927221798938E-02 
517	 1.90930176966075E-02 
518	 0.018987668499944 
519	 1.90368072192894E-02 
520	 1.92264883947372E-02 
521	 1.93358686166145E-02 
522	 1.93938988767637E-02 
523	 0.019430933274479 
524	 1.94797304520527E-02 
525	 1.95715561313122E-02 
526	 1.95709852124503E-02 
527	 1.96546139818199E-02 
528	 1.98966214001465E-02 
529	 1.98286306345129E-02 
530	 1.98556408336326E-02 
531	 1.99741296582605E-02 
532	 1.99783385638534E-02 
533	 2.00853136687173E-02 
534	 2.02110780100584E-02 
535	 2.02962827970982E-02 
536	 2.03763644604118E-02 
537	 2.05321252466141E-02 
538	 2.06444594977057E-02 
539	 2.06201855020071E-02 
540	 2.07889219606338E-02 
541	 2.09244655247549E-02 
542	 2.09345312622364E-02 
543	 2.08808286979719E-02 
544	 2.10767569190397E-02 
545	 2.12577864215488E-02 
546	 2.12556624971019E-02 
547	 2.13435688705265E-02 
548	 2.14769571770503E-02 
549	 2.16380580817388E-02 
550	 2.17937685430181E-02 
551	 2.18010698498742E-02 
552	 2.18348854767381E-02 
553	 2.19409170907544E-02 
554	 0.021982989370452 
555	 2.20866244044131E-02 
556	 2.21827416007954E-02 
557	 2.22134756301248E-02 
558	 2.23111578079252E-02 
559	 2.24764080491171E-02 
560	 2.26357179799865E-02 
561	 2.26883134086703E-02 
562	 2.27773558485836E-02 
563	 2.28355299794645E-02 
564	 2.28607771986616E-02 
565	 2.30151201574595E-02 
566	 2.31865912102001E-02 
567	 2.33282525611046E-02 
568	 2.34200617780797E-02 
569	 2.34555163282882E-02 
570	 2.35662960403188E-02 
571	 2.37284516502137E-02 
572	 2.37788217644719E-02 
573	 2.38619424090834E-02 
574	 2.39850391079616E-02 
575	 2.41181856422662E-02 
576	 2.41978585564157E-02 
577	 2.42949865879894E-02 
578	 2.43708571236274E-02 
579	 2.43604202377413E-02 
580	 2.44077075221655E-02 
581	 2.44359735153745E-02 
582	 2.44580715307797E-02 
583	 2.46313751031544E-02 
584	 2.46710704481652E-02 
585	 2.46910075833043E-02 
586	 0.024823471655544 
587	 2.48331585808449E-02 
588	 0.024973670713515 
589	 2.52045515754647E-02 
590	 2.52766930058025E-02 
591	 2.53407214082749E-02 
592	 2.55144778296598E-02 
593	 2.57608798527512E-02 
594	 2.57638454067933E-02 
595	 2.58014194577984E-02 
596	 2.58800568287673E-02 
597	 2.59310090428852E-02 
598	 2.59870374862056E-02 
599	 2.60647724188729E-02 
600	 2.61672679862359E-02 
601	 2.62821403867234E-02 
602	 2.63506485334166E-02 
603	 2.64048074872913E-02 
604	 2.64905444851688E-02 
605	 2.66450454072485E-02 
606	 2.67715164779872E-02 
607	 2.68522221601919E-02 
608	 2.69231663468998E-02 
609	 2.70842164884513E-02 
610	 2.72799072208307E-02 
611	 2.74528921797013E-02 
612	 0.027569286914225 
613	 2.76856346851969E-02 
614	 2.78413814158932E-02 
615	 2.80332814174695E-02 
616	 2.81303916782783E-02 
617	 2.81896231465328E-02 
618	 2.83017213107401E-02 
619	 2.85475698589645E-02 
620	 2.86671937504911E-02 
621	 2.87617546791642E-02 
622	 2.89058207043742E-02 
623	 0.029023521670464 
624	 2.91511564270555E-02 
625	 2.93103226754161E-02 
626	 0.029499842171549 
627	 2.96440133116868E-02 
628	 2.97271417880267E-02 
629	 2.98164928397474E-02 
630	 3.00448854876921E-02 
631	 3.02942959948298E-02 
632	 0.030490626688483 
633	 3.05926705793135E-02 
634	 3.05911442893751E-02 
635	 3.07279610560918E-02 
636	 3.09829171399593E-02 
637	 3.11996153235644E-02 
638	 3.12683922249088E-02 
639	 3.13517377685348E-02 
640	 3.15313777737684E-02 
641	 3.17508068687814E-02 
642	 3.19289720994448E-02 
643	 3.20876507822189E-02 
644	 3.22560296480318E-02 
645	 3.23718366312223E-02 
646	 3.25338176732465E-02 
647	 3.27448980750503E-02 
648	 3.29408117677916E-02 
649	 3.30501739998223E-02 
650	 0.033209773155466 
651	 3.34464218315427E-02 
652	 3.35801400122581E-02 
653	 3.37762962773306E-02 
654	 3.39435930997814E-02 
655	 3.40183067219379E-02 
656	 3.43964122819278E-02 
657	 3.47109216279023E-02 
658	 3.47892577081146E-02 
659	 3.47438822153635E-02 
660	 3.49186939947713E-02 
661	 3.51601996681354E-02 
662	 3.53604777449583E-02 
663	 3.56586784419266E-02 
664	 3.58859788057313E-02 
665	 3.60061100688908E-02 
666	 3.60810270421568E-02 
667	 3.63750627362216E-02 
668	 3.65946361030735E-02 
669	 3.66947523786202E-02 
670	 3.68756606770766E-02 
671	 3.70159611077859E-02 
672	 3.72137735712514E-02 
673	 3.74890802277179E-02 
674	 3.75916269421299E-02 
675	 3.77767867401448E-02 
676	 3.79798496939491E-02 
677	 3.80801673568144E-02 
678	 3.84045630992646E-02 
679	 3.87395091506282E-02 
680	 3.89504970044999E-02 
681	 0.039034566528687 
682	 3.92641277163698E-02 
683	 3.94972130943085E-02 
684	 3.96425346607498E-02 
685	 3.99950766669371E-02 
686	 4.02052751183676E-02 
687	 4.03747901160594E-02 
688	 4.07305831461051E-02 
689	 4.07940334671048E-02 
690	 4.09432693316825E-02 
691	 4.12616304051648E-02 
692	 4.14551043395537E-02 
693	 4.16580756643438E-02 
694	 4.19120716287316E-02 
695	 4.21929899577313E-02 
696	 4.23300229948877E-02 
697	 4.26542900101274E-02 
698	 4.30452612752046E-02 
699	 4.32150959824492E-02 
700	 4.32976988756266E-02 
701	 4.35259648381241E-02 
702	 4.38870201950022E-02 
703	 4.40737364208334E-02 
704	 4.42133139052911E-02 
705	 4.43668334560565E-02 
706	 4.45984258283115E-02 
707	 4.50355573208924E-02 
708	 0.045351227423461 
709	 4.55278569477835E-02 
710	 0.045697985853901 
711	 4.58548969732186E-02 
712	 4.61734566052498E-02 
713	 4.65987870541886E-02 
714	 4.68107692343207E-02 
715	 4.69737672578045E-02 
716	 4.72124098141408E-02 
717	 4.75815795394027E-02 
718	 4.79261697024109E-02 
719	 4.81648696065784E-02 
720	 4.84109286613673E-02 
721	 4.88045032517925E-02 
722	 4.90033285197182E-02 
723	 4.92550937319301E-02 
724	 4.95818146204472E-02 
725	 4.97115608326848E-02 
726	 4.99947080171297E-02 
727	 5.03480851128484E-02 
728	 5.06700719608068E-02 
729	 5.10197780194467E-02 
730	 5.12654791403582E-02 
731	 5.14792500794337E-02 
732	 5.17747582279739E-02 
733	 5.20025440448654E-02 
734	 5.23051515559371E-02 
735	 5.26766591594329E-02 
736	 5.29690227966216E-02 
737	 5.32785863984851E-02 
738	 5.35655165716571E-02 
739	 5.38176840440334E-02 
740	 5.41115957024229E-02 
741	 5.44235877410815E-02 
742	 5.47203555469594E-02 
743	 5.49923287226684E-02 
744	 5.53875223298769E-02 
745	 5.56111705295922E-02 
746	 5.57450794150907E-02 
747	 5.61208370857392E-02 
748	 5.63450210551287E-02 
749	 5.66112066263157E-02 
750	 5.70074717947651E-02 
751	 5.73154074713148E-02 
752	 5.75297970941364E-02 
753	 0.057791225130104 
754	 5.81932078298556E-02 
755	 5.85142499483066E-02 
756	 5.87915801531507E-02 
757	 5.90260312269942E-02 
758	 5.92220266221783E-02 
759	 5.95355732441193E-02 
760	 0.060198326976472 
761	 6.10988777350154E-02 
762	 6.11071826503268E-02 
763	 6.11809147662456E-02 
764	 6.15556943755394E-02 
765	 6.20560640588389E-02 
766	 6.21244575965482E-02 
767	 6.23011256409925E-02 
768	 6.26060321233317E-02 
769	 6.29128789081447E-02 
770	 6.31208465650638E-02 
771	 6.34010197397723E-02 
772	 6.37490423742273E-02 
773	 6.40209759614514E-02 
774	 6.43827614433859E-02 
775	 6.47482619542714E-02 
776	 6.50673168128587E-02 
777	 6.54189584247969E-02 
778	 6.57143890096554E-02 
779	 0.066055776991279 
780	 6.64955058628222E-02 
781	 0.066725918461335 
782	 6.71035313474012E-02 
783	 6.75340057464162E-02 
784	 6.77488619627768E-02 
785	 6.81193157461249E-02 
786	 6.84638495761203E-02 
787	 6.87679650534719E-02 
788	 0.069227945750483 
789	 6.97020413576678E-02 
790	 6.99970400329657E-02 
791	 7.01332249695778E-02 
792	 7.05839390719777E-02 
793	 7.10653793677966E-02 
794	 7.14223168491486E-02 
795	 7.16554591303632E-02 
796	 7.22237312770568E-02 
797	 7.25942386377125E-02 
798	 7.27733306437302E-02 
799	 0.073089077892865 
800	 7.35579634647108E-02 
801	 7.39590646355221E-02 
802	 7.42308999475353E-02 
803	 0.074534417564873 
804	 7.50423278825545E-02 
805	 7.54634098749638E-02 
806	 7.56647779667827E-02 
807	 0.076033508775771 
808	 7.63685704790371E-02 
809	 7.67176239567569E-02 
810	 7.71433125946422E-02 
811	 7.74770048640825E-02 
812	 7.78736751119392E-02 
813	 7.83826771827754E-02 
814	 7.89387823289927E-02 
815	 0.079187920657748 
816	 7.95462247599663E-02 
817	 8.00910629510246E-02 
818	 8.04668847703541E-02 
819	 8.07862188637634E-02 
820	 8.10325558329605E-02 
821	 8.12591790035235E-02 
822	 8.16537173907376E-02 
823	 8.21791323304666E-02 
824	 8.26465932064455E-02 
825	 8.29454779448856E-02 
826	 0.083356151721982 
827	 8.38543378189204E-02 
828	 8.42968588704684E-02 
829	 8.45562619530164E-02 
830	 0.084997098501541 
831	 8.53261320695915E-02 
832	 8.56238357642095E-02 
833	 8.62034721576954E-02 
834	 8.66919519432753E-02 
835	 8.70175308506967E-02 
836	 0.087249526936144 
837	 8.75709775027796E-02 
838	 8.80300892091977E-02 
839	 8.84737247357949E-02 
840	 8.88348231616935E-02 
841	 8.93067791592441E-02 
842	 8.96771658879907E-02 
843	 8.99433441682805E-02 
844	 9.02259214608395E-02 
845	 9.08523315393071E-02 
846	 9.12014621089615E-02 
847	 9.14344479414114E-02 
848	 9.19733496921302E-02 
849	 9.25257606155834E-02 
850	 9.31468549212257E-02 
851	 9.36052096395328E-02 
852	 9.35713110217668E-02 
853	 9.36601524361142E-02 
854	 9.42653017771131E-02 
855	 9.51496235500085E-02 
856	 9.54717975920021E-02 
857	 9.55939377713561E-02 
858	 9.59529334524766E-02 
859	 9.65721365200501E-02 
860	 9.68240085367423E-02 
861	 0.097142446535671 
862	 9.76037105513165E-02 
863	 9.81207035327175E-02 
864	 9.83955448888652E-02 
865	 9.89561506367697E-02 
866	 9.96376816468367E-02 
867	 0.100080482373767 
868	 0.100248369450494 
869	 0.100302802872376 
870	 0.100531463433069 
871	 0.101129500620272 
872	 0.1016239493959 
873	 0.102173754062898 
874	 0.102685530185818 
875	 0.10296096642704 
876	 0.103564981628037 
877	 0.103931216011335 
878	 0.104088098106993 
879	 0.104686033691461 
880	 0.105225529270276 
881	 0.105641042366293 
882	 0.105942736355285 
883	 0.106166172518518 
884	 0.10651525018745 
885	 0.106962675145024 
886	 0.107430558293069 
887	 0.107852160877783 
888	 0.108331514619841 
889	 0.108674778180143 
890	 0.108820323382672 
891	 0.109209546536641 
892	 0.109657917628498 
893	 0.110151774254072 
894	 0.11066899167923 
895	 0.110956865114793 
896	 0.111539974247796 
897	 0.112307964913686 
898	 0.112911646775255 
899	 0.113436043060739 
900	 0.113929918890791 
901	 0.114206997296079 
902	 0.114125809721577 
903	 0.114322263268328 
904	 0.114543670256572 
905	 0.115048957112542 
906	 0.116167298515491 
907	 0.116428386446024 
908	 0.11671895862663 
909	 0.117115730773646 
910	 0.117034858427073 
911	 0.117684760405682 
912	 0.118402063989763 
913	 0.118866364225702 
914	 0.119301394299773 
915	 0.119728957568634 
916	 0.119674105325048 
917	 0.119459596935749 
918	 0.120199971104402 
919	 0.121081143407643 
920	 0.121416927728141 
921	 0.121378417189485 
922	 0.122068996047892 
923	 0.122443198506192 
924	 0.122774952645175 
925	 0.123253420735683 
926	 0.123584375145682 
927	 0.123841878508108 
928	 0.124069078292634 
929	 0.12421923526208 
930	 0.124103283952455 
931	 0.125464517328795 
932	 0.127050178701096 
933	 0.127425630580475 
934	 0.127109732043236 
935	 0.127040261118871 
936	 0.127554256617241 
937	 0.12814040211054 
938	 0.127349416778709 
939	 0.128126612295949 
940	 0.128702528751088 
941	 0.128253075017047 
942	 0.129654476223489 
943	 0.130018340141145 
944	 0.1298911059248 
945	 0.130230386093876 
946	 0.130919182131552 
947	 0.131151731908467 
948	 0.131116665041885 
949	 0.131282761747764 
950	 0.132026713878801 
951	 0.132179595151761 
952	 0.131956281788513 
953	 0.132044896209062 
954	 0.133222168730053 
955	 0.134146680263848 
956	 0.134629919429028 
957	 0.134897157183775 
958	 0.135310969079936 
959	 0.135722937062255 
960	 0.135996290272429 
961	 0.136118666119971 
962	 0.136288206784947 
963	 0.135713127456192 
964	 0.13606384317823 
965	 0.137626154734435 
966	 0.137710240399176 
967	 0.137717962072077 
968	 0.138492384761448 
969	 0.139508575747708 
970	 0.138579709812726 
971	 0.139067351739054 
972	 0.139097828250972 
973	 0.138607011036273 
974	 0.141107592652181 
975	 0.140649970643043 
976	 0.140615709278323 
977	 0.14223530851963 
978	 0.141965033963955 
979	 0.140797924903742 
980	 0.141032534079827 
981	 0.142695122978069 
982	 0.14334235737985 
983	 0.143604059674115 
984	 0.143695274213148 
985	 0.143150890780974 
986	 0.141612751653617 
987	 0.144158827705836 
988	 0.145500626140087 
989	 0.145072131657534 
990	 0.146246876531553 
991	 0.146677279272212 
992	 0.146786457188167 
993	 0.146688710778773 
994	 0.146492089244364 
995	 0.14789080759895 
996	 0.148107209878387 
997	 0.147562720760011 
998	 0.147555093778541 
999	 0.144954250829744 
1000	 0.146442254668069 
1001	 0.155724485592178 
1002	 0.156172154088875 
1003	 0.156570945804965 
1004	 0.156795193633588 
1005	 0.157146738192656 
1006	 0.157623109841686 
1007	 0.158058182242469 
1008	 0.15849135990794 
1009	 0.158934487973593 
1010	 0.15949574177476 
1011	 0.159786441401175 
1012	 0.159988203880123 
1013	 0.160325405917258 
1014	 0.160631004588074 
1015	 0.16099706292371 
1016	 0.161467511872457 
1017	 0.161857486280413 
1018	 0.162237252895294 
1019	 0.162589436754595 
1020	 0.162931812561991 
1021	 0.163253444965158 
1022	 0.163570010247773 
1023	 0.163881684112476 
1024	 0.164160794434874 
1025	 0.164390262532276 
1026	 0.164808497375433 
1027	 0.165285158778348 
1028	 0.165654802839772 
1029	 0.166119504138032 
1030	 0.166493664903635 
1031	 0.166690990007188 
1032	 0.167086098212416 
1033	 0.167448112132397 
1034	 0.167745467668249 
1035	 0.168135671471835 
1036	 0.168672306590366 
1037	 0.169002239849557 
1038	 0.169236330789052 
1039	 0.169602682055387 
1040	 0.169820784109621 
1041	 0.170125714924694 
1042	 0.170557202681483 
1043	 0.170843323900648 
1044	 0.171185807522294 
1045	 0.171567293424315 
1046	 0.171942570971798 
1047	 0.172409308067326 
1048	 0.172885325973914 
1049	 0.173323111679882 
1050	 0.173711076408425 
1051	 0.174072726423255 
1052	 0.174356937538887 
1053	 0.174616945486436 
1054	 0.174952744310001 
1055	 0.175280308113783 
1056	 0.175649775024734 
1057	 0.17607637528316 
1058	 0.176400111817392 
1059	 0.176708608103333 
1060	 0.17717020166547 
1061	 0.177594065875138 
1062	 0.177920940653127 
1063	 0.178399088045759 
1064	 0.178933160473299 
1065	 0.179394260113367 
1066	 0.17986017428554 
1067	 0.180348568224647 
1068	 0.180720637478457 
1069	 0.181147877328893 
1070	 0.181567192290762 
1071	 0.181866693078953 
1072	 0.182297728126364 
1073	 0.182627138495783 
1074	 0.182858089821761 
1075	 0.183305796531777 
1076	 0.183762156995086 
1077	 0.184124870171092 
1078	 0.184533973369368 
1079	 0.184941002202431 
1080	 0.185299889350434 
1081	 0.18567886913811 
1082	 0.186042247822096 
1083	 0.186449357087292 
1084	 0.186803250917689 
1085	 0.187093090062831 
1086	 0.187441627553551 
1087	 0.187682405757798 
1088	 0.187934557191777 
1089	 0.188400563591674 
1090	 0.188870484431792 
1091	 0.189318803663753 
1092	 0.189820464391661 
1093	 0.190230628190819 
1094	 0.190458241287024 
1095	 0.190717435224103 
1096	 0.19101767969035 
1097	 0.191261288749967 
1098	 0.191625507413472 
1099	 0.192154580389926 
1100	 0.192498987842385 
1101	 0.192865436789128 
1102	 0.19332339719281 
1103	 0.193498827174156 
1104	 0.193827821598715 
1105	 0.19427693011099 
1106	 0.194542903172834 
1107	 0.194946153545178 
1108	 0.195302874039344 
1109	 0.195596537795383 
1110	 0.195976172100004 
1111	 0.196266119140141 
1112	 0.196463788810019 
1113	 0.196850299240107 
1114	 0.197262643173079 
1115	 0.19767598823084 
1116	 0.198251907981291 
1117	 0.198859673481049 
1118	 0.199280467365965 
1119	 0.199743141924277 
1120	 0.200266889806232 
1121	 0.200662706945027 
1122	 0.201032397075679 
1123	 0.201549162827839 
1124	 0.201770577021706 
1125	 0.201932697356003 
1126	 0.202242199609237 
1127	 0.202474590668479 
1128	 0.20277608451859 
1129	 0.203343548793969 
1130	 0.20363069986105 
1131	 0.203730090344019 
1132	 0.203902187210091 
1133	 0.204065070455803 
1134	 0.204095838051217 
1135	 0.204126343624654 
1136	 0.204153351271472 
1137	 0.204200597192917 
1138	 0.204225712334894 
1139	 0.204378120526864 
1140	 0.204732263953472 
1141	 0.204964350190103 
1142	 0.205127457625379 
1143	 0.205241983646765 
1144	 0.205235084907979 
1145	 0.205343059473447 
1146	 0.205424398684121 
1147	 0.205553608530995 
1148	 0.205805406510821 
1149	 0.205965247364905 
1150	 0.20606874032079 
1151	 0.206227193058324 
1152	 0.206428196369664 
1153	 0.206498950673713 
1154	 0.206599087241272 
1155	 0.206784732266113 
1156	 0.206986909934917 
1157	 0.20712077480699 
1158	 0.2072311219311 
1159	 0.207279871072859 
1160	 0.207373044666218 
1161	 0.207398453097438 
1162	 0.2075417209205 
1163	 0.207783295595938 
1164	 0.207985894427701 
1165	 0.208203329849703 
1166	 0.208421725036509 
1167	 0.208695909271418 
1168	 0.208881118744329 
1169	 0.209022170413809 
1170	 0.209160418241635 
1171	 0.209328284892731 
1172	 0.20945976689177 
1173	 0.209681535405858 
1174	 0.209982823595393 
1175	 0.210217318456257 
1176	 0.210429441545038 
1177	 0.210633824844073 
1178	 0.210808905421031 
1179	 0.210993863243604 
1180	 0.211147671786021 
1181	 0.211363047056259 
1182	 0.21160512101586 
1183	 0.211870150230939 
1184	 0.212214942829282 
1185	 0.212474433683011 
1186	 0.212659107584544 
1187	 0.212919760315502 
1188	 0.213192152527807 
1189	 0.213461427351693 
1190	 0.213765240758014 
1191	 0.214021478137416 
1192	 0.214198539243871 
1193	 0.21444693455783 
1194	 0.214757578671155 
1195	 0.215192684817712 
1196	 0.215475056852084 
1197	 0.215731193000955 
1198	 0.215991900375601 
1199	 0.216158647230607 
1200	 0.216388049658467 
1201	 0.216687776387244 
1202	 0.216957001433106 
1203	 0.217174660890667 
1204	 0.2174504498947 
1205	 0.217798068912874 
1206	 0.218079024051749 
1207	 0.218316771054763 
1208	 0.218602753753378 
1209	 0.218891338138191 
1210	 0.219140005597993 
1211	 0.219495317354829 
1212	 0.219838333927018 
1213	 0.220114920420308 
1214	 0.220337545394571 
1215	 0.220608350386618 
1216	 0.220851352571333 
1217	 0.221130171491371 
1218	 0.221452647414173 
1219	 0.22175330529638 
1220	 0.222022110215972 
1221	 0.222350915310914 
1222	 0.22277110965376 
1223	 0.223084832256035 
1224	 0.223374100264599 
1225	 0.223659400405927 
1226	 0.223841344644309 
1227	 0.224093322629778 
1228	 0.224423281567345 
1229	 0.224693969514894 
1230	 0.22499669373608 
1231	 0.225331744020816 
1232	 0.225618543009375 
1233	 0.225907154851005 
1234	 0.226175975785629 
1235	 0.226376559261515 
1236	 0.226667057070752 
1237	 0.22700595444462 
1238	 0.227309314043555 
1239	 0.22765943795006 
1240	 0.227961829581086 
1241	 0.228211880604703 
1242	 0.228483808385849 
1243	 0.22875548463364 
1244	 0.229028922800848 
1245	 0.22931461498005 
1246	 0.22957546555141 
1247	 0.229816289224787 
1248	 0.230073784005223 
1249	 0.230330994292327 
1250	 0.23057506114426 
1251	 0.23081109903431 
1252	 0.231094251004263 
1253	 0.231300902926845 
1254	 0.231443749479341 
1255	 0.231662416030356 
1256	 0.231878120593232 
1257	 0.232109562053902 
1258	 0.232420790495375 
1259	 0.232657047051084 
1260	 0.232833565584302 
1261	 0.233057674171328 
1262	 0.233241269592865 
1263	 0.233507370233294 
1264	 0.233875438039816 
1265	 0.234175614521372 
1266	 0.234464409667989 
1267	 0.234778814090284 
1268	 0.235110203469516 
1269	 0.235373051004254 
1270	 0.235594360911205 
1271	 0.235853607416377 
1272	 0.236137590618423 
1273	 0.236267877887063 
1274	 0.236515381713323 
1275	 0.236813813864792 
1276	 0.237138695127905 
1277	 0.237482816754868 
1278	 0.237812140265023 
1279	 0.238209407187076 
1280	 0.238534714364614 
1281	 0.23875257758784 
1282	 0.239105638064587 
1283	 0.239553987503052 
1284	 0.239906703026695 
1285	 0.240270578510435 
1286	 0.240629006869145 
1287	 0.240958852798734 
1288	 0.241237582678428 
1289	 0.241496049798072 
1290	 0.241775977215876 
1291	 0.241984397217121 
1292	 0.242229194227968 
1293	 0.242562817300149 
1294	 0.242846889502233 
1295	 0.243123047744842 
1296	 0.243348981627856 
1297	 0.243566722864103 
1298	 0.243759282356195 
1299	 0.243965730219726 
1300	 0.244139670557673 
1301	 0.244357085555562 
1302	 0.244665241445744 
1303	 0.244802581394794 
1304	 0.244849088771121 
1305	 0.244952903415446 
1306	 0.244914443851904 
1307	 0.245049199469094 
1308	 0.245402539159595 
1309	 0.245558823523298 
1310	 0.245695329974014 
1311	 0.245781189388154 
1312	 0.24568504535574 
1313	 0.245712932893762 
1314	 0.24585058145065 
1315	 0.245881970796628 
1316	 0.245847825544366 
1317	 0.245873808352886 
1318	 0.245919719864336 
1319	 0.245893755117799 
1320	 0.245909517317751 
1321	 0.245863702345982 
1322	 0.245786288600319 
1323	 0.245553379058852 
1324	 0.24548696908156 
1325	 0.245534302718269 
1326	 0.245447124277936 
1327	 0.245337535736289 
1328	 0.245229047599563 
1329	 0.245044652427551 
1330	 0.244872957989676 
1331	 0.244737582216867 
1332	 0.244580809057286 
1333	 0.244397216051076 
1334	 0.244177034733778 
1335	 0.243959208490363 
1336	 0.24371250254723 
1337	 0.243252532026556 
1338	 0.243057157614536 
1339	 0.243122262909714 
1340	 0.242993138632762 
1341	 0.242961664777188 
1342	 0.242816092486542 
1343	 0.242192460235004 
1344	 0.241889154739705 
1345	 0.241786063938066 
1346	 0.241748042764841 
1347	 0.241685693500724 
1348	 0.241758546533438 
1349	 0.241734853485475 
1350	 0.241354079123171 
1351	 0.24130561239914 
1352	 0.24188212305623 
1353	 0.241951974094226 
1354	 0.24158068241891 
1355	 0.241560684716893 
1356	 0.241532652413542 
1357	 0.241054613054884 
1358	 0.240087477853302 
1359	 0.240252722148124 
1360	 0.24179628215732 
1361	 0.241313573944554 
1362	 0.243417119694688 
1363	 0.246005183666168 
1364	 0.236825067030911 
1365	 0.236137062503358 
1366	 0.252352930500503 
1367	 0.252094164556454 
1368	 0.244278389865308 
1369	 0.241368946976554 
1370	 0.232785822904088 
1371	 0.231138432909286 
1372	 0.236871189832801 
1373	 0.2372403894065 
1374	 0.23453660482574 
1375	 0.23604100445489 
1376	 0.235416659217497 
1377	 0.230966138079305 
1378	 0.230164482070614 
1379	 0.232160873915207 
1380	 0.228821967417259 
1381	 0.222958583833731 
1382	 0.221095893391573 
1383	 0.218873360731027 
1384	 0.216042079912205 
1385	 0.218265808839142 
1386	 0.212805841942309 
1387	 0.200197194472449 
1388	 0.197582912651913 
1389	 0.196429970439453 
1390	 0.196514607982011 
1391	 0.202142505521705 
1392	 0.203012868041418 
1393	 0.203237463232174 
1394	 0.20079537380845 
1395	 0.195671984380137 
1396	 0.192141630508787 
1397	 0.187044336983555 
1398	 0.183787146468175 
1399	 0.18273273131443 
1400	 0.180278321650895 
1401	 0.177338994466702 
1402	 0.174750942400062 
1403	 0.171759731648004 
1404	 0.169543726959798 
1405	 0.168403295807115 
1406	 0.166690776048242 
1407	 0.16511814569451 
1408	 0.163979793431043 
1409	 0.162481794514718 
1410	 0.161476368942598 
1411	 0.159909606137666 
1412	 0.158310122417243 
1413	 0.156857333155225 
1414	 0.155120622722901 
1415	 0.153993460453998 
1416	 0.153233736346342 
1417	 0.15237471524486 
1418	 0.15184099422387 
1419	 0.150779208855947 
1420	 0.14932725303955 
1421	 0.148476240228072 
1422	 0.147596734049807 
1423	 0.14687409113873 
1424	 0.146622797301943 
1425	 0.146001478700859 
1426	 0.144972044440332 
1427	 0.144415767612376 
1428	 0.144028140372278 
1429	 0.143580280648707 
1430	 0.143411177939767 
1431	 0.142955862358533 
1432	 0.142138163184826 
1433	 0.141627225759452 
1434	 0.141124216760781 
1435	 0.140734206381793 
1436	 0.14047355340387 
1437	 0.140313904312089 
1438	 0.140478179095865 
1439	 0.140334699451261 
1440	 0.1401749829633 
1441	 0.139930214006707 
1442	 0.139584100242113 
1443	 0.138836224635067 
1444	 0.138480027295081 
1445	 0.13850275015033 
1446	 0.138775176061951 
1447	 0.138977989589595 
1448	 0.139078949373687 
1449	 0.139270802629188 
1450	 0.139200246550647 
1451	 0.138858825354911 
1452	 0.138896519164398 
1453	 0.138926515678492 
1454	 0.139095385875888 
1455	 0.139571162153493 
1456	 0.139708080068139 
1457	 0.139741089777293 
1458	 0.139821457697137 
1459	 0.13976243155957 
1460	 0.139861465191356 
1461	 0.140116748515256 
1462	 0.140232686816648 
1463	 0.140244288587265 
1464	 0.14047360817582 
1465	 0.140731199632326 
1466	 0.141109493135097 
1467	 0.141764399807583 
1468	 0.142314803854121 
1469	 0.142793644962494 
1470	 0.143358487273706 
1471	 0.143924217364506 
1472	 0.144560367543735 
1473	 0.145289566464657 
1474	 0.145931411071795 
1475	 0.146557904275661 
1476	 0.147129326645776 
1477	 0.147530093577279 
1478	 0.148068018556654 
1479	 0.148648254143511 
1480	 0.149253789249281 
1481	 0.149881619063551 
1482	 0.150586385907005 
1483	 0.151392185781737 
1484	 0.152078093676897 
1485	 0.152733981589998 
1486	 0.153405313960439 
1487	 0.153958737793803 
1488	 0.154555278963544 
1489	 0.155314939399167 
1490	 0.156092926387508 
1491	 0.156867433827668 
1492	 0.157603081318783 
1493	 0.15824476643293 
1494	 0.158884612715878 
1495	 0.159576387685362 
1496	 0.16029429227383 
1497	 0.160985723385261 
1498	 0.161743434485051 
1499	 0.162381051271061 
1500	 0.162909337147339 
1501	 0.163619879716621 
1502	 0.164327345855124 
1503	 0.165170552590899 
1504	 0.166213399621427 
1505	 0.167090879306437 
1506	 0.167985511809055 
1507	 0.168788374591794 
1508	 0.169504842497193 
1509	 0.170219290783529 
1510	 0.170856255981087 
1511	 0.171588058083221 
1512	 0.172343800086456 
1513	 0.173091606931235 
1514	 0.173901277756522 
1515	 0.174673285259162 
1516	 0.175428941785976 
1517	 0.176176242951855 
1518	 0.17694821260093 
1519	 0.177654347710128 
1520	 0.178265892220459 
1521	 0.178984978192143 
1522	 0.179735309654607 
1523	 0.18048242839611 
1524	 0.181341237911986 
1525	 0.182071490092906 
1526	 0.182727800663542 
1527	 0.183379246679847 
1528	 0.183934612128157 
1529	 0.184585347917618 
1530	 0.185283689873129 
1531	 0.185956020119407 
1532	 0.186665596467468 
1533	 0.187360372223193 
1534	 0.188033647966337 
1535	 0.188702572115603 
1536	 0.189355157901821 
1537	 0.190056168703773 
1538	 0.190806782522251 
1539	 0.191482240296067 
1540	 0.192190965031053 
1541	 0.192833191017894 
1542	 0.193343200707647 
1543	 0.193916459011748 
1544	 0.194489906120472 
1545	 0.195081194210734 
1546	 0.195706161395535 
1547	 0.196321028397544 
1548	 0.196953523891825 
1549	 0.197569544880468 
1550	 0.198211691117097 
1551	 0.19878791488286 
1552	 0.199290301555843 
1553	 0.1998342380622 
1554	 0.200332055066169 
1555	 0.200871062083011 
1556	 0.201488898081482 
1557	 0.202070559736587 
1558	 0.202644381858844 
1559	 0.203211479793381 
1560	 0.203766587529558 
1561	 0.204316193659444 
1562	 0.204876379594905 
1563	 0.205415719612632 
1564	 0.205939614517153 
1565	 0.206448058099718 
1566	 0.207010538679465 
1567	 0.207485250418717 
1568	 0.208026317983053 
1569	 0.208592961373184 
1570	 0.209149251556455 
1571	 0.209722758476044 
1572	 0.210248541687225 
1573	 0.210760904782708 
1574	 0.211240657262913 
1575	 0.211669135769216 
1576	 0.212125039471183 
1577	 0.212540946565438 
1578	 0.213052163703079 
1579	 0.213638046315075 
1580	 0.214079829489014 
1581	 0.214488437268745 
1582	 0.214966212513973 
1583	 0.215380858167624 
1584	 0.215823519529305 
1585	 0.216373628577698 
1586	 0.216831358266306 
1587	 0.217191471829645 
1588	 0.21761741285902 
1589	 0.218121985685073 
1590	 0.21848886452332 
1591	 0.21873891462684 
1592	 0.219158357809911 
1593	 0.219624215960845 
1594	 0.219991968367973 
1595	 0.220424085591474 
1596	 0.220795632235475 
1597	 0.22099421752826 
1598	 0.221403568821157 
1599	 0.221989417764209 
1600	 0.222385746998025 
1601	 0.22275484899456 
1602	 0.223119892273738 
1603	 0.223369040534859 
1604	 0.2237460196371 
1605	 0.224231394746411 
1606	 0.224594074729352 
1607	 0.224945530996932 
1608	 0.225252307846134 
1609	 0.22544889400762 
1610	 0.225769161404551 
1611	 0.226144740727608 
1612	 0.226450033842828 
1613	 0.226774657282182 
1614	 0.227074158644761 
1615	 0.227321676712069 
1616	 0.227564650241885 
1617	 0.227817243338239 
1618	 0.228072026853403 
1619	 0.228263651319195 
1620	 0.228548745844833 
1621	 0.228892729210481 
1622	 0.22923001447702 
1623	 0.229650272424836 
1624	 0.229911995765281 
1625	 0.230135804800332 
1626	 0.230298939537774 
1627	 0.230289617711939 
1628	 0.230472774704846 
1629	 0.230726086826683 
1630	 0.230954604554422 
1631	 0.231269090364165 
1632	 0.231484341303407 
1633	 0.23162658337719 
1634	 0.231824112775028 
1635	 0.232022738491823 
1636	 0.232227702082263 
1637	 0.232434383347979 
1638	 0.232683576074159 
1639	 0.23296622473463 
1640	 0.233208266590169 
1641	 0.233465512321043 
1642	 0.233715739594088 
1643	 0.233964967746528 
1644	 0.234106084477739 
1645	 0.234196016043991 
1646	 0.23433687996047 
1647	 0.234409103840875 
1648	 0.234516988594916 
1649	 0.234713201541707 
1650	 0.234835370388123 
1651	 0.234861163782004 
1652	 0.234937422393631 
1653	 0.235091131011611 
1654	 0.235097979932826 
1655	 0.235012899061854 
1656	 0.23501674946028 
1657	 0.234955970983909 
1658	 0.234983906943055 
1659	 0.235205785078593 
1660	 0.235485710503606 
1661	 0.235504415529188 
1662	 0.235510066194867 
1663	 0.235439671858764 
1664	 0.23528467226292 
1665	 0.235284839001446 
1666	 0.235330843945655 
1667	 0.235434587804259 
1668	 0.235553561355393 
1669	 0.235626900389369 
1670	 0.23562402169353 
1671	 0.235624660234295 
1672	 0.235672165762011 
1673	 0.235729375999375 
1674	 0.23579068987838 
1675	 0.235785164250492 
1676	 0.235840659617401 
1677	 0.235805545512756 
1678	 0.235770474676533 
1679	 0.235913616271339 
1680	 0.235892886013675 
1681	 0.235826786857032 
1682	 0.235755808674458 
1683	 0.235610540959506 
1684	 0.235539626877493 
1685	 0.235484846988447 
1686	 0.23543719910663 
1687	 0.235384909150886 
1688	 0.235376941631935 
1689	 0.235399275449814 
1690	 0.235455523217616 
1691	 0.235478679375455 
1692	 0.235327937186696 
1693	 0.235290873695941 
1694	 0.235400955999579 
1695	 0.23542716280965 
1696	 0.235470160441181 
1697	 0.235503150840003 
1698	 0.235515956166741 
1699	 0.235420938486396 
1700	 0.235240643066184 
1701	 0.235126783496961 
1702	 0.234897515327706 
1703	 0.234805388733614 
1704	 0.23489353208219 
1705	 0.234840892037622 
1706	 0.234815965033792 
1707	 0.234721696553238 
1708	 0.234466372170572 
1709	 0.234352691850076 
1710	 0.234333117009747 
1711	 0.234166326638681 
1712	 0.234023573284927 
1713	 0.233808938568422 
1714	 0.233359499190573 
1715	 0.233091510411693 
1716	 0.232920362209766 
1717	 0.232728877722421 
1718	 0.23269430065065 
1719	 0.232418620644596 
1720	 0.231951778759909 
1721	 0.231573999924295 
1722	 0.231042622037539 
1723	 0.230813108466343 
1724	 0.230838482620071 
1725	 0.230667217638977 
1726	 0.2305265861813 
1727	 0.230336904617665 
1728	 0.230027530297564 
1729	 0.229847491114246 
1730	 0.229777153374535 
1731	 0.229553256739121 
1732	 0.229270231332824 
1733	 0.228952367824647 
1734	 0.228725399871654 
1735	 0.228565581339806 
1736	 0.228509108159451 
1737	 0.228449285237678 
1738	 0.228263541405003 
1739	 0.227941352556266 
1740	 0.227655546908672 
1741	 0.227368093054679 
1742	 0.227083674771934 
1743	 0.226920227508356 
1744	 0.226719828851537 
1745	 0.226673028354649 
1746	 0.226643043411761 
1747	 0.226362893444084 
1748	 0.226127985347986 
1749	 0.225794377751639 
1750	 0.225155121280971 
1751	 0.224567500013574 
1752	 0.224160989782491 
1753	 0.223957205756745 
1754	 0.223953132170749 
1755	 0.224039903825864 
1756	 0.22383748348182 
1757	 0.222798478548528 
1758	 0.222367610520347 
1759	 0.222202693629592 
1760	 0.221975963656458 
1761	 0.222131027223993 
1762	 0.222006815903496 
1763	 0.221605694533633 
1764	 0.221249739601269 
1765	 0.220767889563112 
1766	 0.220476751575058 
1767	 0.22029982614315 
1768	 0.220019656767754 
1769	 0.219869183222104 
1770	 0.219683060841491 
1771	 0.219352478967221 
1772	 0.219070642935865 
1773	 0.21882641385084 
1774	 0.218434453679815 
1775	 0.218033906272512 
1776	 0.217883102521318 
1777	 0.218272905610431 
1778	 0.218481426516462 
1779	 0.218394796457311 
1780	 0.218288543410814 
1781	 0.217931653050838 
1782	 0.217655419503266 
1783	 0.217761379029002 
1784	 0.21784347986655 
1785	 0.217652491221795 
1786	 0.217099230780248 
1787	 0.216643636054264 
1788	 0.216608228543714 
1789	 0.216319871093684 
1790	 0.216428507888493 
1791	 0.21702730923061 
1792	 0.217102731623561 
1793	 0.217285719762595 
1794	 0.21719516669364 
1795	 0.216322911887314 
1796	 0.215802954552607 
1797	 0.215708227256497 
1798	 0.216094797286774 
1799	 0.21705148357613 
1800	 0.216956869936916 
1801	 0.219902655176331 
1802	 0.219789288262908 
1803	 0.220080980760648 
1804	 0.220719822422066 
1805	 0.220674850911313 
1806	 0.219937235836324 
1807	 0.219991461195032 
1808	 0.219285013320903 
1809	 0.219301381297381 
1810	 0.220819314813359 
1811	 0.225413872457607 
1812	 0.227236537873014 
1813	 0.229527470619185 
1814	 0.23064345629719 
1815	 0.229063337898652 
1816	 0.228260519782279 
1817	 0.226087851457926 
1818	 0.225037423560865 
1819	 0.224341005926659 
1820	 0.225030513197778 
1821	 0.222361047317265 
1822	 0.216779615275515 
1823	 0.215298885117154 
1824	 0.213829827034034 
1825	 0.211103592929743 
1826	 0.210924266399964 
1827	 0.213020627517103 
1828	 0.216280924804728 
1829	 0.215608498193334 
1830	 0.218667775978558 
1831	 0.238343102849735 
1832	 0.248731166344161 
1833	 0.240594964595579 
1834	 0.24559665861773 
1835	 0.254580001805666 
1836	 0.270924705062306 
1837	 0.321949624161194 
1838	 0.34098968169716 
1839	 0.339517410796864 
1840	 0.299594753967177 
1841	 0.296425884686143 
1842	 0.282621777675269 
1843	 0.264067715108474 
1844	 0.277820117487786 
1845	 0.259978646429464 
1846	 0.156157140964175 
1847	 0.129801587335339 
1848	 0.131663433187847 
1849	 0.175515114543329 
1850	 0.182136184569035 
1851	 0.244593861638548 
1852	 0.233608564701957 
1853	 0.123353202438859 
1854	 0.118199610539027 
1855	 0.148344150842255 
1856	 0.16678178726518 
1857	 0.215443330309462 
1858	 0.266778683192068 
1859	 0.276114884470888 
1860	 0.258117126875245 
1861	 0.245610934278353 
1862	 0.202459396508365 
1863	 0.199850973078615 
1864	 0.235787174467896 
1865	 0.228565141892497 
1866	 0.22083555668008 
1867	 0.208451871459904 
1868	 0.144519985840367 
1869	 6.70014722593783E-02 
1870	 4.61930438901896E-02 
1871	 7.56510246745019E-02 
1872	 9.68392308653583E-02 
1873	 0.153058529526315 
1874	 0.175048839920723 
1875	 0.183259382951223 
1876	 0.185300986665906 
1877	 0.182510303811555 
1878	 0.18127086549862 
1879	 0.156630538969906 
1880	 0.144351292181341 
1881	 0.131340912813055 
1882	 0.105169397041632 
1883	 9.61071200062763E-02 
1884	 9.67410621935015E-02 
1885	 9.43403247200927E-02 
1886	 9.42712569782543E-02 
1887	 9.46186975399566E-02 
1888	 8.86054102570254E-02 
1889	 8.81122753132984E-02 
1890	 9.12685274727107E-02 
1891	 9.93839184775991E-02 
1892	 0.101078802356098 
1893	 0.105348069548979 
1894	 0.104894647260779 
1895	 9.55381720603845E-02 
1896	 8.90077862466397E-02 
1897	 7.90860521959437E-02 
1898	 7.79141122657921E-02 
1899	 7.25016217426486E-02 
1900	 5.60929576054237E-02 
1901	 5.07677661405332E-02 
1902	 5.17851455455036E-02 
1903	 5.89690134591411E-02 
1904	 8.98754291759775E-02 
1905	 9.92573523976173E-02 
1906	 0.103790189043563 
1907	 0.109806895128497 
1908	 8.52313883979273E-02 
1909	 7.82650671045596E-02 
1910	 8.29074749968094E-02 
1911	 7.88856979170978E-02 
1912	 7.86889484689955E-02 
1913	 8.50205884256393E-02 
1914	 7.59996304269771E-02 
1915	 6.33108090072688E-02 
1916	 5.86567790803766E-02 
1917	 4.87534349284909E-02 
1918	 4.85884935098033E-02 
1919	 5.43923855087562E-02 
1920	 5.40551442307938E-02 
1921	 0.059412707385567 
1922	 6.18075513768411E-02 
1923	 6.30733311034426E-02 
1924	 6.56368955938653E-02 
1925	 6.52523594296674E-02 
1926	 6.11893009399721E-02 
1927	 5.99617784140879E-02 
1928	 0.058269807524574 
1929	 5.76421844793824E-02 
1930	 5.87412170664469E-02 
1931	 5.99891453045667E-02 
1932	 6.26649483196947E-02 
1933	 6.25361633216889E-02 
1934	 6.08498169764456E-02 
1935	 5.71520927673225E-02 
1936	 5.63081513977324E-02 
1937	 5.50287869275789E-02 
1938	 5.45765112996822E-02 
1939	 5.58191682939727E-02 
1940	 0.055573627412301 
1941	 5.70103684946449E-02 
1942	 5.67052961288404E-02 
1943	 5.58597536062253E-02 
1944	 5.76421158368648E-02 
1945	 5.77517314846986E-02 
1946	 5.79488539158575E-02 
1947	 5.84631342746815E-02 
1948	 5.95636588708125E-02 
1949	 6.00408181118709E-02 
1950	 0.060092102584623 
1951	 6.07117482365934E-02 
1952	 6.18008318531526E-02 
1953	 6.27844929301854E-02 
1954	 6.35762485937661E-02 
1955	 6.37953204301306E-02 
1956	 6.22101900479135E-02 
1957	 6.16151673741758E-02 
1958	 6.19503250001397E-02 
1959	 6.22117349725652E-02 
1960	 6.31919559540634E-02 
1961	 6.53341009705664E-02 
1962	 6.71586429605567E-02 
1963	 6.78466878520469E-02 
1964	 6.83301589610118E-02 
1965	 6.78578662706808E-02 
1966	 6.70575424958146E-02 
1967	 6.67495208139469E-02 
1968	 6.70221854033387E-02 
1969	 6.75102209066952E-02 
1970	 6.87105901834711E-02 
1971	 6.92498950734032E-02 
1972	 6.97225015207289E-02 
1973	 7.00065702776169E-02 
1974	 7.02908037751831E-02 
1975	 7.11138469284215E-02 
1976	 7.19988393391078E-02 
1977	 7.28960938917676E-02 
1978	 7.36144042993403E-02 
1979	 7.39191111363198E-02 
1980	 7.42196847071753E-02 
1981	 7.43882171906261E-02 
1982	 7.46995996374453E-02 
1983	 7.50388640906644E-02 
1984	 7.54530394149562E-02 
1985	 7.57648505305363E-02 
1986	 7.66875802190238E-02 
1987	 7.75915250936833E-02 
1988	 0.078376758343603 
1989	 0.079123833887625 
1990	 7.94102151864747E-02 
1991	 7.99978584316916E-02 
1992	 8.02243489230915E-02 
1993	 8.06862075120138E-02 
1994	 8.21495074884626E-02 
1995	 8.30746365019439E-02 
1996	 8.37500885383368E-02 
1997	 0.084561287113824 
1998	 8.54420031742019E-02 
1999	 8.56427051696281E-02 
2000	 8.62815181000083E-02 
2001	 8.71896539840619E-02 
2002	 8.79903616678465E-02 
2003	 8.88273926525977E-02 
2004	 8.93534731914861E-02 
2005	 9.00818024446551E-02 
2006	 9.07744497815342E-02 
2007	 9.16720015873041E-02 
2008	 0.092235057981058 
2009	 9.23026967011955E-02 
2010	 0.092337677422508 
2011	 9.29562573282527E-02 
2012	 9.33621295254394E-02 
2013	 9.43153860870653E-02 
2014	 9.55240383726172E-02 
2015	 9.56662455169234E-02 
2016	 9.58797915075709E-02 
2017	 9.62606758006463E-02 
2018	 0.096218829916715 
2019	 0.096644627200408 
2020	 9.74883468636305E-02 
2021	 9.83084414358563E-02 
2022	 9.87723160612652E-02 
2023	 9.93323605996168E-02 
2024	 9.96517716895161E-02 
2025	 0.100393048890268 
2026	 0.101030578025988 
2027	 0.101625886060328 
2028	 0.10281605870719 
2029	 0.103305400863971 
2030	 0.103701319045282 
2031	 0.10425999142652 
2032	 0.10470332082892 
2033	 0.104802486635711 
2034	 0.105523683023298 
2035	 0.106334668078374 
2036	 0.107040556157833 
2037	 0.107801966467573 
2038	 0.108332322712247 
2039	 0.10874172328475 
2040	 0.109126474693378 
2041	 0.109872294415219 
2042	 0.110423177425151 
2043	 0.110879669472641 
2044	 0.111177681450301 
2045	 0.111483180201781 
2046	 0.111602485483317 
2047	 0.111867834131312 
2048	 0.112049511294032 
2049	 0.113038376039968 
2050	 0.113905374354076 
2051	 0.11441808206026 
2052	 0.11506699629584 
2053	 0.115278672803386 
2054	 0.115853681530687 
2055	 0.116630419388736 
2056	 0.117561244200469 
2057	 0.118368818627012 
2058	 0.118614143711257 
2059	 0.118901193198388 
2060	 0.118917820111485 
2061	 0.119049832969037 
2062	 0.119573362089219 
2063	 0.120080665786621 
2064	 0.12063357764611 
2065	 0.12119942978003 
2066	 0.12134273263933 
2067	 0.12178628026556 
2068	 0.122567725947764 
2069	 0.12315901288824 
2070	 0.123681410878426 
2071	 0.124229776787405 
2072	 0.124747685310478 
2073	 0.125136432126219 
2074	 0.12544014540021 
2075	 0.125716991906328 
2076	 0.12631925754016 
2077	 0.126900605103171 
2078	 0.127184940156714 
2079	 0.127569909653364 
2080	 0.127602338458557 
2081	 0.12752966819639 
2082	 0.127830833748832 
2083	 0.128486677794818 
2084	 0.129480264744688 
2085	 0.130154132395716 
2086	 0.130687126156745 
2087	 0.13139747181362 
2088	 0.132199472674403 
2089	 0.132828077316291 
2090	 0.133431917650324 
2091	 0.134129396215555 
2092	 0.134805377838205 
2093	 0.13554823480688 
2094	 0.136139450854354 
2095	 0.136410293774027 
2096	 0.136455163794084 
2097	 0.13609450465573 
2098	 0.135930162306206 
2099	 0.136310485850575 
2100	 0.136692549603652 
2101	 0.137161232704868 
2102	 0.137768670915074 
2103	 0.138560296702897 
2104	 0.139208298802512 
2105	 0.139915736733344 
2106	 0.14068902319011 
2107	 0.140920852239947 
2108	 0.140943858863927 
2109	 0.141209636846621 
2110	 0.141330553141947 
2111	 0.141809926995525 
2112	 0.142718865271067 
2113	 0.143245536835064 
2114	 0.143826579009164 
2115	 0.144426514783882 
2116	 0.144542775401946 
2117	 0.144850995641794 
2118	 0.145127154286252 
2119	 0.145526851674909 
2120	 0.145927171040088 
2121	 0.146807224302393 
2122	 0.146952988188346 
2123	 0.147020916275631 
2124	 0.147357096248764 
2125	 0.147253483487428 
2126	 0.147610899606908 
2127	 0.14823776039985 
2128	 0.148482830543713 
2129	 0.148420243002104 
2130	 0.148347217072397 
2131	 0.148498315358702 
2132	 0.148706754374918 
2133	 0.149224899311042 
2134	 0.149665195833503 
2135	 0.150333935289114 
2136	 0.150677248015799 
2137	 0.151083704027949 
2138	 0.151150295496281 
2139	 0.151151156902456 
2140	 0.15188155474185 
2141	 0.152596994410426 
2142	 0.153256251818338 
2143	 0.154022715767062 
2144	 0.154039759408159 
2145	 0.153501058857441 
2146	 0.153075883012027 
2147	 0.152704403963486 
2148	 0.153137815139937 
2149	 0.154138476110158 
2150	 0.154898866152684 
2151	 0.15536925877233 
2152	 0.155764080537122 
2153	 0.155751745876607 
2154	 0.155129705655998 
2155	 0.154820615054552 
2156	 0.154773656149956 
2157	 0.154926143154873 
2158	 0.1553713058508 
2159	 0.156141018161367 
2160	 0.157161858864432 
2161	 0.158084658418785 
2162	 0.158405737218789 
2163	 0.158364989809493 
2164	 0.158014648030575 
2165	 0.157434281457192 
2166	 0.157449710922868 
2167	 0.158035411736405 
2168	 0.158312562877731 
2169	 0.158605064443725 
2170	 0.158910071007064 
2171	 0.159236029355804 
2172	 0.159158848726316 
2173	 0.159476529788693 
2174	 0.159788834913514 
2175	 0.15979351867474 
2176	 0.160019835982552 
2177	 0.159812008419822 
2178	 0.159599172565245 
2179	 0.159869832913913 
2180	 0.160135994657028 
2181	 0.160503350760137 
2182	 0.160783028486778 
2183	 0.160815784310361 
2184	 0.160688315247721 
2185	 0.160377637516493 
2186	 0.160627411189573 
2187	 0.160664179588287 
2188	 0.160293659405049 
2189	 0.160524714423226 
2190	 0.161284441136239 
2191	 0.161369514926172 
2192	 0.161385970546491 
2193	 0.161725742135824 
2194	 0.161288119477161 
2195	 0.161056388738865 
2196	 0.161136703546155 
2197	 0.161541074700928 
2198	 0.161888058297623 
2199	 0.161873077535963 
2200	 0.162114069694574 
2201	 0.161546050551764 
2202	 0.160531904555163 
2203	 0.160375071875857 
2204	 0.160626480196479 
2205	 0.161291766601909 
2206	 0.162203608234349 
2207	 0.162780003061071 
2208	 0.162946331051824 
2209	 0.162202378039834 
2210	 0.161919085295214 
2211	 0.161682913914783 
2212	 0.161432408096479 
2213	 0.161058443974294 
2214	 0.161597611767964 
2215	 0.161823344315061 
2216	 0.161848295262742 
2217	 0.162417112533568 
2218	 0.162272324206747 
2219	 0.162152879234651 
2220	 0.162265213535256 
2221	 0.161962301844712 
2222	 0.161902191063563 
2223	 0.162081711337987 
2224	 0.162074844138124 
2225	 0.161918706136311 
2226	 0.161774583437623 
2227	 0.161570617041608 
2228	 0.161207958818227 
2229	 0.161215543655781 
2230	 0.161756703728346 
2231	 0.161619010703104 
2232	 0.160690543981922 
2233	 0.160637564274119 
2234	 0.160890247477309 
2235	 0.160537949214232 
2236	 0.160353711397518 
2237	 0.160665458637874 
2238	 0.159947479759762 
2239	 0.158689900338828 
2240	 0.158455883283535 
2241	 0.158381581378153 
2242	 0.158010546611679 
2243	 0.157640254710321 
2244	 0.156282951704549 
2245	 0.155246035115365 
2246	 0.155281145744955 
2247	 0.155501965235386 
2248	 0.156280821007971 
2249	 0.156918776667695 
2250	 0.157200918943551 
2251	 0.156883986118431 
2252	 0.155867565652165 
2253	 0.155079556042421 
2254	 0.153468440561659 
2255	 0.151915689519582 
2256	 0.151219671811005 
2257	 0.151451328703863 
2258	 0.151206273716954 
2259	 0.151141034435906 
2260	 0.15118833942412 
2261	 0.150461476869822 
2262	 0.149871824850742 
2263	 0.148874957080611 
2264	 0.147761533454532 
2265	 0.146743127130712 
2266	 0.145731517641224 
2267	 0.146064288232312 
2268	 0.146271117563291 
2269	 0.146189896262599 
2270	 0.146151917606232 
2271	 0.145538632936001 
2272	 0.145221098466162 
2273	 0.145326688552823 
2274	 0.145912081414164 
2275	 0.146095497039933 
2276	 0.145848698405026 
2277	 0.146007523370004 
2278	 0.145566514149054 
2279	 0.144958298017098 
2280	 0.145129005679162 
2281	 0.144192663143391 
2282	 0.143770446707421 
2283	 0.144700448620345 
2284	 0.144163361408386 
2285	 0.144229447069681 
2286	 0.144289673907232 
2287	 0.144417707594173 
2288	 0.142969518659756 
2289	 0.142717755941762 
2290	 0.142793165485112 
2291	 0.142397275836854 
2292	 0.142325552805113 
2293	 0.141183872556792 
2294	 0.139623534490808 
2295	 0.138627242422498 
2296	 0.13788783926353 
2297	 0.137939589041833 
2298	 0.138636151783527 
2299	 0.139164441000049 
2300	 0.138642867642822 
2301	 0.138293164478734 
2302	 0.138613006745328 
2303	 0.138749927120647 
2304	 0.138852459765273 
2305	 0.13817029546629 
2306	 0.136001000295211 
2307	 0.133945335198529 
2308	 0.133277013678831 
2309	 0.133757824506359 
2310	 0.135100901430594 
2311	 0.135697942447749 
2312	 0.135483128507335 
2313	 0.134762578990977 
2314	 0.133310022675832 
2315	 0.131859244661811 
2316	 0.130086360257404 
2317	 0.129232869632227 
2318	 0.129768517547312 
2319	 0.130639415908584 
2320	 0.131652922237659 
2321	 0.131966937452369 
2322	 0.13146851704107 
2323	 0.131343834482945 
2324	 0.131204009542631 
2325	 0.129993742666186 
2326	 0.129514405168764 
2327	 0.128976575104085 
2328	 0.128362452153254 
2329	 0.12786088006699 
2330	 0.127024495215339 
2331	 0.126917347440496 
2332	 0.126086726475202 
2333	 0.126489308869124 
2334	 0.127402887458807 
2335	 0.125717966313165 
2336	 0.123928042102878 
2337	 0.123024053110942 
2338	 0.123104878419208 
2339	 0.123561316099743 
2340	 0.124187471366674 
2341	 0.124391773286666 
2342	 0.122118381689891 
2343	 0.121716716448774 
2344	 0.123655840034482 
2345	 0.123810350523767 
2346	 0.124787024792422 
2347	 0.12625948201991 
2348	 0.125672277935976 
2349	 0.124255465579291 
2350	 0.122934938366404 
2351	 0.122004110148128 
2352	 0.120194542841503 
2353	 0.117444336539108 
2354	 0.116890046901953 
2355	 0.116747898783845 
2356	 0.116412152971053 
2357	 0.117513865498365 
2358	 0.116606358122121 
2359	 0.114940956185775 
2360	 0.11415090691756 
2361	 0.114254241546254 
2362	 0.115608645018214 
2363	 0.116196828480606 
2364	 0.116004528507233 
2365	 0.115029089574954 
2366	 0.114398389225331 
2367	 0.112968777208798 
2368	 0.11093988505212 
2369	 0.109489928583278 
2370	 0.107074363108419 
2371	 0.107637720951823 
2372	 0.107959360956928 
2373	 0.109272405032338 
2374	 0.109786799318014 
2375	 0.109931959758951 
2376	 0.109873871650341 
2377	 0.109775791746295 
2378	 0.110055011958507 
2379	 0.111703348040743 
2380	 0.111222126479353 
2381	 0.108524576362598 
2382	 0.10777854103442 
2383	 0.106881666139777 
2384	 0.105902739852412 
2385	 0.107155478352969 
2386	 0.106863950074619 
2387	 0.104419343317784 
2388	 0.102512819187557 
2389	 9.97944111017521E-02 
2390	 9.96813536738083E-02 
2391	 0.101224306037186 
2392	 0.101324945347301 
2393	 0.103932997980961 
2394	 0.102499434794833 
2395	 0.096163861786052 
2396	 9.51260683773081E-02 
2397	 9.47664280120872E-02 
2398	 9.55592781516038E-02 
2399	 0.101403445268567 
2400	 0.102092542847067 
2401	 0.100203010634551 
2402	 0.098519190711816 
2403	 9.63121766723735E-02 
2404	 9.49264046847783E-02 
2405	 9.58732163602053E-02 
2406	 9.53122644020705E-02 
2407	 0.093973201371822 
2408	 9.48336042843446E-02 
2409	 9.70637198833528E-02 
2410	 9.89801238529265E-02 
2411	 9.89112707581884E-02 
2412	 9.57162952254186E-02 
2413	 9.13032662552666E-02 
2414	 9.11982223237747E-02 
2415	 9.18686066170389E-02 
2416	 9.05889989488444E-02 
2417	 8.99715051749557E-02 
2418	 8.89779323286071E-02 
2419	 9.01967970024915E-02 
2420	 9.31383110233109E-02 
2421	 9.36478627042981E-02 
2422	 9.18765226254489E-02 
2423	 8.81894892297657E-02 
2424	 8.49146865523321E-02 
2425	 8.30798278031058E-02 
2426	 7.97962980274087E-02 
2427	 7.71856506897534E-02 
2428	 7.76598912062006E-02 
2429	 7.96553920793749E-02 
2430	 8.08346269620137E-02 
2431	 8.10268174638727E-02 
2432	 8.04263043354148E-02 
2433	 0.076773186190783 
2434	 7.50545747483638E-02 
2435	 7.27586377199702E-02 
2436	 7.15208194718926E-02 
2437	 7.05559882993124E-02 
2438	 7.19637866817317E-02 
2439	 8.01814507095446E-02 
2440	 8.00763873449567E-02 
2441	 7.25615114204588E-02 
2442	 0.073248405859873 
2443	 7.45054287319431E-02 
2444	 7.31431656628794E-02 
2445	 7.99561635075853E-02 
2446	 8.12276868697267E-02 
2447	 6.99179087992827E-02 
2448	 6.62959648991314E-02 
2449	 6.85919499026297E-02 
2450	 7.09827629320066E-02 
2451	 7.41143393837797E-02 
2452	 7.82633246884926E-02 
2453	 8.95913047120138E-02 
2454	 8.75756950721504E-02 
2455	 7.56157760176324E-02 
2456	 7.36091467825022E-02 
2457	 6.90186552400934E-02 
2458	 6.73789889690728E-02 
2459	 7.72385023775152E-02 
2460	 7.62643301799706E-02 
2461	 6.29643466795737E-02 
2462	 0.058434271324876 
2463	 0.054743447606659 
2464	 5.11117473391637E-02 
2465	 5.25889389034216E-02 
2466	 5.55869672058644E-02 
2467	 6.25995266989644E-02 
2468	 6.18624349019284E-02 
2469	 5.81886437620987E-02 
2470	 5.69433953676392E-02 
2471	 5.10393383504447E-02 
2472	 4.16800795440667E-02 
2473	 3.06489292462483E-02 
2474	 2.94742791144034E-02 
2475	 2.48169654242513E-02 
2476	 2.30684459857009E-02 
2477	 4.14604766725206E-02 
2478	 0.045954148592054 
2479	 3.58697394044075E-02 
2480	 3.76552081807111E-02 
2481	 4.32399232834972E-02 
2482	 0.053946742714277 
2483	 7.50026782091281E-02 
2484	 0.076976651902164 
2485	 7.25077035074156E-02 
2486	 7.19777442511502E-02 
2487	 6.27613075456123E-02 
2488	 0.107467203483546 
2489	 0.148927167714197 
2490	 8.10656440969558E-02 
2491	 2.27468690541081E-02 
2492	-5.84734443196087E-02 
2493	-0.117907784687054 
2494	-6.41789450539616E-02 
2495	-3.00092101411641E-02 
2496	-3.25260907216735E-03 
2497	-6.47566862359196E-03 
2498	-2.61613449182081E-02 
2499	-0.012905861961635 
2500	 3.24875153804533E-02 
