Wavelength	ref00000.asd
350	 1.73420250875235E-02 
351	 1.71375271431127E-02 
352	 1.66451883246238E-02 
353	 1.73510196042214E-02 
354	 0.017801708402224 
355	 1.75699725311171E-02 
356	 1.68721500432268E-02 
357	 1.67414118735371E-02 
358	 1.70019604990482E-02 
359	 1.73705328057531E-02 
360	 1.75487031332707E-02 
361	 1.74541139533765E-02 
362	 1.71986056088502E-02 
363	 1.71026087358894E-02 
364	 1.74871571732026E-02 
365	 1.74878499327859E-02 
366	 1.73080779609119E-02 
367	 0.017133833825775 
368	 0.016913591711206 
369	 1.71421581249302E-02 
370	 1.72948610420745E-02 
371	 1.70414740038717E-02 
372	 1.74328596738883E-02 
373	 1.77215138252017E-02 
374	 0.017791283962901 
375	 1.78351368379028E-02 
376	 1.76286082264533E-02 
377	 1.75228902817751E-02 
378	 1.77245043159029E-02 
379	 1.81944611338282E-02 
380	 1.82975186606262E-02 
381	 1.81333347284345E-02 
382	 1.80556075203721E-02 
383	 1.86560353817137E-02 
384	 1.89151390506733E-02 
385	 1.89535377537102E-02 
386	 1.92833899829811E-02 
387	 1.92750585120958E-02 
388	 1.95191727449002E-02 
389	 1.99051099616856E-02 
390	 1.95919594633201E-02 
391	 1.98596802216476E-02 
392	 2.03466415037076E-02 
393	 2.06469268672564E-02 
394	 2.09663477537379E-02 
395	 0.02125391341541 
396	 2.15181101589289E-02 
397	 2.17857733245479E-02 
398	 2.20942958120621E-02 
399	 2.22403583363587E-02 
400	 2.23427306143707E-02 
401	 2.27459531108669E-02 
402	 2.30147197582324E-02 
403	 2.31810799770186E-02 
404	 2.33922403538717E-02 
405	 2.39140027294015E-02 
406	 2.42303733224275E-02 
407	 2.44354031362798E-02 
408	 2.47521609196603E-02 
409	 2.48450290430826E-02 
410	 2.51807583413075E-02 
411	 2.57603917840584E-02 
412	 2.61582067423652E-02 
413	 2.63604853943265E-02 
414	 2.65404825871481E-02 
415	 2.68130658345455E-02 
416	 0.027089203472053 
417	 2.75420596564232E-02 
418	 2.79313315307986E-02 
419	 2.80228546666538E-02 
420	 0.028340352343508 
421	 2.87229104436975E-02 
422	 2.90222513733789E-02 
423	 2.91592263063332E-02 
424	 2.94850728461263E-02 
425	 2.98247767247804E-02 
426	 0.030017062515757 
427	 3.01019021961823E-02 
428	 3.04185278745015E-02 
429	 3.07865588100268E-02 
430	 3.09242221566153E-02 
431	 3.11025190820346E-02 
432	 0.031349072865786 
433	 3.15912737490452E-02 
434	 3.17021489874165E-02 
435	 3.19232943273967E-02 
436	 3.21749178877652E-02 
437	 3.23829279447146E-02 
438	 0.032605904438829 
439	 3.27311504727662E-02 
440	 3.28263508336567E-02 
441	 3.29956412686566E-02 
442	 3.31521728031466E-02 
443	 3.33752064203491E-02 
444	 3.36217424109263E-02 
445	 3.37406419745099E-02 
446	 3.39356921300387E-02 
447	 0.034177992079777 
448	 3.44146617096963E-02 
449	 3.46547755997365E-02 
450	 3.48030430484781E-02 
451	 0.034920436927288 
452	 3.51214529287603E-02 
453	 3.53889110897938E-02 
454	 0.035585844157226 
455	 3.57066358084744E-02 
456	 3.59060355621869E-02 
457	 3.61005479141161E-02 
458	 3.62232016359485E-02 
459	 3.62757312428812E-02 
460	 3.64476530201759E-02 
461	 3.66162432047497E-02 
462	 3.67511522914924E-02 
463	 3.68729386741928E-02 
464	 3.69720305543596E-02 
465	 3.70939211774066E-02 
466	 3.72339829355467E-02 
467	 3.73035193172379E-02 
468	 3.74699387968969E-02 
469	 3.76194504492244E-02 
470	 3.76537320752461E-02 
471	 3.78533049342272E-02 
472	 3.80143792331312E-02 
473	 3.81240549593225E-02 
474	 0.038298483373742 
475	 3.84189314909209E-02 
476	 3.85163022988412E-02 
477	 3.86372841223749E-02 
478	 3.88219721319302E-02 
479	 3.89934711839458E-02 
480	 3.91488919826451E-02 
481	 3.93061403719784E-02 
482	 0.039444114421255 
483	 0.039577601772727 
484	 3.97409002445729E-02 
485	 3.99777184055435E-02 
486	 4.01627719154873E-02 
487	 4.03518022511544E-02 
488	 4.05830775354951E-02 
489	 4.07474333579764E-02 
490	 4.09567614408084E-02 
491	 4.12149462901846E-02 
492	 4.14783487552586E-02 
493	 4.17087297103986E-02 
494	 4.19695795379806E-02 
495	 4.23087466350667E-02 
496	 4.27423475202561E-02 
497	 0.043102750742776 
498	 4.34647938959681E-02 
499	 4.39062543231954E-02 
500	 4.42861313361824E-02 
501	 4.47769945193264E-02 
502	 4.53869778806027E-02 
503	 4.60157642613719E-02 
504	 4.66315041637819E-02 
505	 4.72123841898759E-02 
506	 4.78066330126395E-02 
507	 4.85692251480742E-02 
508	 4.93479078249715E-02 
509	 5.01618587727135E-02 
510	 5.10676654439256E-02 
511	 0.05204112646375 
512	 5.31015025682452E-02 
513	 5.41795529088828E-02 
514	 5.51521633809441E-02 
515	 5.62790779920197E-02 
516	 5.75734619970881E-02 
517	 0.058960854105772 
518	 6.02935979523256E-02 
519	 6.16991036899182E-02 
520	 6.30850937441961E-02 
521	 6.43366896526647E-02 
522	 6.56985649414408E-02 
523	 6.70540037889395E-02 
524	 6.83499205856325E-02 
525	 0.069614330330444 
526	 7.09938452614884E-02 
527	 7.23355783193792E-02 
528	 7.35030275810785E-02 
529	 7.46123859581544E-02 
530	 7.57240984298974E-02 
531	 7.67636655328763E-02 
532	 7.76180796264351E-02 
533	 7.85453438175938E-02 
534	 7.94483187451566E-02 
535	 8.02325500071548E-02 
536	 8.08819144664031E-02 
537	 0.081514787947391 
538	 8.21471685510233E-02 
539	 8.27698805617856E-02 
540	 8.34384357155241E-02 
541	 8.40765253233617E-02 
542	 8.46068898345421E-02 
543	 8.49789809995262E-02 
544	 8.54896878608052E-02 
545	 8.60025435746208E-02 
546	 8.64240048241277E-02 
547	 8.69390442118472E-02 
548	 8.74020776685752E-02 
549	 8.78118934572842E-02 
550	 8.82212464154932E-02 
551	 8.86301246547853E-02 
552	 8.89506325066037E-02 
553	 8.91498173460761E-02 
554	 8.92666465967579E-02 
555	 8.94516684264239E-02 
556	 8.96166267511491E-02 
557	 8.96433273371682E-02 
558	 8.95160849215196E-02 
559	 8.94462293485848E-02 
560	 8.93784839469572E-02 
561	 8.91124587748035E-02 
562	 8.89237017232571E-02 
563	 0.088664477652904 
564	 0.088276543178734 
565	 8.79603987970182E-02 
566	 8.75596682160623E-02 
567	 8.70860907641219E-02 
568	 8.66046926522541E-02 
569	 8.61539752445152E-02 
570	 8.56679190228794E-02 
571	 8.51390599644143E-02 
572	 8.46176002887251E-02 
573	 8.41090938635718E-02 
574	 8.36229069910852E-02 
575	 8.31798040239024E-02 
576	 8.28632713620456E-02 
577	 8.24654342852381E-02 
578	 8.20074986944475E-02 
579	 8.16145835453945E-02 
580	 8.12582700390428E-02 
581	 0.080967728812082 
582	 8.07371652745407E-02 
583	 8.05118514572741E-02 
584	 8.03062266358624E-02 
585	 8.01584992232686E-02 
586	 8.00756450015945E-02 
587	 7.99165152965028E-02 
588	 7.98135212562738E-02 
589	 0.079742974186798 
590	 7.95809980300684E-02 
591	 7.94857235227206E-02 
592	 7.94147018459923E-02 
593	 0.079335886302616 
594	 7.92952377381043E-02 
595	 7.92739205465888E-02 
596	 0.079255051555823 
597	 7.92247793519308E-02 
598	 7.91797366513791E-02 
599	 7.91845839174791E-02 
600	 7.92364335503026E-02 
601	 7.92608987845105E-02 
602	 7.91920727153198E-02 
603	 7.91084313544206E-02 
604	 7.90642832122447E-02 
605	 7.89691995702155E-02 
606	 7.88293928055195E-02 
607	 7.86222281178338E-02 
608	 7.83390277378442E-02 
609	 7.81429159368403E-02 
610	 7.79945897302113E-02 
611	 7.78202050292946E-02 
612	 0.077528961707478 
613	 7.72628958404066E-02 
614	 7.70058229129597E-02 
615	 7.67258272862449E-02 
616	 7.65055608118687E-02 
617	 7.62414744037024E-02 
618	 7.59674566231691E-02 
619	 7.58014843686589E-02 
620	 7.56901790865176E-02 
621	 7.56036112138087E-02 
622	 7.55264235445564E-02 
623	 7.54645862360821E-02 
624	 7.54218066776985E-02 
625	 0.075402077933336 
626	 7.54163021805842E-02 
627	 7.55071829032303E-02 
628	 7.56594410652012E-02 
629	 7.58162677245026E-02 
630	 7.58860293908507E-02 
631	 7.58664967893725E-02 
632	 0.075873526307832 
633	 7.59366333711745E-02 
634	 7.58022004584935E-02 
635	 7.56498437883066E-02 
636	 7.54689884804507E-02 
637	 7.51764400636332E-02 
638	 7.47977450271115E-02 
639	 7.43892274560145E-02 
640	 7.39734145196347E-02 
641	 0.073537829443477 
642	 7.29998852863833E-02 
643	 7.24022974917868E-02 
644	 7.18128484704842E-02 
645	 7.12860219574909E-02 
646	 7.07415527748268E-02 
647	 7.01932731530807E-02 
648	 6.97221167918357E-02 
649	 0.069441539722133 
650	 6.91544220798801E-02 
651	 6.87932017572488E-02 
652	 6.85385770092756E-02 
653	 6.84126925841425E-02 
654	 6.83118046752379E-02 
655	 6.81362564673231E-02 
656	 6.80394603455132E-02 
657	 6.78318637724662E-02 
658	 6.74929407441369E-02 
659	 6.71069745662626E-02 
660	 6.66543739697613E-02 
661	 6.61809855625383E-02 
662	 6.57458674252279E-02 
663	 6.54004239096888E-02 
664	 6.49590527600933E-02 
665	 6.44704477676709E-02 
666	 6.40615197354976E-02 
667	 6.37997365595675E-02 
668	 6.35116718405236E-02 
669	 6.32106958312626E-02 
670	 6.30763548192438E-02 
671	 0.063001207580608 
672	 6.29769210985861E-02 
673	 6.29768449253027E-02 
674	 6.28704763814021E-02 
675	 6.29406845007379E-02 
676	 6.31417892952539E-02 
677	 6.33051467498199E-02 
678	 6.33937977769997E-02 
679	 6.36328481460675E-02 
680	 6.40505261117744E-02 
681	 6.44607445905601E-02 
682	 6.50492466545824E-02 
683	 6.57834362011117E-02 
684	 6.66562649512087E-02 
685	 6.78522111192321E-02 
686	 6.91842558687054E-02 
687	 7.08510343990151E-02 
688	 7.29991164687832E-02 
689	 7.51757182888907E-02 
690	 7.75328349380623E-02 
691	 8.02034985279574E-02 
692	 8.30589907154085E-02 
693	 8.64376801915391E-02 
694	 9.01886193953765E-02 
695	 9.40915827655491E-02 
696	 9.81203937645013E-02 
697	 0.102378054937975 
698	 0.106804183403675 
699	 0.111265201269678 
700	 0.115958277691991 
701	 0.120677103716904 
702	 0.125332312693126 
703	 0.12999552651787 
704	 0.134431065905865 
705	 0.138794436034808 
706	 0.143235460822744 
707	 0.147522723391966 
708	 0.151775629816603 
709	 0.155965418036914 
710	 0.160001230440146 
711	 0.164091590331157 
712	 0.168219287147076 
713	 0.172337365256658 
714	 0.176390433516281 
715	 0.180351875239283 
716	 0.184197158161163 
717	 0.188050606224279 
718	 0.192085898356201 
719	 0.196106807364884 
720	 0.200011474004563 
721	 0.203780139394954 
722	 0.207078234569638 
723	 0.210423111425915 
724	 0.214043361276005 
725	 0.217400608395612 
726	 0.220680328436606 
727	 0.223826835283606 
728	 0.226881761090905 
729	 0.229952984017451 
730	 0.23280646859498 
731	 0.235459555983923 
732	 0.23802710957789 
733	 0.240415316202074 
734	 0.242659460013471 
735	 0.244842860395253 
736	 0.247015137557778 
737	 0.249020277583615 
738	 0.250890169821661 
739	 0.252683102046543 
740	 0.254347352851618 
741	 0.255967348255443 
742	 0.257470040267068 
743	 0.25877888269743 
744	 0.260109290644927 
745	 0.261379546560107 
746	 0.262483783487229 
747	 0.263347478718387 
748	 0.264371816865335 
749	 0.265378312240295 
750	 0.266243764511155 
751	 0.267081461452164 
752	 0.267806379991843 
753	 0.268440812179457 
754	 0.269037889210965 
755	 0.269634440229122 
756	 0.270264820378243 
757	 0.270858063028274 
758	 0.271352627295896 
759	 0.272252645546007 
760	 0.273715650070989 
761	 0.275403364778146 
762	 0.2757149359852 
763	 0.275803126361231 
764	 0.275819861836802 
765	 0.275708380998288 
766	 0.27558561352317 
767	 0.275660051802783 
768	 0.275886378185992 
769	 0.276152712444129 
770	 0.276375406134155 
771	 0.276625034441936 
772	 0.276909758829893 
773	 0.277185256188343 
774	 0.277498281360477 
775	 0.277832537982202 
776	 0.278155470845471 
777	 0.278424374457914 
778	 0.278786296807119 
779	 0.279148368480768 
780	 0.279402870627116 
781	 0.279644193590557 
782	 0.279927944020828 
783	 0.280264346026543 
784	 0.280622499591819 
785	 0.280911424081179 
786	 0.281173746281212 
787	 0.281429321981632 
788	 0.281665060644119 
789	 0.282044745844119 
790	 0.28237071067023 
791	 0.282566295454787 
792	 0.282954055833232 
793	 0.283321431231041 
794	 0.283635696857196 
795	 0.283931209281128 
796	 0.284271112887513 
797	 0.284606424245176 
798	 0.284896729479456 
799	 0.285130099013085 
800	 0.285440720048195 
801	 0.285787150505334 
802	 0.28607879697265 
803	 0.286217891537619 
804	 0.286546975879916 
805	 0.286934539233151 
806	 0.287231455281493 
807	 0.287452046212842 
808	 0.2877773565254 
809	 0.288107861206396 
810	 0.288308660191635 
811	 0.288481250194871 
812	 0.288843753658632 
813	 0.289336831791552 
814	 0.289713880046524 
815	 0.289756429115551 
816	 0.289964126319251 
817	 0.290438665360904 
818	 0.290772200351088 
819	 0.290896453703411 
820	 0.29106291547804 
821	 0.291405864220708 
822	 0.291770666749537 
823	 0.292097011900983 
824	 0.292320459781862 
825	 0.292472873906796 
826	 0.292856449348196 
827	 0.293198250852995 
828	 0.293452889355728 
829	 0.293650790971766 
830	 0.293704333921874 
831	 0.293945858253212 
832	 0.294368460244472 
833	 0.294705857847315 
834	 0.29497275525934 
835	 0.295138594618791 
836	 0.29529815534286 
837	 0.29566934223407 
838	 0.296011208186247 
839	 0.296279141754747 
840	 0.296481788598479 
841	 0.296647567779767 
842	 0.296890579660394 
843	 0.297262541582733 
844	 0.297691308320698 
845	 0.297796577246697 
846	 0.297965361763857 
847	 0.298218537997869 
848	 0.298431636979807 
849	 0.29867208312768 
850	 0.299067227615126 
851	 0.299412218300471 
852	 0.299379417047714 
853	 0.299766880144491 
854	 0.30020417836391 
855	 0.300402957333273 
856	 0.300365062948998 
857	 0.300490591361749 
858	 0.300775965094546 
859	 0.30114746756205 
860	 0.301541960580271 
861	 0.301733340929966 
862	 0.301868055370275 
863	 0.302091494321319 
864	 0.302252910781628 
865	 0.302730542622791 
866	 0.303272819667052 
867	 0.303479871475926 
868	 0.303319386527099 
869	 0.303425635150521 
870	 0.303762693138724 
871	 0.30401420181611 
872	 0.304322940879755 
873	 0.304643234510081 
874	 0.304891649231733 
875	 0.305020748378916 
876	 0.305387484796998 
877	 0.305726882420314 
878	 0.305927022231999 
879	 0.306106558373619 
880	 0.306438268597036 
881	 0.306709907126782 
882	 0.306813004334679 
883	 0.306875284181401 
884	 0.3072351143871 
885	 0.307652617185963 
886	 0.307896834327643 
887	 0.307994556286981 
888	 0.308061996316487 
889	 0.308163913578167 
890	 0.308377503309918 
891	 0.308874831422917 
892	 0.309206596199626 
893	 0.309446603752059 
894	 0.309726809841528 
895	 0.309705435380499 
896	 0.309601109716347 
897	 0.30982172094887 
898	 0.310580712468517 
899	 0.310950488028299 
900	 0.311164823817675 
901	 0.311273723160298 
902	 0.311280101402947 
903	 0.311472585801182 
904	 0.311771049870556 
905	 0.311980630325577 
906	 0.311940045904524 
907	 0.312050713117556 
908	 0.312245775335482 
909	 0.312568355374546 
910	 0.313084036405158 
911	 0.313107565193258 
912	 0.31307379775621 
913	 0.313347672460046 
914	 0.313974743547428 
915	 0.314079316457119 
916	 0.314038171678855 
917	 0.314258879267852 
918	 0.314843867305797 
919	 0.314435304222728 
920	 0.314020581043662 
921	 0.314258795613403 
922	 0.314853076539284 
923	 0.315070643343359 
924	 0.315023963579548 
925	 0.31498283505424 
926	 0.315145604568677 
927	 0.31462108030839 
928	 0.31438671512459 
929	 0.315059361868099 
930	 0.315693761929345 
931	 0.315598286120672 
932	 0.315708715721272 
933	 0.316513044861198 
934	 0.316334238299779 
935	 0.315154491575156 
936	 0.314838336586907 
937	 0.315659899811339 
938	 0.314214107756384 
939	 0.313765378850137 
940	 0.314281654366716 
941	 0.315049877078282 
942	 0.315627209138044 
943	 0.315848938421376 
944	 0.315562577074613 
945	 0.31479471258256 
946	 0.313878373101181 
947	 0.313795039429781 
948	 0.313916952923196 
949	 0.313893378849186 
950	 0.314920889416071 
951	 0.314574267762945 
952	 0.313581061943549 
953	 0.313191884907095 
954	 0.313878375993141 
955	 0.313665866808272 
956	 0.313265373034205 
957	 0.313214259092564 
958	 0.312336034313473 
959	 0.312068541167322 
960	 0.312953864452524 
961	 0.314455971731879 
962	 0.314743835901583 
963	 0.314192691331998 
964	 0.314042365578574 
965	 0.314452044792814 
966	 0.313598178023649 
967	 0.313808002659487 
968	 0.314442893886758 
969	 0.314560304791681 
970	 0.313890630458919 
971	 0.314327399990968 
972	 0.314586901312996 
973	 0.314388157293258 
974	 0.315591011444974 
975	 0.315321154754275 
976	 0.315194224276849 
977	 0.316084721307403 
978	 0.316791361916926 
979	 0.316838643563588 
980	 0.316864364874317 
981	 0.316792451132224 
982	 0.315823982548147 
983	 0.315950224420597 
984	 0.316003470638568 
985	 0.315778275887677 
986	 0.316278408577005 
987	 0.317634600277491 
988	 0.318424561065209 
989	 0.318186985979551 
990	 0.31768705450393 
991	 0.319017465515893 
992	 0.319863738394052 
993	 0.319925520602104 
994	 0.320188079620157 
995	 0.31971035685649 
996	 0.319755332888403 
997	 0.319668169968519 
998	 0.318763604413822 
999	 0.320597113073787 
1000	 0.320924395044894 
1001	 0.325079275201636 
1002	 0.325450047882918 
1003	 0.325756025257093 
1004	 0.326029736132821 
1005	 0.326346560894588 
1006	 0.326601297711895 
1007	 0.326920800219003 
1008	 0.327362635845694 
1009	 0.327701471220233 
1010	 0.327994914086383 
1011	 0.328338388842841 
1012	 0.328552313139483 
1013	 0.328780826848479 
1014	 0.329051616658321 
1015	 0.329256230484785 
1016	 0.329509456931073 
1017	 0.329850521899131 
1018	 0.330169932017302 
1019	 0.330512757099069 
1020	 0.330786596525897 
1021	 0.33102999743541 
1022	 0.331311387149055 
1023	 0.331517092339628 
1024	 0.331861029403581 
1025	 0.332334648532886 
1026	 0.332643555687737 
1027	 0.332925439992278 
1028	 0.333283251505807 
1029	 0.333452477174984 
1030	 0.333681869731157 
1031	 0.333969934290252 
1032	 0.334085628936081 
1033	 0.334277642461892 
1034	 0.334510189501168 
1035	 0.334684877664445 
1036	 0.334824287428384 
1037	 0.335065427509175 
1038	 0.335322515485769 
1039	 0.335606429139454 
1040	 0.335922163652336 
1041	 0.336144795076156 
1042	 0.336300867608386 
1043	 0.336496633274299 
1044	 0.336718947761411 
1045	 0.336821272974099 
1046	 0.336906244381303 
1047	 0.337084047518572 
1048	 0.33733899870635 
1049	 0.337574930616195 
1050	 0.337783373013154 
1051	 0.338002697448995 
1052	 0.338243648720033 
1053	 0.338455725562554 
1054	 0.338695409941011 
1055	 0.339003964345025 
1056	 0.339145619873961 
1057	 0.339215425983689 
1058	 0.339457274318703 
1059	 0.339673567767357 
1060	 0.339830173891254 
1061	 0.340033397862074 
1062	 0.340160173117961 
1063	 0.340294857098409 
1064	 0.340559285388141 
1065	 0.340818526608111 
1066	 0.34111150985663 
1067	 0.341376416530255 
1068	 0.341638907127963 
1069	 0.341886925512464 
1070	 0.342108118818458 
1071	 0.342249824908922 
1072	 0.342334538380366 
1073	 0.342506578947249 
1074	 0.342740350852578 
1075	 0.342915432617769 
1076	 0.343102453312242 
1077	 0.343254950684536 
1078	 0.343329948164312 
1079	 0.343421185366476 
1080	 0.343525896253308 
1081	 0.343683763826543 
1082	 0.34386648890044 
1083	 0.344049086369207 
1084	 0.34427950416885 
1085	 0.34461806721799 
1086	 0.344826533340981 
1087	 0.344963524138924 
1088	 0.345151717616792 
1089	 0.345234589719056 
1090	 0.345330589299934 
1091	 0.345589587502243 
1092	 0.345819101797276 
1093	 0.345915736104806 
1094	 0.346025206518883 
1095	 0.346069462528089 
1096	 0.346085923303345 
1097	 0.345957754568672 
1098	 0.34600886235206 
1099	 0.346125223243049 
1100	 0.346279121738601 
1101	 0.346426084021329 
1102	 0.346590999776453 
1103	 0.34672007197552 
1104	 0.346739997695788 
1105	 0.346777064250183 
1106	 0.346827256898749 
1107	 0.34685673255821 
1108	 0.346872779594253 
1109	 0.346827799018528 
1110	 0.346808880831422 
1111	 0.346772509277446 
1112	 0.346636106198813 
1113	 0.346600172097986 
1114	 0.346690793001546 
1115	 0.346687353352581 
1116	 0.346634284954455 
1117	 0.346686569404561 
1118	 0.346831362872609 
1119	 0.346723049352912 
1120	 0.346604420805019 
1121	 0.346534405647928 
1122	 0.346230949721623 
1123	 0.345909632240668 
1124	 0.345713932402202 
1125	 0.345507825068627 
1126	 0.345336982695562 
1127	 0.34525145226773 
1128	 0.345056749298082 
1129	 0.344912754888015 
1130	 0.344606610506119 
1131	 0.344183135011494 
1132	 0.343743959857317 
1133	 0.343234290037681 
1134	 0.342768306355804 
1135	 0.342222683849993 
1136	 0.341713818032938 
1137	 0.341144799904391 
1138	 0.3405460033442 
1139	 0.340030232175536 
1140	 0.339366221442316 
1141	 0.338642636276202 
1142	 0.337934749697725 
1143	 0.337189423407927 
1144	 0.336338002718683 
1145	 0.335550418055785 
1146	 0.334828412420816 
1147	 0.334018199113965 
1148	 0.333136075883419 
1149	 0.332407412972375 
1150	 0.33168882025958 
1151	 0.331073251812601 
1152	 0.330617353513913 
1153	 0.330130662355659 
1154	 0.329776732302479 
1155	 0.329522000545704 
1156	 0.329262800988253 
1157	 0.329102561403167 
1158	 0.328884242637662 
1159	 0.328703811660868 
1160	 0.328568128499896 
1161	 0.328452564403234 
1162	 0.328394376398102 
1163	 0.328411521838693 
1164	 0.328360148507741 
1165	 0.328290173688606 
1166	 0.328292842438743 
1167	 0.328319509355021 
1168	 0.328312994056074 
1169	 0.328361911133859 
1170	 0.328371222356468 
1171	 0.328277508926503 
1172	 0.328217144650324 
1173	 0.328200954515533 
1174	 0.328224245070145 
1175	 0.328336393768421 
1176	 0.328384472627333 
1177	 0.328437040532856 
1178	 0.328512360551747 
1179	 0.328569861966146 
1180	 0.328577393112647 
1181	 0.328639922717725 
1182	 0.328769150706006 
1183	 0.328795187337246 
1184	 0.328791843702928 
1185	 0.328781695337036 
1186	 0.328687227993871 
1187	 0.328644959360912 
1188	 0.328605785871615 
1189	 0.328611828157611 
1190	 0.328644098621374 
1191	 0.328658133344424 
1192	 0.328728859460585 
1193	 0.328856919343766 
1194	 0.328919564842226 
1195	 0.328968529876662 
1196	 0.329026652287821 
1197	 0.329039316757938 
1198	 0.329117080714986 
1199	 0.32924352723742 
1200	 0.329364254112993 
1201	 0.329475248700723 
1202	 0.329646290378745 
1203	 0.329870741565786 
1204	 0.330080367044968 
1205	 0.330318255797697 
1206	 0.330549866023574 
1207	 0.330797028669134 
1208	 0.330998342740177 
1209	 0.33114271258847 
1210	 0.331367066366341 
1211	 0.331590227120624 
1212	 0.331801686959692 
1213	 0.332045996960945 
1214	 0.332369318440217 
1215	 0.332620574633728 
1216	 0.332833057326317 
1217	 0.333067805144353 
1218	 0.333300730678887 
1219	 0.333538354723589 
1220	 0.333770176687917 
1221	 0.334028072944617 
1222	 0.334323480758769 
1223	 0.334571659025994 
1224	 0.334800477700582 
1225	 0.335049305429298 
1226	 0.335267000947363 
1227	 0.335516698540068 
1228	 0.335811353740878 
1229	 0.336086573384786 
1230	 0.336418339419308 
1231	 0.336721895257223 
1232	 0.336959603283576 
1233	 0.337169083781133 
1234	 0.337401498770691 
1235	 0.337563182986557 
1236	 0.337792035254392 
1237	 0.338095106209859 
1238	 0.338352764066167 
1239	 0.338610426111492 
1240	 0.338828127031782 
1241	 0.339027245197073 
1242	 0.339227679879457 
1243	 0.339387093446735 
1244	 0.339562889410895 
1245	 0.339713263703431 
1246	 0.339927431473575 
1247	 0.340199970930529 
1248	 0.340435699988305 
1249	 0.340748959254334 
1250	 0.340983960419981 
1251	 0.341136096971128 
1252	 0.341278705014006 
1253	 0.341433998852246 
1254	 0.341569333155759 
1255	 0.34171684473213 
1256	 0.341872301412209 
1257	 0.342031362657541 
1258	 0.342205234648883 
1259	 0.342338465447717 
1260	 0.342479134482636 
1261	 0.34258083602756 
1262	 0.34262496479037 
1263	 0.342683009752866 
1264	 0.342706255311668 
1265	 0.342769742275163 
1266	 0.342839074294395 
1267	 0.342919367433331 
1268	 0.343051533876813 
1269	 0.343144133169375 
1270	 0.343242311664312 
1271	 0.34329638134224 
1272	 0.343290168314994 
1273	 0.343305368276862 
1274	 0.34331207679608 
1275	 0.343286368439915 
1276	 0.343294027719815 
1277	 0.343331578230295 
1278	 0.343336216283097 
1279	 0.343327192822008 
1280	 0.34332957353714 
1281	 0.343320966434173 
1282	 0.343326869421876 
1283	 0.343342658561353 
1284	 0.34336306665435 
1285	 0.343384774642954 
1286	 0.343417160520383 
1287	 0.34352436762027 
1288	 0.343513165176469 
1289	 0.343440806192566 
1290	 0.343371335485264 
1291	 0.343191076386276 
1292	 0.343079438957199 
1293	 0.343059383723841 
1294	 0.342962728828868 
1295	 0.342841325108676 
1296	 0.34270616800725 
1297	 0.34255141443644 
1298	 0.34234274217669 
1299	 0.342151525943232 
1300	 0.341980520900521 
1301	 0.341750720598257 
1302	 0.341478113594031 
1303	 0.341204746041738 
1304	 0.340914776580722 
1305	 0.340590854823835 
1306	 0.340243093030322 
1307	 0.339881935607217 
1308	 0.339518848883151 
1309	 0.339077807450165 
1310	 0.338562634711317 
1311	 0.338079699079583 
1312	 0.337522530329058 
1313	 0.337014925451111 
1314	 0.336648677487262 
1315	 0.336121968496885 
1316	 0.335504975969272 
1317	 0.334883300212477 
1318	 0.334102469220845 
1319	 0.333419123624175 
1320	 0.332792785934956 
1321	 0.332195935370117 
1322	 0.331490308361347 
1323	 0.330764063095224 
1324	 0.330010989660634 
1325	 0.329138188617092 
1326	 0.328326199769085 
1327	 0.327555554385238 
1328	 0.326698074377758 
1329	 0.325793102659236 
1330	 0.324845759190058 
1331	 0.323861721130208 
1332	 0.322836641760525 
1333	 0.321689788421507 
1334	 0.320695048755898 
1335	 0.319688819664055 
1336	 0.318814215101786 
1337	 0.318145781838495 
1338	 0.317362939724139 
1339	 0.316495972090022 
1340	 0.315740190623257 
1341	 0.314954789597054 
1342	 0.314172515225417 
1343	 0.313341201833805 
1344	 0.312604497183298 
1345	 0.311859118112326 
1346	 0.311056456726297 
1347	 0.310157879449133 
1348	 0.309517369011609 
1349	 0.308732691891552 
1350	 0.307766134101445 
1351	 0.306718033741579 
1352	 0.305972973289794 
1353	 0.304757949585456 
1354	 0.302992841743849 
1355	 0.301144206373387 
1356	 0.299692733527022 
1357	 0.298155667232617 
1358	 0.299554107988969 
1359	 0.298581233408944 
1360	 0.298733871724262 
1361	 0.297976678300389 
1362	 0.294300763338164 
1363	 0.287394039817576 
1364	 0.279844471888103 
1365	 0.275358537183937 
1366	 0.27334733931857 
1367	 0.269957302537928 
1368	 0.27241783655165 
1369	 0.272085503225679 
1370	 0.267792896173834 
1371	 0.266665191384531 
1372	 0.268618930433394 
1373	 0.268497613700349 
1374	 0.268854128137997 
1375	 0.267297610236663 
1376	 0.263497544665967 
1377	 0.261436703641715 
1378	 0.260537660252459 
1379	 0.260323734785772 
1380	 0.25892353719112 
1381	 0.260040020534291 
1382	 0.255820080551425 
1383	 0.247956865265074 
1384	 0.243113869257469 
1385	 0.239221819697464 
1386	 0.232900125519602 
1387	 0.225978970582897 
1388	 0.221920807403847 
1389	 0.217718901952688 
1390	 0.214073633458721 
1391	 0.213192116998186 
1392	 0.210410234992082 
1393	 0.206420401388042 
1394	 0.20207483255578 
1395	 0.197081522728634 
1396	 0.193190550842531 
1397	 0.188600308771384 
1398	 0.185059676248721 
1399	 0.183318839230804 
1400	 0.180452028237004 
1401	 0.176656329021784 
1402	 0.174181277651849 
1403	 0.172994828457048 
1404	 0.170583857792938 
1405	 0.1681587841413 
1406	 0.166030691245837 
1407	 0.163721294193936 
1408	 0.161058916506187 
1409	 0.159209722451964 
1410	 0.157946819445061 
1411	 0.156445764761172 
1412	 0.154827677132259 
1413	 0.153636294606348 
1414	 0.152731069722865 
1415	 0.151681991746163 
1416	 0.150705706343031 
1417	 0.149730418796714 
1418	 0.14875437094309 
1419	 0.147758383922943 
1420	 0.146707006741728 
1421	 0.145921312346717 
1422	 0.145125168409258 
1423	 0.144533939250811 
1424	 0.14428583716644 
1425	 0.143689906126393 
1426	 0.142906590192806 
1427	 0.142322824317207 
1428	 0.141530207802016 
1429	 0.141072174123919 
1430	 0.141076225233379 
1431	 0.140638898804661 
1432	 0.139851848651185 
1433	 0.139539897484483 
1434	 0.13920874300376 
1435	 0.139007359810839 
1436	 0.139396983655641 
1437	 0.139418102511358 
1438	 0.139134081192759 
1439	 0.139006858810823 
1440	 0.138805140674764 
1441	 0.138721336722203 
1442	 0.138612842048638 
1443	 0.138842491101796 
1444	 0.138898130608103 
1445	 0.138957564415382 
1446	 0.139209290296151 
1447	 0.139211462539725 
1448	 0.13925269935049 
1449	 0.13931906479145 
1450	 0.13937582940751 
1451	 0.139325035862022 
1452	 0.139412539119829 
1453	 0.139616490358345 
1454	 0.139693983940161 
1455	 0.139723004012631 
1456	 0.139824985641145 
1457	 0.139911180767085 
1458	 0.140031206663506 
1459	 0.140232686561134 
1460	 0.140392220818307 
1461	 0.140458571950635 
1462	 0.140733153952162 
1463	 0.141126567788867 
1464	 0.141560951620507 
1465	 0.142267542624966 
1466	 0.142743948023425 
1467	 0.143048824644926 
1468	 0.143533016966584 
1469	 0.143909404916942 
1470	 0.144492228415065 
1471	 0.145310482707068 
1472	 0.146032274830168 
1473	 0.14670665737664 
1474	 0.147451874009114 
1475	 0.148204318465212 
1476	 0.148928736136356 
1477	 0.149641440192766 
1478	 0.150397664235302 
1479	 0.151082366986518 
1480	 0.151880378776749 
1481	 0.152787178956568 
1482	 0.153655848264109 
1483	 0.154484400285123 
1484	 0.155407950182073 
1485	 0.156368178332822 
1486	 0.1573144914434 
1487	 0.158389803546583 
1488	 0.159310702394261 
1489	 0.160022960999924 
1490	 0.16082270903359 
1491	 0.161566692838362 
1492	 0.162317120641805 
1493	 0.163219265312567 
1494	 0.164140007465939 
1495	 0.165057244110068 
1496	 0.166064152817859 
1497	 0.166904413820195 
1498	 0.167671500595699 
1499	 0.168527136272142 
1500	 0.169337323609007 
1501	 0.1702392501819 
1502	 0.171252539219561 
1503	 0.172240466724337 
1504	 0.173217295409102 
1505	 0.174232052163038 
1506	 0.17532492400435 
1507	 0.176310169539119 
1508	 0.177275316804211 
1509	 0.178199653873702 
1510	 0.179021944830208 
1511	 0.179953054726882 
1512	 0.180923541489373 
1513	 0.181858763253905 
1514	 0.182847326233658 
1515	 0.183784183349243 
1516	 0.184665717085746 
1517	 0.18559079425342 
1518	 0.186523864310745 
1519	 0.187481393737356 
1520	 0.188490897464222 
1521	 0.189441687226978 
1522	 0.190369561635422 
1523	 0.191324740513057 
1524	 0.19226610499114 
1525	 0.193209719507724 
1526	 0.194197328346587 
1527	 0.195157791504737 
1528	 0.196139614443194 
1529	 0.197018876335418 
1530	 0.197803101634764 
1531	 0.198667138832569 
1532	 0.199502332506324 
1533	 0.200341307855823 
1534	 0.201254101110651 
1535	 0.202133824561708 
1536	 0.20292195639732 
1537	 0.203791412661618 
1538	 0.204752934726875 
1539	 0.205663191248788 
1540	 0.206622808517494 
1541	 0.207487172623625 
1542	 0.208235623759769 
1543	 0.209050853577842 
1544	 0.209852931983597 
1545	 0.210653595541321 
1546	 0.21148893974675 
1547	 0.212323339793963 
1548	 0.213140963125293 
1549	 0.213958884982787 
1550	 0.214837169041644 
1551	 0.215651629976838 
1552	 0.216380914986498 
1553	 0.217160343521787 
1554	 0.217966831446001 
1555	 0.218728674459256 
1556	 0.219496850094758 
1557	 0.220252093033108 
1558	 0.220967239888453 
1559	 0.221660701595636 
1560	 0.222337913179289 
1561	 0.223029915182551 
1562	 0.22370182082622 
1563	 0.224374119494734 
1564	 0.22507815298931 
1565	 0.225765353114097 
1566	 0.226420053420714 
1567	 0.227128151890172 
1568	 0.227865237568724 
1569	 0.228669766469817 
1570	 0.229351177141086 
1571	 0.230024725313107 
1572	 0.230651779044229 
1573	 0.231139668398526 
1574	 0.231815596117484 
1575	 0.232561561220414 
1576	 0.233273685116309 
1577	 0.234069744706469 
1578	 0.234711680772965 
1579	 0.23526201908861 
1580	 0.235844223389746 
1581	 0.236353950557848 
1582	 0.236949105168248 
1583	 0.237586360804674 
1584	 0.238199284690774 
1585	 0.238845768115245 
1586	 0.239428753147037 
1587	 0.239973808141181 
1588	 0.240547897985834 
1589	 0.241115841795982 
1590	 0.241662901241905 
1591	 0.242204993639192 
1592	 0.242777713240492 
1593	 0.243332872090086 
1594	 0.24391253471131 
1595	 0.244557277979855 
1596	 0.245135077317298 
1597	 0.245680749044904 
1598	 0.246233649251157 
1599	 0.24678334093747 
1600	 0.247309865935121 
1601	 0.247803405891225 
1602	 0.248351439510769 
1603	 0.248926902920796 
1604	 0.249435321268662 
1605	 0.249932375841975 
1606	 0.250462794556251 
1607	 0.250950007856346 
1608	 0.251457120007697 
1609	 0.252031285767252 
1610	 0.252529747082329 
1611	 0.252961471717045 
1612	 0.25342459033773 
1613	 0.253899540866806 
1614	 0.254339284089651 
1615	 0.254760424761571 
1616	 0.255165676857275 
1617	 0.25551559732279 
1618	 0.255966331017639 
1619	 0.256439648825634 
1620	 0.256939246255992 
1621	 0.257553402201364 
1622	 0.25801203891774 
1623	 0.258432545375283 
1624	 0.258790718677255 
1625	 0.259038084188287 
1626	 0.259352552859262 
1627	 0.259659290866679 
1628	 0.259958652857328 
1629	 0.260254036714599 
1630	 0.260592588918226 
1631	 0.260926992463553 
1632	 0.261303471844768 
1633	 0.261762169772944 
1634	 0.26214739532764 
1635	 0.262538291174737 
1636	 0.262849497330573 
1637	 0.263070963775814 
1638	 0.263382460314653 
1639	 0.263680774609826 
1640	 0.264012110254087 
1641	 0.264441698879422 
1642	 0.264739506473904 
1643	 0.264978330466909 
1644	 0.265199459669754 
1645	 0.265343710487349 
1646	 0.265566768886052 
1647	 0.265792228271261 
1648	 0.266032373505045 
1649	 0.266302842655081 
1650	 0.266565813013375 
1651	 0.266868649013693 
1652	 0.267045023923208 
1653	 0.267185280505159 
1654	 0.267307301861612 
1655	 0.267306125580256 
1656	 0.267432766521488 
1657	 0.267630441139456 
1658	 0.267729073475425 
1659	 0.267888231246625 
1660	 0.26802340213689 
1661	 0.268171718619253 
1662	 0.268268504677226 
1663	 0.268293856745524 
1664	 0.268263818382097 
1665	 0.268261314013142 
1666	 0.26842286969334 
1667	 0.268482637730766 
1668	 0.268491772509049 
1669	 0.26853133567878 
1670	 0.268395585393782 
1671	 0.268352782768201 
1672	 0.268393247313018 
1673	 0.2683306231431 
1674	 0.268326736491631 
1675	 0.268343471833375 
1676	 0.268320169680648 
1677	 0.268277074300904 
1678	 0.268228651790633 
1679	 0.268114789610553 
1680	 0.267942130684508 
1681	 0.267742675289995 
1682	 0.267450047635475 
1683	 0.267169297862653 
1684	 0.266921916496088 
1685	 0.266707077912719 
1686	 0.266631868114386 
1687	 0.266571883573565 
1688	 0.266424854584594 
1689	 0.266269862885553 
1690	 0.265968079778835 
1691	 0.265720134458451 
1692	 0.265564661725625 
1693	 0.265316773351453 
1694	 0.264993548316074 
1695	 0.264716112642699 
1696	 0.264340656279757 
1697	 0.264046330609689 
1698	 0.263900692868226 
1699	 0.263657887937953 
1700	 0.263435940459084 
1701	 0.263170857935677 
1702	 0.262765554260801 
1703	 0.262470171171098 
1704	 0.262187728319828 
1705	 0.261934656226853 
1706	 0.261836782161796 
1707	 0.261572257059459 
1708	 0.261214925122748 
1709	 0.260879672113939 
1710	 0.260428936253618 
1711	 0.260055440403325 
1712	 0.259791967803126 
1713	 0.25944168318754 
1714	 0.259055286156946 
1715	 0.258694882709195 
1716	 0.258269264354374 
1717	 0.257883599799633 
1718	 0.257591824353056 
1719	 0.257196315275496 
1720	 0.256737128432179 
1721	 0.256323571739177 
1722	 0.255881000409505 
1723	 0.255436068142748 
1724	 0.254961049979314 
1725	 0.254595707042209 
1726	 0.254306410277207 
1727	 0.253901813293654 
1728	 0.253514755865895 
1729	 0.253229794087048 
1730	 0.252854583236967 
1731	 0.252639788888105 
1732	 0.252481243765368 
1733	 0.252086378912226 
1734	 0.251793250544605 
1735	 0.251544727554814 
1736	 0.251101086900399 
1737	 0.250617606810689 
1738	 0.250230294446865 
1739	 0.249858565375241 
1740	 0.249486572149799 
1741	 0.249151852979639 
1742	 0.248689590831395 
1743	 0.248123595702953 
1744	 0.24751937882601 
1745	 0.246923048955205 
1746	 0.246487468152019 
1747	 0.246041527973994 
1748	 0.245540916196942 
1749	 0.245018162018468 
1750	 0.24440754406581 
1751	 0.243794847606174 
1752	 0.243265096843196 
1753	 0.242809957437591 
1754	 0.242189978001388 
1755	 0.241560487399844 
1756	 0.241054375033015 
1757	 0.240364459202667 
1758	 0.239847773099175 
1759	 0.239426769040251 
1760	 0.238843198673479 
1761	 0.238303119597424 
1762	 0.23774702297391 
1763	 0.236961330151605 
1764	 0.236521278297022 
1765	 0.236329681701303 
1766	 0.236008229096077 
1767	 0.235841336341835 
1768	 0.235468039624654 
1769	 0.234893583068507 
1770	 0.234522585031598 
1771	 0.234201105324636 
1772	 0.233748157762339 
1773	 0.233282721190835 
1774	 0.232824988390845 
1775	 0.232528848797156 
1776	 0.232463416923531 
1777	 0.232209045315472 
1778	 0.231903711045676 
1779	 0.231683150412491 
1780	 0.231380407806812 
1781	 0.231135379267753 
1782	 0.231048207716478 
1783	 0.230864349144549 
1784	 0.230704316070665 
1785	 0.230517022391038 
1786	 0.230050743837104 
1787	 0.229877231544271 
1788	 0.230064609983573 
1789	 0.230170792181008 
1790	 0.230281588949075 
1791	 0.230161477742368 
1792	 0.22960249623001 
1793	 0.229072798471186 
1794	 0.228699745729133 
1795	 0.228538587081039 
1796	 0.228637008021121 
1797	 0.228798743486615 
1798	 0.229430786964453 
1799	 0.229713040743336 
1800	 0.229680661978337 
1801	 0.231499999851788 
1802	 0.23207283058881 
1803	 0.232068912758306 
1804	 0.231172719712165 
1805	 0.231095516419542 
1806	 0.231715538640576 
1807	 0.23213368180988 
1808	 0.232008554873887 
1809	 0.234010252038879 
1810	 0.234594465469883 
1811	 0.235103772811675 
1812	 0.234563308409312 
1813	 0.231812535556837 
1814	 0.231383061138977 
1815	 0.231472135387169 
1816	 0.231535473691743 
1817	 0.235315581367282 
1818	 0.236400410720963 
1819	 0.236108046916616 
1820	 0.231870246884662 
1821	 0.231412983113554 
1822	 0.230350757556929 
1823	 0.231113965710131 
1824	 0.238054628467217 
1825	 0.240379096850473 
1826	 0.239939676307622 
1827	 0.24086062595846 
1828	 0.241065226484119 
1829	 0.236772834857765 
1830	 0.235561709016252 
1831	 0.238360256770141 
1832	 0.238104968647391 
1833	 0.23624249649696 
1834	 0.23168274330284 
1835	 0.209337083125365 
1836	 0.207104717821763 
1837	 0.233512575540594 
1838	 0.248239947378998 
1839	 0.267651583461592 
1840	 0.318274427046246 
1841	 0.319958305608492 
1842	 0.275630052440645 
1843	 0.261084519781092 
1844	 0.235955207745399 
1845	 0.227022459196019 
1846	 0.239486368087886 
1847	 0.238236998053055 
1848	 0.234966702699309 
1849	 0.230024741539516 
1850	 0.229886863770531 
1851	 0.227713499461528 
1852	 0.225630031025613 
1853	 0.234917913680045 
1854	 0.229711247397016 
1855	 0.206640181876745 
1856	 0.199826384762178 
1857	 0.195828553059226 
1858	 0.191121006217519 
1859	 0.194271521299423 
1860	 0.210724809133197 
1861	 0.213624180372082 
1862	 0.219905978269324 
1863	 0.21278724605574 
1864	 0.191303780268401 
1865	 0.174741791890648 
1866	 0.140506650322002 
1867	 0.120215576614074 
1868	 0.108551999036213 
1869	 0.126963087436313 
1870	 0.133706834648462 
1871	 0.161950600334782 
1872	 0.170346951612997 
1873	 0.16963550247616 
1874	 0.16066102072739 
1875	 0.14203636970429 
1876	 0.136790052755976 
1877	 0.128875612414325 
1878	 0.130602118779737 
1879	 0.127788767255926 
1880	 0.130113873291851 
1881	 0.13386491630711 
1882	 0.137451253211645 
1883	 0.138639424061965 
1884	 0.147524734312525 
1885	 0.145937048166149 
1886	 0.135317397140758 
1887	 0.128363967328692 
1888	 0.125005501389332 
1889	 0.123990082640978 
1890	 0.120104833807332 
1891	 0.117552600216807 
1892	 0.115381873180971 
1893	 0.108001116587769 
1894	 0.104553908572411 
1895	 0.107418776886347 
1896	 0.108668733997714 
1897	 0.108958634172977 
1898	 0.110584312527406 
1899	 0.115468805470058 
1900	 0.123810938122901 
1901	 0.129989265427821 
1902	 0.139615742305345 
1903	 0.13991228961394 
1904	 0.13316244053578 
1905	 0.121637455394244 
1906	 9.54400596647702E-02 
1907	 8.46837410043311E-02 
1908	 8.22818894784897E-02 
1909	 7.58730869419959E-02 
1910	 7.53561373024476E-02 
1911	 7.33279204070848E-02 
1912	 7.55153297128682E-02 
1913	 7.86787908453059E-02 
1914	 8.09569743555385E-02 
1915	 8.70545452348274E-02 
1916	 8.77260248267492E-02 
1917	 0.086935368666799 
1918	 0.083397223945124 
1919	 8.08804632838176E-02 
1920	 7.86224623113912E-02 
1921	 7.73797938808436E-02 
1922	 7.65686796693713E-02 
1923	 7.65591739828716E-02 
1924	 7.91638941409789E-02 
1925	 7.77295566940752E-02 
1926	 7.42370292502607E-02 
1927	 7.29065807167231E-02 
1928	 7.02076813827682E-02 
1929	 0.068517825323872 
1930	 7.10648045507251E-02 
1931	 0.07083434856223 
1932	 0.07263995839344 
1933	 0.07303419618304 
1934	 7.18854993664977E-02 
1935	 6.94254474464883E-02 
1936	 6.87732625891851E-02 
1937	 6.70951839540819E-02 
1938	 6.69471554827042E-02 
1939	 6.75398806533753E-02 
1940	 6.89524894264099E-02 
1941	 7.12847933773828E-02 
1942	 7.32241500265527E-02 
1943	 7.38401333670207E-02 
1944	 7.43186958285573E-02 
1945	 7.42355424506094E-02 
1946	 7.26071309181503E-02 
1947	 7.22950203615899E-02 
1948	 7.28337283068382E-02 
1949	 7.31780170177508E-02 
1950	 7.35641687265661E-02 
1951	 7.45913633625413E-02 
1952	 7.46739749295287E-02 
1953	 7.47444445312059E-02 
1954	 7.47507681956483E-02 
1955	 7.44465234841198E-02 
1956	 7.44313833347608E-02 
1957	 0.074381539711134 
1958	 0.074707026717626 
1959	 7.51946144838102E-02 
1960	 7.56460742383906E-02 
1961	 0.076390445401529 
1962	 7.67842199661031E-02 
1963	 7.69549209940114E-02 
1964	 7.72235113136971E-02 
1965	 7.75119643739512E-02 
1966	 7.79569743458391E-02 
1967	 7.90116242768979E-02 
1968	 7.97091062133306E-02 
1969	 8.02991774549725E-02 
1970	 8.12393244240021E-02 
1971	 8.17314563323742E-02 
1972	 8.17590888357568E-02 
1973	 8.20724831840534E-02 
1974	 8.27251561898999E-02 
1975	 8.25965726694852E-02 
1976	 8.29312173390894E-02 
1977	 8.35035364307965E-02 
1978	 8.37101933463839E-02 
1979	 8.43696402520206E-02 
1980	 0.085190274491924 
1981	 8.57482443812489E-02 
1982	 8.62968005405034E-02 
1983	 8.67801847647154E-02 
1984	 8.73686641258423E-02 
1985	 8.79895140122628E-02 
1986	 8.85246467176859E-02 
1987	 8.92127585320709E-02 
1988	 8.97433067357349E-02 
1989	 0.090052802648108 
1990	 9.04237323938807E-02 
1991	 9.07091094907604E-02 
1992	 9.10485749626273E-02 
1993	 9.15269723306577E-02 
1994	 9.21614386904717E-02 
1995	 9.26858782241357E-02 
1996	 9.32651033597463E-02 
1997	 9.37187269358811E-02 
1998	 9.42083883304468E-02 
1999	 9.45645156717143E-02 
2000	 9.47907966644919E-02 
2001	 9.50471085286133E-02 
2002	 9.53463775699719E-02 
2003	 9.58147828143359E-02 
2004	 9.68075176645933E-02 
2005	 9.81451822477617E-02 
2006	 9.88831449046841E-02 
2007	 9.92644660575952E-02 
2008	 0.099757401879886 
2009	 0.10060509056022 
2010	 0.100923196438378 
2011	 0.101762909462115 
2012	 0.102511479221534 
2013	 0.10224747966665 
2014	 0.102538496450106 
2015	 0.103415518494411 
2016	 0.103736861788524 
2017	 0.104152682589878 
2018	 0.104804258006256 
2019	 0.105200714611156 
2020	 0.105328198100315 
2021	 0.105672949305528 
2022	 0.106134981093716 
2023	 0.106566660438922 
2024	 0.107160778979544 
2025	 0.10774292244487 
2026	 0.108079130812232 
2027	 0.108157692831735 
2028	 0.108238615371141 
2029	 0.108285253558613 
2030	 0.108721965219681 
2031	 0.109354018030954 
2032	 0.109939769534468 
2033	 0.110547817069462 
2034	 0.111448818021448 
2035	 0.112134735166667 
2036	 0.112614168850224 
2037	 0.113053818013731 
2038	 0.113083100927697 
2039	 0.113082802268718 
2040	 0.113433038823261 
2041	 0.113639147744215 
2042	 0.114160394124168 
2043	 0.114885999435216 
2044	 0.115114063480305 
2045	 0.115430499562308 
2046	 0.115780428187446 
2047	 0.116049031409989 
2048	 0.116200241666046 
2049	 0.11652374608478 
2050	 0.116859397171827 
2051	 0.117160313308808 
2052	 0.11749635183509 
2053	 0.117812476648237 
2054	 0.117991463589536 
2055	 0.118420290304903 
2056	 0.118873690611162 
2057	 0.11943592724111 
2058	 0.120280091377902 
2059	 0.120826597332375 
2060	 0.12128567652247 
2061	 0.121367613448787 
2062	 0.121391142828834 
2063	 0.121277115781659 
2064	 0.12104059001164 
2065	 0.121484719051297 
2066	 0.122061415535623 
2067	 0.122696305274222 
2068	 0.123813538451349 
2069	 0.124364700899048 
2070	 0.124348794002923 
2071	 0.124754259967302 
2072	 0.12520452337801 
2073	 0.125525607769375 
2074	 0.125842212491226 
2075	 0.126701114682654 
2076	 0.127287399232186 
2077	 0.127441047804605 
2078	 0.127648484387423 
2079	 0.128174233380898 
2080	 0.128641778675457 
2081	 0.129081309610384 
2082	 0.129867820101275 
2083	 0.130225523813733 
2084	 0.130571551424629 
2085	 0.130819114762855 
2086	 0.130701999772929 
2087	 0.130963710553245 
2088	 0.131376646939289 
2089	 0.131679065661201 
2090	 0.132358301721297 
2091	 0.133170816977701 
2092	 0.133666016951481 
2093	 0.134173100082941 
2094	 0.134305827224505 
2095	 0.134682951508205 
2096	 0.134940725153083 
2097	 0.135082826566646 
2098	 0.135684501310658 
2099	 0.136146715920369 
2100	 0.136658241336219 
2101	 0.137194852137516 
2102	 0.137605905196353 
2103	 0.137830834490885 
2104	 0.138006288559557 
2105	 0.138385181766889 
2106	 0.138994955837693 
2107	 0.139419621561281 
2108	 0.139956839056884 
2109	 0.140314964387796 
2110	 0.140195555328282 
2111	 0.140692551415956 
2112	 0.1412343542174 
2113	 0.141767114872892 
2114	 0.142830675380716 
2115	 0.143534567891484 
2116	 0.144141807496072 
2117	 0.144597107032835 
2118	 0.144765090667257 
2119	 0.145134871622953 
2120	 0.145496362190894 
2121	 0.145785214465533 
2122	 0.146135412216674 
2123	 0.146813977226116 
2124	 0.147322094416583 
2125	 0.147386734361322 
2126	 0.147858326499957 
2127	 0.148429753257118 
2128	 0.148447922876255 
2129	 0.148771011572732 
2130	 0.149020063036001 
2131	 0.148983894898589 
2132	 0.149520101446626 
2133	 0.150145378411837 
2134	 0.150691739185116 
2135	 0.151374646174992 
2136	 0.152031409435013 
2137	 0.152129346807234 
2138	 0.152175457206723 
2139	 0.152298311371386 
2140	 0.152159928391698 
2141	 0.152297310575855 
2142	 0.152621767873368 
2143	 0.152945997264105 
2144	 0.153673068393106 
2145	 0.15412493233664 
2146	 0.154625046297269 
2147	 0.155222686225884 
2148	 0.15532208092604 
2149	 0.15569912056261 
2150	 0.155892675134029 
2151	 0.15606438471029 
2152	 0.156152272155579 
2153	 0.15636552772641 
2154	 0.156509411382156 
2155	 0.156923003799471 
2156	 0.157195064892111 
2157	 0.157190075796702 
2158	 0.157448347420146 
2159	 0.157544006400023 
2160	 0.157662621369158 
2161	 0.158067250090344 
2162	 0.158319867773181 
2163	 0.158319830350695 
2164	 0.158475714951365 
2165	 0.158427976712262 
2166	 0.158352844764765 
2167	 0.158507742428673 
2168	 0.158502128573623 
2169	 0.158309959105168 
2170	 0.158635990763513 
2171	 0.159116220940654 
2172	 0.159557992806978 
2173	 0.160414923675141 
2174	 0.16087556052228 
2175	 0.160917751658894 
2176	 0.160638386422427 
2177	 0.16020529141812 
2178	 0.159930042499965 
2179	 0.15970978640663 
2180	 0.159960507958231 
2181	 0.160435204542367 
2182	 0.160892525646263 
2183	 0.161411875408079 
2184	 0.16138840573801 
2185	 0.16108992985907 
2186	 0.16096472173737 
2187	 0.161003828020836 
2188	 0.161085981135226 
2189	 0.161352878230781 
2190	 0.162001929587354 
2191	 0.162203410769364 
2192	 0.162403462022446 
2193	 0.162737318441493 
2194	 0.162741301509652 
2195	 0.162990595793695 
2196	 0.163127309432237 
2197	 0.162966290992531 
2198	 0.163044055520875 
2199	 0.163107602359626 
2200	 0.163237244807791 
2201	 0.163632501151672 
2202	 0.16361453046638 
2203	 0.163548466334095 
2204	 0.163738194715138 
2205	 0.163845260565967 
2206	 0.164009011844397 
2207	 0.16412957137476 
2208	 0.164286061707403 
2209	 0.164516012801217 
2210	 0.16430746881119 
2211	 0.16394674058485 
2212	 0.163527063911787 
2213	 0.162792293111702 
2214	 0.162312727005445 
2215	 0.162476770856989 
2216	 0.162808913211449 
2217	 0.163215129181871 
2218	 0.163657737772473 
2219	 0.163868095424367 
2220	 0.163928398669489 
2221	 0.163954753636972 
2222	 0.164056457091151 
2223	 0.163778597397942 
2224	 0.163934584954951 
2225	 0.164086459056809 
2226	 0.163702637480646 
2227	 0.163572427684261 
2228	 0.162962392271761 
2229	 0.162634572916804 
2230	 0.162569875185739 
2231	 0.162344843456714 
2232	 0.162351327807722 
2233	 0.162034796761552 
2234	 0.161450246847143 
2235	 0.160729120798369 
2236	 0.160243101279006 
2237	 0.159984240488346 
2238	 0.160113478155264 
2239	 0.160388120620764 
2240	 0.16029926236408 
2241	 0.159908868620233 
2242	 0.159396984836869 
2243	 0.158533012527818 
2244	 0.158001366852937 
2245	 0.157609435581563 
2246	 0.156779213524037 
2247	 0.156020708685951 
2248	 0.155524760545396 
2249	 0.155333489389041 
2250	 0.155005185728184 
2251	 0.154444895306895 
2252	 0.153789016185585 
2253	 0.15284718807895 
2254	 0.151784550772157 
2255	 0.151069707621867 
2256	 0.150505917022532 
2257	 0.150140399268493 
2258	 0.149340069809085 
2259	 0.149020788804959 
2260	 0.149156014807453 
2261	 0.149145468535279 
2262	 0.149355224746466 
2263	 0.149316780048387 
2264	 0.148747109582574 
2265	 0.148404792334807 
2266	 0.147955584783703 
2267	 0.147344986799454 
2268	 0.147311677059893 
2269	 0.146735607153892 
2270	 0.145930846573989 
2271	 0.14493490263721 
2272	 0.143780407434458 
2273	 0.143172897240999 
2274	 0.142197649726411 
2275	 0.142444092173585 
2276	 0.142676248472454 
2277	 0.141964530095257 
2278	 0.142469335383521 
2279	 0.142467374398641 
2280	 0.14266363289432 
2281	 0.143008661416346 
2282	 0.142113882321272 
2283	 0.141811595533306 
2284	 0.141018374751781 
2285	 0.140473320186146 
2286	 0.140525320371732 
2287	 0.141582283210642 
2288	 0.141226861156863 
2289	 0.141139147632989 
2290	 0.141040233896647 
2291	 0.139213963600651 
2292	 0.137976140650778 
2293	 0.1367045019575 
2294	 0.135285046653386 
2295	 0.135499012530782 
2296	 0.135330332978439 
2297	 0.134942959645945 
2298	 0.134649263279097 
2299	 0.134161829154942 
2300	 0.134402249756159 
2301	 0.134871668226512 
2302	 0.135794499182703 
2303	 0.135268396696559 
2304	 0.13330797307039 
2305	 0.131957914713569 
2306	 0.130742742008401 
2307	 0.13017762169444 
2308	 0.130663887821761 
2309	 0.130780009037604 
2310	 0.13020807604966 
2311	 0.129072066526698 
2312	 0.127581054737122 
2313	 0.126739186336893 
2314	 0.126475480609708 
2315	 0.126721372151813 
2316	 0.126847116116839 
2317	 0.127209363820885 
2318	 0.12738102572619 
2319	 0.126561302676592 
2320	 0.12579088588829 
2321	 0.124944834575319 
2322	 0.122858306268029 
2323	 0.122373554586911 
2324	 0.122641467576973 
2325	 0.123595047490583 
2326	 0.124102588836704 
2327	 0.124602229405105 
2328	 0.125018918740031 
2329	 0.124907689490977 
2330	 0.124998591200507 
2331	 0.125503309702365 
2332	 0.124905721603646 
2333	 0.123281911236816 
2334	 0.123002614053379 
2335	 0.122690346985313 
2336	 0.121749632639064 
2337	 0.121675722143427 
2338	 0.120695520497853 
2339	 0.119039654780813 
2340	 0.118915035886548 
2341	 0.118585088879471 
2342	 0.118201042341208 
2343	 0.119211898773527 
2344	 0.118480869167211 
2345	 0.117473989729416 
2346	 0.117670940692491 
2347	 0.11663851233598 
2348	 0.116497010924713 
2349	 0.117124703874347 
2350	 0.117251632608284 
2351	 0.117440080991624 
2352	 0.117210670643694 
2353	 0.117064950558247 
2354	 0.117340478353217 
2355	 0.117959499488647 
2356	 0.117649875255623 
2357	 0.116694284935224 
2358	 0.116391375850158 
2359	 0.115399429490469 
2360	 0.114786987892219 
2361	 0.115194001413092 
2362	 0.114528727288966 
2363	 0.113207198176319 
2364	 0.112574022233162 
2365	 0.112277261114529 
2366	 0.111228677032594 
2367	 0.110697547170714 
2368	 0.110561930261729 
2369	 0.109413545997403 
2370	 0.108109950290007 
2371	 0.107989726048022 
2372	 0.108341781996411 
2373	 0.109120036680241 
2374	 0.109451023495634 
2375	 0.110422650287687 
2376	 0.110953853518159 
2377	 0.111980679511949 
2378	 0.111413936650449 
2379	 0.109158133877426 
2380	 0.108269434445958 
2381	 0.106232410559432 
2382	 0.105481793829538 
2383	 0.107316598075239 
2384	 0.108465633790026 
2385	 0.108936283122502 
2386	 0.10927454439535 
2387	 0.109997403528119 
2388	 0.109817945469173 
2389	 0.109285174785608 
2390	 0.108499304390314 
2391	 0.107055781842864 
2392	 0.10587445397702 
2393	 0.104695815670718 
2394	 0.103570770846396 
2395	 0.101710202838095 
2396	 0.102012278734965 
2397	 0.103170706114172 
2398	 0.103628825854697 
2399	 0.106376235853665 
2400	 0.106180046266203 
2401	 0.103385372480196 
2402	 0.102368455664607 
2403	 0.102262971764183 
2404	 0.103632714711264 
2405	 0.105568628324057 
2406	 0.105903448515619 
2407	 0.104539668936174 
2408	 0.103152902078511 
2409	 0.102624001753482 
2410	 0.102765976195787 
2411	 0.102045743938427 
2412	 9.76823901101207E-02 
2413	 9.49449952010139E-02 
2414	 0.095073070290463 
2415	 0.094944067046354 
2416	 9.74730229293493E-02 
2417	 0.097114939197535 
2418	 9.44668236639118E-02 
2419	 9.43645861912409E-02 
2420	 9.24395190244658E-02 
2421	 9.10690851330678E-02 
2422	 9.22110392362289E-02 
2423	 9.08044857279901E-02 
2424	 8.89555338845582E-02 
2425	 0.090157688051372 
2426	 9.15673378175956E-02 
2427	 9.51926552610348E-02 
2428	 0.101177371733672 
2429	 0.102186987528449 
2430	 9.91765424914959E-02 
2431	 9.30512762252154E-02 
2432	 8.39834588212561E-02 
2433	 8.09427688808675E-02 
2434	 7.90906514787173E-02 
2435	 8.15574339963061E-02 
2436	 8.42979347590787E-02 
2437	 8.94256069043753E-02 
2438	 8.91572553778713E-02 
2439	 8.67881841416025E-02 
2440	 8.53241180363002E-02 
2441	 7.78210823898185E-02 
2442	 7.68491927079817E-02 
2443	 8.26843763021479E-02 
2444	 8.45609955819191E-02 
2445	 8.76000387158839E-02 
2446	 8.88867184282654E-02 
2447	 8.84680741085121E-02 
2448	 8.69416732379027E-02 
2449	 0.082728735736922 
2450	 7.93794445413983E-02 
2451	 0.074389780152515 
2452	 7.17702501903323E-02 
2453	 7.03952720778752E-02 
2454	 7.01082486938395E-02 
2455	 7.16522200641889E-02 
2456	 7.21377150196153E-02 
2457	 7.46085357143431E-02 
2458	 7.68359319107193E-02 
2459	 7.74916220311959E-02 
2460	 7.92010668225568E-02 
2461	 7.94169092767001E-02 
2462	 8.24545441546379E-02 
2463	 0.090395511710215 
2464	 0.094103409553343 
2465	 0.101276063339649 
2466	 0.101801398956628 
2467	 9.00032819503475E-02 
2468	 8.91143641191459E-02 
2469	 9.08646273159434E-02 
2470	 9.11682710263754E-02 
2471	 0.102472238451022 
2472	 0.102376848646236 
2473	 8.89334884174634E-02 
2474	 8.35209795033688E-02 
2475	 7.51418048714284E-02 
2476	 7.22785135340712E-02 
2477	 7.95009354561198E-02 
2478	 7.96446126298859E-02 
2479	 8.04488156817305E-02 
2480	 7.86340596579577E-02 
2481	 6.62822356510826E-02 
2482	 6.60743470527724E-02 
2483	 0.07158615483215 
2484	 7.71381783863041E-02 
2485	 0.101730953464003 
2486	 7.51518638292466E-02 
2487	 6.68731608489989E-02 
2488	 6.27289792262896E-02 
2489	 3.85750606696343E-02 
2490	 5.09197911491395E-02 
2491	 7.90715739615899E-02 
2492	 9.79496058230496E-02 
2493	 0.108142204836849 
2494	 0.11993996300262 
2495	 0.12319312759749 
2496	 8.41038343858921E-02 
2497	 6.12863347349304E-02 
2498	 9.01383549811718E-02 
2499	 6.68795932315457E-02 
2500	 6.36844829859892E-02 
