Wavelength	ref00112.asd
350	 2.82011078713488 
351	 2.82920976592236 
352	 2.89920934456014 
353	 2.78375018100942 
354	 2.79945205599429 
355	 2.83922197362388 
356	 2.79840070155859 
357	 2.73063128728062 
358	 2.75335881115779 
359	 2.76949497249812 
360	 2.6761873813825 
361	 2.63475564774354 
362	 2.63996671713546 
363	 2.65186716109284 
364	 2.61819104075688 
365	 2.59233935077399 
366	 2.56766291008485 
367	 2.54609700735798 
368	 2.55139417138034 
369	 2.52574235914673 
370	 2.50058827852144 
371	 2.49865525022727 
372	 2.4541357142095 
373	 2.40998348109632 
374	 2.38864950567125 
375	 2.39407845769918 
376	 2.37846256267843 
377	 2.34094576039424 
378	 2.30587756512483 
379	 2.31741446893153 
380	 2.28033413844206 
381	 2.23778683082011 
382	 2.23142828080035 
383	 2.22387523194313 
384	 2.20598436967675 
385	 2.18464241993421 
386	 2.17053603935992 
387	 2.14400596528216 
388	 2.10040315844139 
389	 2.06335820509737 
390	 2.07339181554942 
391	 2.04570401464565 
392	 2.02079556131309 
393	 2.02388860088438 
394	 2.00288306531986 
395	 1.97416545981453 
396	 1.9503042610612 
397	 1.9363820794604 
398	 1.90610851735114 
399	 1.89090204606323 
400	 1.8833062387636 
401	 1.84928758876849 
402	 1.84001290561522 
403	 1.83832477733199 
404	 1.82874977130569 
405	 1.81743665288578 
406	 1.80390412967895 
407	 1.7920735160825 
408	 1.78528344721691 
409	 1.77789682955723 
410	 1.77037971655969 
411	 1.76145791683735 
412	 1.74909451393657 
413	 1.74249077823112 
414	 1.7412696717106 
415	 1.74107305560236 
416	 1.73220990316734 
417	 1.72908130619102 
418	 1.72795790883173 
419	 1.72182234677536 
420	 1.7187316436484 
421	 1.71654598379875 
422	 1.7130074353841 
423	 1.70675843660589 
424	 1.70549003761855 
425	 1.70630832176045 
426	 1.70656393421112 
427	 1.70838090194822 
428	 1.70817024456582 
429	 1.70389082695818 
430	 1.69570564086396 
431	 1.69036333953164 
432	 1.68290605121124 
433	 1.67466538684734 
434	 1.67201406156909 
435	 1.66901834486117 
436	 1.66804146689717 
437	 1.66891869031751 
438	 1.66346358264034 
439	 1.65920402569549 
440	 1.65572068593677 
441	 1.65088847373353 
442	 1.64836788018983 
443	 1.64473172445908 
444	 1.64081843493188 
445	 1.64126091642224 
446	 1.64032994225626 
447	 1.63871719856171 
448	 1.63729514144736 
449	 1.63467179546627 
450	 1.62947087507138 
451	 1.6249875451742 
452	 1.62481497513926 
453	 1.62138240860533 
454	 1.61716684469811 
455	 1.61365054473926 
456	 1.61029176185842 
457	 1.60568101435739 
458	 1.59956411159779 
459	 1.59273516089416 
460	 1.58808731015699 
461	 1.58312257357399 
462	 1.57847405426371 
463	 1.57593858956009 
464	 1.57219982842548 
465	 1.56758590186453 
466	 1.56303433218944 
467	 1.55971864996767 
468	 1.55577939041775 
469	 1.55119583949513 
470	 1.54651778940423 
471	 1.5424028827911 
472	 1.53739572308502 
473	 1.5325554185785 
474	 1.53011384182901 
475	 1.52470396432175 
476	 1.52007562684923 
477	 1.51748652370641 
478	 1.5113114151647 
479	 1.5053798745126 
480	 1.50064409375364 
481	 1.49676863035863 
482	 1.49167912431241 
483	 1.48834464715255 
484	 1.48643859344902 
485	 1.482361941537 
486	 1.47770310755727 
487	 1.47252598032515 
488	 1.46740702319145 
489	 1.4649976249755 
490	 1.46023024843437 
491	 1.45506321656601 
492	 1.45355523143535 
493	 1.45288375247638 
494	 1.4524279519179 
495	 1.45153389452577 
496	 1.44939742879315 
497	 1.451649336658 
498	 1.45555671627416 
499	 1.45797741520798 
500	 1.46179605167628 
501	 1.46453529042946 
502	 1.46732260771069 
503	 1.47311373184546 
504	 1.47986016721387 
505	 1.48536446419687 
506	 1.49054430125034 
507	 1.50129956781829 
508	 1.51314085052358 
509	 1.52423540408077 
510	 1.534678496617 
511	 1.54904668194922 
512	 1.56298451628143 
513	 1.57586937078717 
514	 1.59071058584477 
515	 1.6096203842763 
516	 1.63099376749656 
517	 1.65277848158507 
518	 1.67411722541229 
519	 1.69281219872409 
520	 1.71048020846627 
521	 1.72974558691387 
522	 1.74808632362035 
523	 1.76805878428977 
524	 1.79001593360707 
525	 1.81121630074996 
526	 1.83022828461044 
527	 1.84797224168528 
528	 1.86569472770268 
529	 1.88348969819508 
530	 1.89915094227132 
531	 1.91324510182225 
532	 1.92758796808105 
533	 1.93868022237012 
534	 1.949913957324 
535	 1.96224631342409 
536	 1.97164997462298 
537	 1.97771407920912 
538	 1.98373153808941 
539	 1.99259302421286 
540	 1.99968658672612 
541	 2.00486901369331 
542	 2.00867808965107 
543	 2.01205173349932 
544	 2.01487553109303 
545	 2.01717420855502 
546	 2.01929767862813 
547	 2.02245480424863 
548	 2.02493032889214 
549	 2.0264027668936 
550	 2.02692021049881 
551	 2.02499216864026 
552	 2.02141151844664 
553	 2.01712552185142 
554	 2.01301629056285 
555	 2.00360739587031 
556	 1.99311109772153 
557	 1.98511281871697 
558	 1.97334342896813 
559	 1.9606762105066 
560	 1.94788166664565 
561	 1.93444898778899 
562	 1.92265209597154 
563	 1.90923003299735 
564	 1.89346610184769 
565	 1.88032278347862 
566	 1.86643079058476 
567	 1.85051392326154 
568	 1.83268522680844 
569	 1.81614929146725 
570	 1.79917655656502 
571	 1.7813577002696 
572	 1.76366947805753 
573	 1.74706798477047 
574	 1.73050738099038 
575	 1.71336950856545 
576	 1.69731842286873 
577	 1.68218081658812 
578	 1.66808393825306 
579	 1.65514828005718 
580	 1.6435359189909 
581	 1.63140440203901 
582	 1.61851567306114 
583	 1.60686551385208 
584	 1.59520263842122 
585	 1.5832663431591 
586	 1.57141735903271 
587	 1.56105830114711 
588	 1.5515780455308 
589	 1.54286130327943 
590	 1.53525331434665 
591	 1.52816937664729 
592	 1.52251885973917 
593	 1.51775455177347 
594	 1.51073580203975 
595	 1.50450415516504 
596	 1.49842626895688 
597	 1.49094760097205 
598	 1.48242356676664 
599	 1.47402418149228 
600	 1.46639154141708 
601	 1.45955507950235 
602	 1.45190418468991 
603	 1.44347631509337 
604	 1.4346990039762 
605	 1.42605781637868 
606	 1.41569082772711 
607	 1.40447140284855 
608	 1.39415705112686 
609	 1.38183767117271 
610	 1.36915187297249 
611	 1.35699872276446 
612	 1.3445680987087 
613	 1.33317874590715 
614	 1.32230033179987 
615	 1.31118428346206 
616	 1.299944761744 
617	 1.28967258378129 
618	 1.28041887507354 
619	 1.27131096428829 
620	 1.2622151268259 
621	 1.25395907553514 
622	 1.24691893219104 
623	 1.24040621459579 
624	 1.23444618038568 
625	 1.22849074922865 
626	 1.22234592719799 
627	 1.21833436751829 
628	 1.21426877269973 
629	 1.20966430823129 
630	 1.20586890378493 
631	 1.20266121585266 
632	 1.19886642709069 
633	 1.19405138874465 
634	 1.19004792287459 
635	 1.18606658584999 
636	 1.18145484685648 
637	 1.17585385705566 
638	 1.17047299915822 
639	 1.16467856461209 
640	 1.15801310158444 
641	 1.15061658664084 
642	 1.14363023640148 
643	 1.13574949361961 
644	 1.12612751064549 
645	 1.11770385513974 
646	 1.10851054031992 
647	 1.09878569179861 
648	 1.0900703732531 
649	 1.08213003512042 
650	 1.07418647570305 
651	 1.06583354433243 
652	 1.05694326143727 
653	 1.04830782750933 
654	 1.04018557392609 
655	 1.0320350355899 
656	 1.02201056009461 
657	 1.01017514656471 
658	 0.998027272757279 
659	 0.985708042912599 
660	 0.972432430605043 
661	 0.958780893502258 
662	 0.945522400528881 
663	 0.932359215833612 
664	 0.920200901170514 
665	 0.908548297329132 
666	 0.896723060760875 
667	 0.886115436851242 
668	 0.877432159644718 
669	 0.870438278572523 
670	 0.863950040531863 
671	 0.857721375730333 
672	 0.852532400204428 
673	 0.848612451495251 
674	 0.844110436034472 
675	 0.841264391564088 
676	 0.839024352815769 
677	 0.835782823744063 
678	 0.834363344031553 
679	 0.834327957023184 
680	 0.83491294153358 
681	 0.835400184037614 
682	 0.839507757421483 
683	 0.845513815597313 
684	 0.852097771999588 
685	 0.861797616892784 
686	 0.875602715392351 
687	 0.893451529280941 
688	 0.91286065943151 
689	 0.933753195493488 
690	 0.955474682700025 
691	 0.979408816695911 
692	 1.00726037864886 
693	 1.03729092343504 
694	 1.07041817621553 
695	 1.10714509327168 
696	 1.14604285111276 
697	 1.18709724885918 
698	 1.22984749801726 
699	 1.27353268083254 
700	 1.31939029437719 
701	 1.36557579538322 
702	 1.41170381657235 
703	 1.45943983729389 
704	 1.50677280944015 
705	 1.55368109614709 
706	 1.60061690662036 
707	 1.64663039182942 
708	 1.69375463224741 
709	 1.74153101928495 
710	 1.78820988827155 
711	 1.83532487731281 
712	 1.8824133043644 
713	 1.9295011943366 
714	 1.97744814721489 
715	 2.0228854656313 
716	 2.06644097773892 
717	 2.11083725531318 
718	 2.15708737697561 
719	 2.20777903770655 
720	 2.26010947979588 
721	 2.30949810020765 
722	 2.35644499497589 
723	 2.40168910515057 
724	 2.44738044752673 
725	 2.49211903318633 
726	 2.53624367255118 
727	 2.57881187472508 
728	 2.62036772128451 
729	 2.66212145259167 
730	 2.70185253294267 
731	 2.74006322385561 
732	 2.77815883263895 
733	 2.81461987783706 
734	 2.84722748436007 
735	 2.87660556362963 
736	 2.9050816564273 
737	 2.93228305537244 
738	 2.95697389415883 
739	 2.97941558726331 
740	 3.00232956427819 
741	 3.02309735498313 
742	 3.0413756343562 
743	 3.05739729757578 
744	 3.07093324447031 
745	 3.08319276816312 
746	 3.09479906292919 
747	 3.10568690504846 
748	 3.11424040767855 
749	 3.12105384007135 
750	 3.12671587947032 
751	 3.13124480842042 
752	 3.13488937641482 
753	 3.13825128493855 
754	 3.14114846127591 
755	 3.14032895138249 
756	 3.139558496186 
757	 3.1385335966299 
758	 3.13561453566888 
759	 3.14132574999026 
760	 3.14979798585217 
761	 3.15236365643614 
762	 3.14497655954587 
763	 3.14056813007439 
764	 3.13528852259346 
765	 3.12715570449796 
766	 3.12361839433615 
767	 3.11699195404574 
768	 3.10975623902257 
769	 3.10559893863341 
770	 3.10023200295788 
771	 3.09463626276771 
772	 3.08976900383803 
773	 3.08600213579482 
774	 3.07933788919931 
775	 3.07354033535205 
776	 3.07003169419959 
777	 3.0643718070497 
778	 3.05813721307605 
779	 3.05247632258582 
780	 3.047987793151 
781	 3.04349058156933 
782	 3.03929156429956 
783	 3.03505746614478 
784	 3.03008425104736 
785	 3.02355921208082 
786	 3.01729340953199 
787	 3.01170853224766 
788	 3.00558048425438 
789	 2.99865458030813 
790	 2.99318000832667 
791	 2.98961714852591 
792	 2.9838210755085 
793	 2.97887771715969 
794	 2.97432219663843 
795	 2.96883588248187 
796	 2.96207389105295 
797	 2.95725866248254 
798	 2.95351763765216 
799	 2.94800911509381 
800	 2.94310617411699 
801	 2.93776273361178 
802	 2.93208316525627 
803	 2.92762398469942 
804	 2.92382160212855 
805	 2.91893596013377 
806	 2.91293067294058 
807	 2.9096990617802 
808	 2.90440249922241 
809	 2.89848381081133 
810	 2.89388002066753 
811	 2.88627408477132 
812	 2.87835220889632 
813	 2.87067571065503 
814	 2.86272000896218 
815	 2.85567755504956 
816	 2.84934553473707 
817	 2.84339912992047 
818	 2.83764666192648 
819	 2.8347895232138 
820	 2.83328656003041 
821	 2.83121318633235 
822	 2.82731698416848 
823	 2.82363639447892 
824	 2.81910123363194 
825	 2.81345846861796 
826	 2.81071242545804 
827	 2.80816658910522 
828	 2.80533892911088 
829	 2.80220915391738 
830	 2.79543781095355 
831	 2.7914115504847 
832	 2.79001169033095 
833	 2.78649164083331 
834	 2.78368472529857 
835	 2.78102713128724 
836	 2.77830450268131 
837	 2.77607226165983 
838	 2.77383773439723 
839	 2.77051571155171 
840	 2.76594599476564 
841	 2.76179078271938 
842	 2.7596155130623 
843	 2.75732345734919 
844	 2.75305396151408 
845	 2.74948206630646 
846	 2.74584175056565 
847	 2.74268958761615 
848	 2.74046476795805 
849	 2.73631087913708 
850	 2.73122292100843 
851	 2.72676068744759 
852	 2.72445085264755 
853	 2.72405127863859 
854	 2.72140103614949 
855	 2.71506032860758 
856	 2.70761983764798 
857	 2.70514353216814 
858	 2.70242686368288 
859	 2.69753535525925 
860	 2.69657826979219 
861	 2.69174190708978 
862	 2.68739881733048 
863	 2.68734139341796 
864	 2.68638408848555 
865	 2.68354810338419 
866	 2.68024899086341 
867	 2.67758886901394 
868	 2.67125467681882 
869	 2.66571764840805 
870	 2.66266361317806 
871	 2.66125391896781 
872	 2.6566459103554 
873	 2.65375142386593 
874	 2.65156572634756 
875	 2.64568463999379 
876	 2.64180828250658 
877	 2.63906328427314 
878	 2.63594544760868 
879	 2.63132581824425 
880	 2.62776195600345 
881	 2.62409004661561 
882	 2.6202088506107 
883	 2.61798706673794 
884	 2.61463187211484 
885	 2.61140731678995 
886	 2.6089899190345 
887	 2.60558486865128 
888	 2.60024581827212 
889	 2.59543792889901 
890	 2.59258119262119 
891	 2.58847443744786 
892	 2.58137279573003 
893	 2.57434050372271 
894	 2.5700056465867 
895	 2.5630237412073 
896	 2.55952915758255 
897	 2.55628416920553 
898	 2.54873444748364 
899	 2.54610797152735 
900	 2.54308913988248 
901	 2.53815325457788 
902	 2.53305631018527 
903	 2.53365179411739 
904	 2.5295540559957 
905	 2.52277884789758 
906	 2.52207689252271 
907	 2.52381666670441 
908	 2.51677069940946 
909	 2.5058683972278 
910	 2.50687263311319 
911	 2.50373018022104 
912	 2.49872336465919 
913	 2.49332605818728 
914	 2.48702990654048 
915	 2.48627464871281 
916	 2.48364582980747 
917	 2.4791372234881 
918	 2.48147987861843 
919	 2.47807785221931 
920	 2.4749760238089 
921	 2.47399146570942 
922	 2.46869831422567 
923	 2.46753842023951 
924	 2.46479843994744 
925	 2.45775614898362 
926	 2.45193703665834 
927	 2.44237610737018 
928	 2.43486128327599 
929	 2.43153000506328 
930	 2.42347275470253 
931	 2.42018530541734 
932	 2.41146088412594 
933	 2.39411218305188 
934	 2.39125002446122 
935	 2.38591627148046 
936	 2.37290904716603 
937	 2.3584399245933 
938	 2.36050815442533 
939	 2.35862678187552 
940	 2.35859787018195 
941	 2.36405409988135 
942	 2.36353398393996 
943	 2.36158525603313 
944	 2.36211249667455 
945	 2.3625365435193 
946	 2.34728468914088 
947	 2.33723306822078 
948	 2.3311847193174 
949	 2.32598935429797 
950	 2.32682477217956 
951	 2.32937013757789 
952	 2.32706782573216 
953	 2.31825080834611 
954	 2.3113303025915 
955	 2.31136804323234 
956	 2.3141585345075 
957	 2.31303442770514 
958	 2.30270391125435 
959	 2.29837627602531 
960	 2.30144895383444 
961	 2.30599761162262 
962	 2.30094570221085 
963	 2.30834818234692 
964	 2.30894726154942 
965	 2.2972890988035 
966	 2.30401802628128 
967	 2.30623006414931 
968	 2.30300784562766 
969	 2.29825966926483 
970	 2.29573435027856 
971	 2.30024393964441 
972	 2.30083573864624 
973	 2.29508196097163 
974	 2.29625787043163 
975	 2.29436261394774 
976	 2.28934151460814 
977	 2.28526014324572 
978	 2.28753357240442 
979	 2.28494260898605 
980	 2.28420467880761 
981	 2.28727386090211 
982	 2.28761337739701 
983	 2.27803424049036 
984	 2.27636865925826 
985	 2.28268686883734 
986	 2.2807240950649 
987	 2.2857743040318 
988	 2.28049588666825 
989	 2.2689840471596 
990	 2.27043710182063 
991	 2.27470663010396 
992	 2.27958788864799 
993	 2.28310746923178 
994	 2.2837705244461 
995	 2.28226807943173 
996	 2.27711632249276 
997	 2.27424232417228 
998	 2.27786055857317 
999	 2.27143749527918 
1000	 2.26540438393126 
1001	 2.31946089551091 
1002	 2.31933879074351 
1003	 2.31865727818966 
1004	 2.31790457136033 
1005	 2.31714832240874 
1006	 2.31633648044686 
1007	 2.31565160848848 
1008	 2.31511005582963 
1009	 2.3140756988456 
1010	 2.31320602459396 
1011	 2.31180962139985 
1012	 2.30923342682208 
1013	 2.30813304570535 
1014	 2.30699995281073 
1015	 2.30590427750836 
1016	 2.30568771314759 
1017	 2.30450797331872 
1018	 2.30363521577785 
1019	 2.30295829949308 
1020	 2.30226998466992 
1021	 2.30181712384313 
1022	 2.30087839235158 
1023	 2.30002454198846 
1024	 2.29813417297865 
1025	 2.29656655880351 
1026	 2.29492770829763 
1027	 2.29360460241168 
1028	 2.2932054953339 
1029	 2.29166532125992 
1030	 2.29026058916966 
1031	 2.28941929061929 
1032	 2.28771871420127 
1033	 2.28615007606653 
1034	 2.2848112017905 
1035	 2.28312863842161 
1036	 2.28086680854098 
1037	 2.27899314275714 
1038	 2.27720375869155 
1039	 2.27547884123478 
1040	 2.27352541697022 
1041	 2.27175742837938 
1042	 2.27000950413998 
1043	 2.26887022653123 
1044	 2.26827884143908 
1045	 2.2673108879766 
1046	 2.26563121783846 
1047	 2.26330782415677 
1048	 2.26111810611897 
1049	 2.26027732271571 
1050	 2.25939616781706 
1051	 2.25951719491955 
1052	 2.25855038916466 
1053	 2.25730209221061 
1054	 2.25618742715258 
1055	 2.25468123094912 
1056	 2.2539411882765 
1057	 2.25312305403572 
1058	 2.25213857166559 
1059	 2.25162306403096 
1060	 2.25041408363882 
1061	 2.24964072991069 
1062	 2.24874592579679 
1063	 2.24741421480809 
1064	 2.24751148810803 
1065	 2.24684593634421 
1066	 2.24629259220161 
1067	 2.24513991245024 
1068	 2.24440100410732 
1069	 2.24289338009559 
1070	 2.24230264745838 
1071	 2.2427443062772 
1072	 2.2417594340361 
1073	 2.24071356159428 
1074	 2.24011197896064 
1075	 2.23793493971748 
1076	 2.23546389356023 
1077	 2.23415075832199 
1078	 2.23273603530447 
1079	 2.23169560795376 
1080	 2.23154635968739 
1081	 2.23044300731558 
1082	 2.2287929745918 
1083	 2.22639532119111 
1084	 2.22475742955631 
1085	 2.22346579331158 
1086	 2.22185427467158 
1087	 2.22072350799763 
1088	 2.21977479871154 
1089	 2.21722031862031 
1090	 2.21448572660254 
1091	 2.21261064655858 
1092	 2.21019090942696 
1093	 2.20767994803351 
1094	 2.20536141308112 
1095	 2.20285601947152 
1096	 2.20050364826517 
1097	 2.19827086299499 
1098	 2.19550149598349 
1099	 2.19278083399601 
1100	 2.18962722292088 
1101	 2.18604160306179 
1102	 2.18262835416051 
1103	 2.1798894363176 
1104	 2.17700258817861 
1105	 2.17357948127738 
1106	 2.17004006453298 
1107	 2.16623432064604 
1108	 2.16222621178555 
1109	 2.15820605365946 
1110	 2.15366765727676 
1111	 2.14833272498103 
1112	 2.14140734967703 
1113	 2.13533459300911 
1114	 2.12892773636372 
1115	 2.12199624060537 
1116	 2.11501900513252 
1117	 2.10796688763055 
1118	 2.0997404898087 
1119	 2.09003817394827 
1120	 2.08094079777063 
1121	 2.07323654822601 
1122	 2.06618326921074 
1123	 2.06086015432509 
1124	 2.05591275175245 
1125	 2.05116482079544 
1126	 2.04814085584308 
1127	 2.04682333340762 
1128	 2.04434936062381 
1129	 2.04341044982327 
1130	 2.04151957426903 
1131	 2.03850422918146 
1132	 2.03646410071623 
1133	 2.03517833520228 
1134	 2.03328745536283 
1135	 2.03159337839019 
1136	 2.02794964587684 
1137	 2.02463993864547 
1138	 2.02108017727956 
1139	 2.01614598065497 
1140	 2.01131616518567 
1141	 2.00478328397266 
1142	 1.9983927411701 
1143	 1.99214563795985 
1144	 1.98527617179534 
1145	 1.97901714745089 
1146	 1.97330408230691 
1147	 1.96730942799694 
1148	 1.96058006232481 
1149	 1.95611273959425 
1150	 1.95320256369329 
1151	 1.94992674893031 
1152	 1.94742057948376 
1153	 1.94584567883424 
1154	 1.94399328678403 
1155	 1.94206778731065 
1156	 1.94139379982861 
1157	 1.94122940862116 
1158	 1.94105275625013 
1159	 1.94023852578206 
1160	 1.93946254277124 
1161	 1.93864073536165 
1162	 1.93793025207698 
1163	 1.93727485775096 
1164	 1.93631106485726 
1165	 1.93529964126938 
1166	 1.93399696057523 
1167	 1.93199818244601 
1168	 1.93058731947798 
1169	 1.92940441468643 
1170	 1.92827986973624 
1171	 1.92697314932181 
1172	 1.92567306424735 
1173	 1.92436918421346 
1174	 1.92306908171088 
1175	 1.92149812410296 
1176	 1.91969884256849 
1177	 1.91784343366766 
1178	 1.9155958196757 
1179	 1.91330437527514 
1180	 1.91081160738516 
1181	 1.90879917556069 
1182	 1.90661805342594 
1183	 1.90482705727027 
1184	 1.90356446455571 
1185	 1.90227622011091 
1186	 1.90121594928232 
1187	 1.89999546161161 
1188	 1.89875406076976 
1189	 1.89791580020203 
1190	 1.89646400186912 
1191	 1.89494093707232 
1192	 1.89395685423766 
1193	 1.89290500023852 
1194	 1.89193350643501 
1195	 1.89134523765072 
1196	 1.89029763615946 
1197	 1.88873661202922 
1198	 1.88782782319448 
1199	 1.88708350286958 
1200	 1.88639178227463 
1201	 1.88612961195452 
1202	 1.88572913380447 
1203	 1.88513354895914 
1204	 1.88470689345166 
1205	 1.8843710812128 
1206	 1.8841943587573 
1207	 1.88435532144829 
1208	 1.88428614170933 
1209	 1.88426886850909 
1210	 1.88396837735697 
1211	 1.88408852923499 
1212	 1.88417784665567 
1213	 1.88442444439585 
1214	 1.88503373645807 
1215	 1.88560172638511 
1216	 1.88595176758847 
1217	 1.88677424279958 
1218	 1.8882621872266 
1219	 1.88902726682867 
1220	 1.8896935290615 
1221	 1.89030998207693 
1222	 1.89039106650117 
1223	 1.89087216664761 
1224	 1.89194839308792 
1225	 1.89234599515237 
1226	 1.89227678308456 
1227	 1.89246440471628 
1228	 1.89250709428273 
1229	 1.89228406868831 
1230	 1.89280093556573 
1231	 1.89365133534728 
1232	 1.89419254741433 
1233	 1.8950223597813 
1234	 1.89519675573385 
1235	 1.89487354868126 
1236	 1.8948626391033 
1237	 1.89455720760844 
1238	 1.8944932624853 
1239	 1.89482807545354 
1240	 1.89481753298771 
1241	 1.89462042244576 
1242	 1.89448513189076 
1243	 1.89428405585649 
1244	 1.89403743001388 
1245	 1.89377215346055 
1246	 1.89351485338076 
1247	 1.89315907835539 
1248	 1.89286970527512 
1249	 1.89272177210143 
1250	 1.89240980676103 
1251	 1.89206284411699 
1252	 1.89167190666946 
1253	 1.89106603104777 
1254	 1.89024705998589 
1255	 1.88947557881438 
1256	 1.8886423577109 
1257	 1.8876193927156 
1258	 1.88641521502304 
1259	 1.8853362983862 
1260	 1.88405801854575 
1261	 1.88295570000354 
1262	 1.88214085731001 
1263	 1.88106052263649 
1264	 1.87973153242445 
1265	 1.87867980208778 
1266	 1.87764272554187 
1267	 1.87671330044876 
1268	 1.87619518003557 
1269	 1.87539872931954 
1270	 1.87453161148659 
1271	 1.87361273750597 
1272	 1.87242513163943 
1273	 1.87147844654432 
1274	 1.87054574992107 
1275	 1.8696420915974 
1276	 1.8687825946004 
1277	 1.86804820901245 
1278	 1.86720955365329 
1279	 1.86630441607829 
1280	 1.86549669556768 
1281	 1.86475127757329 
1282	 1.86391688457963 
1283	 1.8631066327943 
1284	 1.86225359636194 
1285	 1.86133513614384 
1286	 1.86039614713461 
1287	 1.85967045725948 
1288	 1.85850983721219 
1289	 1.85706919932582 
1290	 1.85560176554733 
1291	 1.85361916694552 
1292	 1.85202788084506 
1293	 1.85094643405578 
1294	 1.84933148311928 
1295	 1.84788997732355 
1296	 1.84585558406842 
1297	 1.84347437493086 
1298	 1.84037542830726 
1299	 1.83766252700382 
1300	 1.83473346386953 
1301	 1.83195941430335 
1302	 1.82939720643459 
1303	 1.82642404650326 
1304	 1.82332868800665 
1305	 1.82001572114497 
1306	 1.81626871329234 
1307	 1.81277199604279 
1308	 1.80950692570467 
1309	 1.80567477749728 
1310	 1.80157347088875 
1311	 1.79744676375878 
1312	 1.79291054100651 
1313	 1.78837541967681 
1314	 1.78402504777466 
1315	 1.77939138384254 
1316	 1.77439704027297 
1317	 1.76940366328107 
1318	 1.76435985606041 
1319	 1.75917316438755 
1320	 1.75372328585462 
1321	 1.74840702925965 
1322	 1.74268213803371 
1323	 1.73658586590685 
1324	 1.73054272081078 
1325	 1.72425996104837 
1326	 1.71774531782611 
1327	 1.71114018976953 
1328	 1.70401425401506 
1329	 1.69600487556657 
1330	 1.68868505811004 
1331	 1.68138926605666 
1332	 1.67414192434843 
1333	 1.6673495495451 
1334	 1.66049209296909 
1335	 1.65336654306398 
1336	 1.64677154195414 
1337	 1.64050266183827 
1338	 1.63425657932592 
1339	 1.62807881463014 
1340	 1.62175731008102 
1341	 1.61481165070513 
1342	 1.60800332133123 
1343	 1.60021213662318 
1344	 1.59252543112852 
1345	 1.58470053510522 
1346	 1.57510426035544 
1347	 1.56526398329144 
1348	 1.55545635959252 
1349	 1.54409823223575 
1350	 1.53104634208802 
1351	 1.5171555245093 
1352	 1.50189092671619 
1353	 1.48469200000606 
1354	 1.46965842778428 
1355	 1.44997918939062 
1356	 1.43830773012693 
1357	 1.41499173363789 
1358	 1.40299962119318 
1359	 1.37160454418154 
1360	 1.32905894198926 
1361	 1.28345669920957 
1362	 1.27858196386 
1363	 1.24479219402026 
1364	 1.26195856377589 
1365	 1.25071377416921 
1366	 1.23019027563764 
1367	 1.20707420829164 
1368	 1.18699396656791 
1369	 1.17434507474601 
1370	 1.16509115529381 
1371	 1.15659677218487 
1372	 1.15138045287072 
1373	 1.14590423872461 
1374	 1.14330574152951 
1375	 1.13037664387737 
1376	 1.11507162564037 
1377	 1.11905736296353 
1378	 1.11341172303235 
1379	 1.10886020209678 
1380	 1.09434278483291 
1381	 1.07567056430873 
1382	 1.05626974966931 
1383	 1.02965270426022 
1384	 1.01299379217077 
1385	 1.00495221090384 
1386	 0.987032137778495 
1387	 0.966469593611249 
1388	 0.954673320669775 
1389	 0.943693240006073 
1390	 0.935579716092127 
1391	 0.934723550121313 
1392	 0.927305445111607 
1393	 0.918461280203061 
1394	 0.90640941484826 
1395	 0.890249857811404 
1396	 0.878343241628665 
1397	 0.865798499306582 
1398	 0.853147737325817 
1399	 0.842747618589583 
1400	 0.831891893232126 
1401	 0.819228019160511 
1402	 0.807907999241115 
1403	 0.797770447488942 
1404	 0.789506974002715 
1405	 0.782796169254943 
1406	 0.77702885447167 
1407	 0.770506855820993 
1408	 0.76428410842105 
1409	 0.758075950379929 
1410	 0.752045934583301 
1411	 0.748004179253023 
1412	 0.745579837128427 
1413	 0.742955661617089 
1414	 0.740887562509448 
1415	 0.738643021067048 
1416	 0.736467947382541 
1417	 0.734792623741951 
1418	 0.732970735038463 
1419	 0.73160800639926 
1420	 0.731014582180438 
1421	 0.729939336663681 
1422	 0.728971117834328 
1423	 0.727612109703076 
1424	 0.725786889077207 
1425	 0.724350268152701 
1426	 0.722225831975545 
1427	 0.721441386240568 
1428	 0.722332779954363 
1429	 0.721393063970692 
1430	 0.719894188081924 
1431	 0.718745065756469 
1432	 0.716603806278471 
1433	 0.714942044430647 
1434	 0.713762914073587 
1435	 0.712948233779053 
1436	 0.71231844101486 
1437	 0.711517392023545 
1438	 0.710842648769951 
1439	 0.710658327697319 
1440	 0.710259035400124 
1441	 0.710210758582707 
1442	 0.710627779176586 
1443	 0.711600467078708 
1444	 0.712213403796786 
1445	 0.712538312338231 
1446	 0.713722688813751 
1447	 0.715253095908373 
1448	 0.716286599034948 
1449	 0.7174317710138 
1450	 0.718577567764211 
1451	 0.719107993600903 
1452	 0.720550804753388 
1453	 0.722734332722281 
1454	 0.724122006125153 
1455	 0.725808450925347 
1456	 0.726638656936037 
1457	 0.726771268021874 
1458	 0.727164176563083 
1459	 0.72744683706716 
1460	 0.727595922573938 
1461	 0.727668054708883 
1462	 0.727791791896833 
1463	 0.727399509217518 
1464	 0.72776626881649 
1465	 0.728739732737813 
1466	 0.729586445117091 
1467	 0.730316049550119 
1468	 0.7320840110618 
1469	 0.734306286432221 
1470	 0.736724898138619 
1471	 0.740288503663912 
1472	 0.743141137542276 
1473	 0.744919623894815 
1474	 0.747769838580092 
1475	 0.750867410141769 
1476	 0.754250959824014 
1477	 0.758239621750031 
1478	 0.762140536593045 
1479	 0.766045179174091 
1480	 0.769928959095944 
1481	 0.773482151307983 
1482	 0.777723070477265 
1483	 0.78263085599325 
1484	 0.786903030872863 
1485	 0.79111710794534 
1486	 0.795385099352383 
1487	 0.799207815366371 
1488	 0.802899623688627 
1489	 0.807096501979153 
1490	 0.811224757673961 
1491	 0.815950976782356 
1492	 0.820734281639321 
1493	 0.825051469918755 
1494	 0.829190365729323 
1495	 0.833049793336056 
1496	 0.836108088251493 
1497	 0.840107675913613 
1498	 0.844692899771765 
1499	 0.84881088641573 
1500	 0.853115991988801 
1501	 0.857116755617895 
1502	 0.860782895468212 
1503	 0.864747240387457 
1504	 0.868900896879742 
1505	 0.872749295190769 
1506	 0.876507335603846 
1507	 0.88022911500058 
1508	 0.883607277350409 
1509	 0.887383097277525 
1510	 0.891359138969012 
1511	 0.895318413397938 
1512	 0.899572448214916 
1513	 0.903409959800952 
1514	 0.907067159695183 
1515	 0.910833923971452 
1516	 0.914402750183637 
1517	 0.918208036183823 
1518	 0.922368521718534 
1519	 0.926194098901177 
1520	 0.929890460132082 
1521	 0.933639725600836 
1522	 0.937319335137754 
1523	 0.940954659977049 
1524	 0.944667211860504 
1525	 0.948294183881366 
1526	 0.951713504889717 
1527	 0.955301389520242 
1528	 0.959004783739175 
1529	 0.962642575590411 
1530	 0.966385931878386 
1531	 0.970003131724812 
1532	 0.973642928079893 
1533	 0.977058164032088 
1534	 0.980042590089285 
1535	 0.983507831668641 
1536	 0.98731417266241 
1537	 0.990720453925601 
1538	 0.994266219731326 
1539	 0.99765051289795 
1540	 1.00044826486731 
1541	 1.00354997337559 
1542	 1.00707791116652 
1543	 1.0102193812831 
1544	 1.0130222710997 
1545	 1.01610311300577 
1546	 1.01913215649095 
1547	 1.02220890380234 
1548	 1.02571908101014 
1549	 1.02884960080911 
1550	 1.0314412781463 
1551	 1.03452130742114 
1552	 1.03803698364387 
1553	 1.04106973575816 
1554	 1.04409489101042 
1555	 1.04709119744728 
1556	 1.04957596263285 
1557	 1.05220177496496 
1558	 1.05517184772333 
1559	 1.05794065665983 
1560	 1.06036234232755 
1561	 1.06301844721525 
1562	 1.06586857484083 
1563	 1.06859243272336 
1564	 1.07124918363798 
1565	 1.07426193479241 
1566	 1.07692307795737 
1567	 1.07902709657325 
1568	 1.081356685692 
1569	 1.08337605407201 
1570	 1.08614204135495 
1571	 1.08928020235605 
1572	 1.09208327939439 
1573	 1.09526337102617 
1574	 1.09786424034686 
1575	 1.09992565433799 
1576	 1.10225070182703 
1577	 1.10451884213013 
1578	 1.10682733117099 
1579	 1.10903044964548 
1580	 1.11141616531903 
1581	 1.11401012750825 
1582	 1.11618837980855 
1583	 1.1182536012944 
1584	 1.1203571012639 
1585	 1.12218022078479 
1586	 1.12429111066587 
1587	 1.12671631461713 
1588	 1.12872661234761 
1589	 1.13050829699468 
1590	 1.13259018834894 
1591	 1.1347292982245 
1592	 1.1366152186347 
1593	 1.1386681592686 
1594	 1.14040291230062 
1595	 1.14161320105371 
1596	 1.14334481053694 
1597	 1.14517621795074 
1598	 1.14722328233726 
1599	 1.14972625337015 
1600	 1.15158751482388 
1601	 1.15337655368836 
1602	 1.15501859388243 
1603	 1.15597469619775 
1604	 1.15784072787968 
1605	 1.16022686401412 
1606	 1.1622017083369 
1607	 1.16459459750218 
1608	 1.16613748032264 
1609	 1.1668646565681 
1610	 1.16833911054318 
1611	 1.16963244603896 
1612	 1.17142115297921 
1613	 1.17403503649247 
1614	 1.1756719708794 
1615	 1.17690521114336 
1616	 1.1785326833122 
1617	 1.18000629287925 
1618	 1.18131645210595 
1619	 1.18282585723074 
1620	 1.18426989297894 
1621	 1.1853141866539 
1622	 1.18660539504461 
1623	 1.18836552562509 
1624	 1.18951377984883 
1625	 1.19008628470096 
1626	 1.1913223737786 
1627	 1.19287480066483 
1628	 1.19397035925762 
1629	 1.19527388280029 
1630	 1.19610073693584 
1631	 1.19623235022778 
1632	 1.19679553423075 
1633	 1.19748206011883 
1634	 1.19814201688205 
1635	 1.19879925107194 
1636	 1.19951131899068 
1637	 1.20020972501011 
1638	 1.20106403723337 
1639	 1.20205395704032 
1640	 1.20302306654668 
1641	 1.20415183408073 
1642	 1.20496577649228 
1643	 1.20580288311294 
1644	 1.20611062394127 
1645	 1.20584503383328 
1646	 1.20623810905361 
1647	 1.20662712985674 
1648	 1.20691274564517 
1649	 1.20747255373916 
1650	 1.20796652624296 
1651	 1.20827750954604 
1652	 1.20851982657905 
1653	 1.20903505513154 
1654	 1.20914416984469 
1655	 1.20873075333285 
1656	 1.20863882202007 
1657	 1.20878972301968 
1658	 1.20803446460036 
1659	 1.20743792068978 
1660	 1.20762916645996 
1661	 1.20771369478245 
1662	 1.20761011628844 
1663	 1.2076026301773 
1664	 1.20691497459715 
1665	 1.20596737713113 
1666	 1.20568087413292 
1667	 1.20552253161733 
1668	 1.20501860372297 
1669	 1.20492816913341 
1670	 1.20502533726937 
1671	 1.20459679466652 
1672	 1.20417815561726 
1673	 1.20344948051262 
1674	 1.20255802413515 
1675	 1.20222240419279 
1676	 1.2015853818767 
1677	 1.20096483465144 
1678	 1.20052874603664 
1679	 1.19934872751206 
1680	 1.19826742190919 
1681	 1.19741057224921 
1682	 1.19591334770085 
1683	 1.19479025379632 
1684	 1.19408187638345 
1685	 1.19308308855057 
1686	 1.1926220816556 
1687	 1.19172244287773 
1688	 1.19010293362622 
1689	 1.18865592554884 
1690	 1.18676617655703 
1691	 1.18528052073537 
1692	 1.18444998227933 
1693	 1.18309750960797 
1694	 1.18148913676147 
1695	 1.17980490739726 
1696	 1.17744363242296 
1697	 1.17577507388053 
1698	 1.17475262632131 
1699	 1.1733930899985 
1700	 1.17251794134393 
1701	 1.17105063387763 
1702	 1.16881536245258 
1703	 1.16690476343972 
1704	 1.16464917573591 
1705	 1.16288961269881 
1706	 1.16187566813856 
1707	 1.16017843400992 
1708	 1.15814690347386 
1709	 1.15659899620254 
1710	 1.15478984546301 
1711	 1.15311065018767 
1712	 1.15230024272395 
1713	 1.15068985117111 
1714	 1.14845272550137 
1715	 1.14659732051725 
1716	 1.14439329051761 
1717	 1.14275090892304 
1718	 1.14132803242434 
1719	 1.14006287153016 
1720	 1.1394637102575 
1721	 1.13852764927498 
1722	 1.13737773004046 
1723	 1.13659870196658 
1724	 1.1361535545559 
1725	 1.13495842701112 
1726	 1.13381947116283 
1727	 1.13239556473285 
1728	 1.12996772503626 
1729	 1.12843677992744 
1730	 1.12727736166316 
1731	 1.12612358344568 
1732	 1.12541105266852 
1733	 1.12409986282626 
1734	 1.12272532327508 
1735	 1.12086527136048 
1736	 1.11843949418502 
1737	 1.11651154672939 
1738	 1.11520933724129 
1739	 1.11422896689134 
1740	 1.11279740308753 
1741	 1.11110718631779 
1742	 1.10919103503728 
1743	 1.10728798564419 
1744	 1.10571059695597 
1745	 1.10410925837081 
1746	 1.10173604764273 
1747	 1.09821197097123 
1748	 1.09553098112399 
1749	 1.09326295727755 
1750	 1.09163366760578 
1751	 1.09117738337318 
1752	 1.08956650179519 
1753	 1.0876423516782 
1754	 1.08534518237208 
1755	 1.08238701797051 
1756	 1.0799224965671 
1757	 1.07687917184563 
1758	 1.07420607106614 
1759	 1.07165957154438 
1760	 1.06950716705247 
1761	 1.06808323434679 
1762	 1.06591172245788 
1763	 1.06358678567286 
1764	 1.0609967805128 
1765	 1.05774893524152 
1766	 1.05514176262657 
1767	 1.05267950993239 
1768	 1.05078090637835 
1769	 1.04914753857853 
1770	 1.0474887036646 
1771	 1.0464247152075 
1772	 1.04420561310337 
1773	 1.04171377823105 
1774	 1.03815055404735 
1775	 1.03553255782405 
1776	 1.03446895370032 
1777	 1.03284616053821 
1778	 1.03153414169298 
1779	 1.03048118462882 
1780	 1.02924640169581 
1781	 1.02722555345944 
1782	 1.02598493728968 
1783	 1.02551175315141 
1784	 1.02348091799663 
1785	 1.02264842659499 
1786	 1.02214228195829 
1787	 1.01914098714343 
1788	 1.01614529076121 
1789	 1.01459667192317 
1790	 1.01371590536219 
1791	 1.01275553638333 
1792	 1.01203599883474 
1793	 1.01027536957129 
1794	 1.0069876821499 
1795	 1.00417579098885 
1796	 1.00242851050359 
1797	 1.00065517743886 
1798	 0.997177432325226 
1799	 0.996458009949541 
1800	 0.995944828360143 
1801	 0.972533629181769 
1802	 0.972299743156999 
1803	 0.968943899907752 
1804	 0.964527530870664 
1805	 0.962110790825444 
1806	 0.96013372204907 
1807	 0.95552139577754 
1808	 0.952186802017283 
1809	 0.946596524749741 
1810	 0.941735607060051 
1811	 0.930529172635354 
1812	 0.926197285390462 
1813	 0.930306772511933 
1814	 0.928388917552455 
1815	 0.926373528358516 
1816	 0.922250727477688 
1817	 0.910373041489255 
1818	 0.904500297955537 
1819	 0.900705256179464 
1820	 0.900892946275603 
1821	 0.895973476419414 
1822	 0.895391089993689 
1823	 0.889655566433364 
1824	 0.863869697918548 
1825	 0.858899193172228 
1826	 0.882636440997656 
1827	 0.885636257601208 
1828	 0.885513957876168 
1829	 0.894451077851533 
1830	 0.898959597228439 
1831	 0.866555179743753 
1832	 0.852054806107266 
1833	 0.900513931054916 
1834	 0.880579425786005 
1835	 0.716340205365673 
1836	 0.663955683005316 
1837	 0.705742642578702 
1838	 0.699317844854356 
1839	 0.712731322834839 
1840	 0.843271045256486 
1841	 0.893447221700058 
1842	 0.875824842275297 
1843	 0.84288746764511 
1844	 0.790385108745893 
1845	 0.772550591524857 
1846	 0.716216253698067 
1847	 0.672975617240555 
1848	 0.644395569982664 
1849	 0.679116642541288 
1850	 0.643516809479725 
1851	 0.521832647222593 
1852	 0.532371570900205 
1853	 0.607607222202022 
1854	 0.626174144463491 
1855	 0.726208978524458 
1856	 0.735459303585517 
1857	 0.629034581491541 
1858	 0.612303523142642 
1859	 0.580580463675901 
1860	 0.520576545614213 
1861	 0.516015679701255 
1862	 0.5520433925195 
1863	 0.562562275023739 
1864	 0.569527293353688 
1865	 0.623134343588033 
1866	 0.767734677863602 
1867	 0.824555354432943 
1868	 0.860706857118823 
1869	 0.913234581642381 
1870	 0.86374804293742 
1871	 0.602087652509116 
1872	 0.535277765581426 
1873	 0.524340958102359 
1874	 0.50399493492784 
1875	 0.567838858787864 
1876	 0.548778608399559 
1877	 0.46286534826981 
1878	 0.462921911930821 
1879	 0.464964405655856 
1880	 0.464038085180807 
1881	 0.471040509298451 
1882	 0.521651967327654 
1883	 0.514896495516157 
1884	 0.463917559284457 
1885	 0.458156884002234 
1886	 0.464160753319514 
1887	 0.461163703516299 
1888	 0.454436910739288 
1889	 0.439640963419814 
1890	 0.444503785341976 
1891	 0.446713047812111 
1892	 0.438859628277191 
1893	 0.453575209667854 
1894	 0.454704698880426 
1895	 0.402897105650244 
1896	 0.392430573807604 
1897	 0.421030989535109 
1898	 0.460203979338829 
1899	 0.479543239294192 
1900	 0.478970886295804 
1901	 0.482185856463623 
1902	 0.434855602495507 
1903	 0.428143434511241 
1904	 0.481361006634387 
1905	 0.473237433675165 
1906	 0.412477557927248 
1907	 0.408860691829862 
1908	 0.413129135798432 
1909	 0.358530361819499 
1910	 0.365053798503264 
1911	 0.381910814710958 
1912	 0.39947831910407 
1913	 0.425749552066177 
1914	 0.434963862294064 
1915	 0.447465103533976 
1916	 0.450134320141119 
1917	 0.439728740201132 
1918	 0.435639430768206 
1919	 0.449174523444627 
1920	 0.445807489334671 
1921	 0.442200012633193 
1922	 0.447245465168695 
1923	 0.445009911234448 
1924	 0.43704714645017 
1925	 0.433258518393261 
1926	 0.425415418597031 
1927	 0.425129526400763 
1928	 0.426524825990208 
1929	 0.432501955600386 
1930	 0.443278775590129 
1931	 0.447146086847479 
1932	 0.444448459479985 
1933	 0.441527651167519 
1934	 0.442501756633917 
1935	 0.441366942414377 
1936	 0.444683165682423 
1937	 0.457292847134455 
1938	 0.461606759853399 
1939	 0.463214586342399 
1940	 0.46220892108641 
1941	 0.465135155781832 
1942	 0.463999367524357 
1943	 0.466397231217987 
1944	 0.469405092626194 
1945	 0.469789263744506 
1946	 0.469907385122296 
1947	 0.472258385576718 
1948	 0.476920283888929 
1949	 0.480878931577873 
1950	 0.486723283893406 
1951	 0.490652530678599 
1952	 0.493315920307586 
1953	 0.49171040290129 
1954	 0.490245024529381 
1955	 0.488678471781933 
1956	 0.485072628407612 
1957	 0.484831556518125 
1958	 0.485974785645399 
1959	 0.489537655564752 
1960	 0.490719704425688 
1961	 0.492326146268306 
1962	 0.493337460135028 
1963	 0.493014709512086 
1964	 0.49339442576538 
1965	 0.494055929109043 
1966	 0.494583361210465 
1967	 0.494617282895845 
1968	 0.493013274641192 
1969	 0.494082423102353 
1970	 0.497376937901101 
1971	 0.49854588309513 
1972	 0.499303388708283 
1973	 0.501826328223294 
1974	 0.503013045109318 
1975	 0.502804153529115 
1976	 0.504731947762208 
1977	 0.506594038954078 
1978	 0.50643402315221 
1979	 0.507630475389397 
1980	 0.509726290272856 
1981	 0.510833209357588 
1982	 0.512028335938526 
1983	 0.514220181223454 
1984	 0.514806731891322 
1985	 0.514503435881094 
1986	 0.51508534447339 
1987	 0.515498484693219 
1988	 0.516915005642573 
1989	 0.517511696873698 
1990	 0.517289062460982 
1991	 0.517499396395545 
1992	 0.517311375394072 
1993	 0.518140604089304 
1994	 0.518791354545826 
1995	 0.519681277259529 
1996	 0.520833610112847 
1997	 0.522881191776327 
1998	 0.524422405335611 
1999	 0.526301221729147 
2000	 0.528085681432195 
2001	 0.531000214530309 
2002	 0.532118221810499 
2003	 0.531424238478179 
2004	 0.533108074518953 
2005	 0.531563134407828 
2006	 0.5304497471208 
2007	 0.527654286024007 
2008	 0.531087773036855 
2009	 0.533120708733593 
2010	 0.534789493230557 
2011	 0.5398689528202 
2012	 0.5416948435292 
2013	 0.541610350955368 
2014	 0.543577189629029 
2015	 0.545678978268631 
2016	 0.547933082393843 
2017	 0.5520600181707 
2018	 0.554623726643675 
2019	 0.555903487542949 
2020	 0.555879820180591 
2021	 0.556219780110338 
2022	 0.557016179782581 
2023	 0.558870734676376 
2024	 0.562000256978512 
2025	 0.56549576600198 
2026	 0.567536472293569 
2027	 0.568523354541242 
2028	 0.570410217059333 
2029	 0.572529865105046 
2030	 0.574229804059174 
2031	 0.576412506076813 
2032	 0.578107199294856 
2033	 0.579460701871906 
2034	 0.579228801192368 
2035	 0.580584918148508 
2036	 0.584247429081262 
2037	 0.58703039749371 
2038	 0.590542501300522 
2039	 0.593651994205695 
2040	 0.594328401454744 
2041	 0.596872118158783 
2042	 0.60001757805031 
2043	 0.601799441395514 
2044	 0.60473220519902 
2045	 0.606663278998297 
2046	 0.607091287121359 
2047	 0.606635876833005 
2048	 0.609657031193864 
2049	 0.61277495440816 
2050	 0.614574153004484 
2051	 0.617376153035203 
2052	 0.619272315474442 
2053	 0.620151162169908 
2054	 0.621857987506604 
2055	 0.623737206613301 
2056	 0.62559106219279 
2057	 0.626742038565255 
2058	 0.628444411891805 
2059	 0.630668311549711 
2060	 0.634074198695307 
2061	 0.636106416312473 
2062	 0.637631365415367 
2063	 0.637656470180193 
2064	 0.636393292618092 
2065	 0.636707070918071 
2066	 0.637399509743914 
2067	 0.6382986622425 
2068	 0.639850446451766 
2069	 0.641868544305926 
2070	 0.643886132779778 
2071	 0.645945564203017 
2072	 0.648408201447322 
2073	 0.651740670007429 
2074	 0.653702026466107 
2075	 0.654440800982355 
2076	 0.656204984800957 
2077	 0.657927324770114 
2078	 0.659548534275197 
2079	 0.662425502133163 
2080	 0.665862296946904 
2081	 0.668086973398408 
2082	 0.66851695014177 
2083	 0.669158640732446 
2084	 0.67012041753909 
2085	 0.671260732197237 
2086	 0.674375382258756 
2087	 0.676463414811212 
2088	 0.678802397481148 
2089	 0.680175239300964 
2090	 0.681285550296481 
2091	 0.681220020805991 
2092	 0.681802742286787 
2093	 0.682092248039185 
2094	 0.683039115951397 
2095	 0.684670769341343 
2096	 0.68601603735311 
2097	 0.688375961243393 
2098	 0.689941354308348 
2099	 0.692042431486621 
2100	 0.69423131335254 
2101	 0.694806686739452 
2102	 0.695842059902809 
2103	 0.696892597158949 
2104	 0.697227906065933 
2105	 0.698250985728295 
2106	 0.70029850651575 
2107	 0.702298826551874 
2108	 0.704336474773903 
2109	 0.704391194497863 
2110	 0.704821263541216 
2111	 0.705949281563574 
2112	 0.704638767625112 
2113	 0.703820898133334 
2114	 0.705707095532206 
2115	 0.706028490481461 
2116	 0.706268341234204 
2117	 0.707677099361082 
2118	 0.709872594361102 
2119	 0.710957631135701 
2120	 0.71181313840812 
2121	 0.714780013395495 
2122	 0.71580722482795 
2123	 0.71684467762366 
2124	 0.71776926827304 
2125	 0.717832849145676 
2126	 0.71932786332964 
2127	 0.721216384650279 
2128	 0.721521972342563 
2129	 0.723057974438924 
2130	 0.724506392956842 
2131	 0.724758250774407 
2132	 0.725896309089862 
2133	 0.726158899401405 
2134	 0.726854089286104 
2135	 0.727008179817238 
2136	 0.727464717417395 
2137	 0.728419580543395 
2138	 0.731865564538745 
2139	 0.733946217221634 
2140	 0.735254390675439 
2141	 0.737950378810333 
2142	 0.738377949296564 
2143	 0.738287530457441 
2144	 0.739552322813734 
2145	 0.740760000735591 
2146	 0.741089719192729 
2147	 0.740669829984793 
2148	 0.738993120694846 
2149	 0.737007561027882 
2150	 0.73666103474756 
2151	 0.737445605972576 
2152	 0.741601097130249 
2153	 0.743176601428703 
2154	 0.744803991341673 
2155	 0.744950067418859 
2156	 0.743674114801785 
2157	 0.741962721096297 
2158	 0.741632838191274 
2159	 0.741159256919173 
2160	 0.742285043267877 
2161	 0.744941712705479 
2162	 0.748742388826987 
2163	 0.75192923707867 
2164	 0.753620069848663 
2165	 0.754833639273538 
2166	 0.754153932733716 
2167	 0.754506588990673 
2168	 0.754970618911935 
2169	 0.755658050101394 
2170	 0.755649114377035 
2171	 0.755316869230674 
2172	 0.755943155982617 
2173	 0.755431406678324 
2174	 0.755196625001172 
2175	 0.757568749450391 
2176	 0.759000704539115 
2177	 0.760326830888459 
2178	 0.762021629774321 
2179	 0.761919557374206 
2180	 0.76096775639971 
2181	 0.760613445291213 
2182	 0.761511652371211 
2183	 0.762293045133913 
2184	 0.762727345672469 
2185	 0.76309199216207 
2186	 0.763254254330874 
2187	 0.763612199675534 
2188	 0.763758369806293 
2189	 0.764540850813483 
2190	 0.766132325560191 
2191	 0.766504930100888 
2192	 0.766665457788279 
2193	 0.767610286234589 
2194	 0.7673752554399 
2195	 0.769315164796393 
2196	 0.771256091988648 
2197	 0.769743206130014 
2198	 0.76932135623247 
2199	 0.769488139002683 
2200	 0.768894197406899 
2201	 0.771480161991706 
2202	 0.774655706161318 
2203	 0.773941946289505 
2204	 0.77267335639279 
2205	 0.771899485082401 
2206	 0.769816906700256 
2207	 0.7687910190045 
2208	 0.769321470208127 
2209	 0.772299014902603 
2210	 0.772645134503489 
2211	 0.772434756618164 
2212	 0.774404961807993 
2213	 0.773753527163865 
2214	 0.773574932893657 
2215	 0.775169184965322 
2216	 0.774071451739837 
2217	 0.77311627345138 
2218	 0.772069937796928 
2219	 0.77146458229202 
2220	 0.771040243737933 
2221	 0.770359621155494 
2222	 0.769781537526998 
2223	 0.767013996299927 
2224	 0.765747196073408 
2225	 0.765448914453983 
2226	 0.764840096745158 
2227	 0.765509600803676 
2228	 0.766437869721174 
2229	 0.768011874066649 
2230	 0.768121286696544 
2231	 0.767936800300613 
2232	 0.768086470213215 
2233	 0.767187915741176 
2234	 0.764086815434678 
2235	 0.76415954185171 
2236	 0.764225771363942 
2237	 0.763591651820742 
2238	 0.763660976520695 
2239	 0.762178115040302 
2240	 0.761440580445624 
2241	 0.762602730249544 
2242	 0.763137710853023 
2243	 0.761020944801636 
2244	 0.758040272422981 
2245	 0.757362674143803 
2246	 0.755844824309847 
2247	 0.755368252092877 
2248	 0.757113919672113 
2249	 0.754619803750512 
2250	 0.753901345589709 
2251	 0.756224994252794 
2252	 0.756713754943465 
2253	 0.757384850339293 
2254	 0.756100405121828 
2255	 0.753178802485819 
2256	 0.750608993102916 
2257	 0.747380998794537 
2258	 0.74442200734223 
2259	 0.742270637131634 
2260	 0.740576607495843 
2261	 0.738676613283514 
2262	 0.738683307891631 
2263	 0.7406249199357 
2264	 0.739470537298653 
2265	 0.738867145195417 
2266	 0.740042276006486 
2267	 0.741042778292857 
2268	 0.745717696261383 
2269	 0.748970283799101 
2270	 0.747427377163069 
2271	 0.74636850921939 
2272	 0.744416363671493 
2273	 0.743643999155924 
2274	 0.744352461132089 
2275	 0.741783255968738 
2276	 0.738751984351309 
2277	 0.734891669134455 
2278	 0.731163309484364 
2279	 0.729924645629088 
2280	 0.727282176728297 
2281	 0.724480444794089 
2282	 0.725404298873292 
2283	 0.725384866108841 
2284	 0.724710048303105 
2285	 0.725801009759031 
2286	 0.725611643430593 
2287	 0.723750399730827 
2288	 0.722830692675185 
2289	 0.723152679848797 
2290	 0.72310581840549 
2291	 0.723597300890403 
2292	 0.721847226131847 
2293	 0.720064168608097 
2294	 0.71876179728833 
2295	 0.716114418905202 
2296	 0.715971482925281 
2297	 0.715595448052263 
2298	 0.71288956600692 
2299	 0.711366273789917 
2300	 0.709340884750462 
2301	 0.710090298136991 
2302	 0.712262338006017 
2303	 0.711911462285834 
2304	 0.71172316571271 
2305	 0.708652528223409 
2306	 0.705655212491687 
2307	 0.708206998324775 
2308	 0.712999570424356 
2309	 0.718153193307195 
2310	 0.722051474688188 
2311	 0.720852521863215 
2312	 0.715538098491435 
2313	 0.712266335816902 
2314	 0.712274441628567 
2315	 0.707699495873063 
2316	 0.703561327325242 
2317	 0.704745095995187 
2318	 0.702346481145884 
2319	 0.701577935063697 
2320	 0.703348226956051 
2321	 0.703398820884799 
2322	 0.69954317774334 
2323	 0.697502620516931 
2324	 0.6955283134566 
2325	 0.696969507075701 
2326	 0.698106089417904 
2327	 0.694703748281364 
2328	 0.693822350128337 
2329	 0.694738208697148 
2330	 0.693354411373907 
2331	 0.690433590186122 
2332	 0.692479025774777 
2333	 0.691108541183065 
2334	 0.683112295622015 
2335	 0.684163358876836 
2336	 0.688523321369674 
2337	 0.686249794013961 
2338	 0.687422337418093 
2339	 0.691090307213992 
2340	 0.681109989792362 
2341	 0.674370359745507 
2342	 0.675676125214617 
2343	 0.668442289781256 
2344	 0.666914369363085 
2345	 0.67356178424842 
2346	 0.67700124200555 
2347	 0.680795644091125 
2348	 0.685625642596314 
2349	 0.677884599878789 
2350	 0.66876490938655 
2351	 0.665610012509291 
2352	 0.660907023586718 
2353	 0.66411756546239 
2354	 0.667549532053262 
2355	 0.665482237741282 
2356	 0.664759932951275 
2357	 0.662169312538625 
2358	 0.654594127824637 
2359	 0.649900168186836 
2360	 0.652189893644436 
2361	 0.656611892767081 
2362	 0.657483442534599 
2363	 0.656166186465365 
2364	 0.653075907566092 
2365	 0.642754163077089 
2366	 0.639279416263245 
2367	 0.643429789686803 
2368	 0.645467941819336 
2369	 0.657678867982854 
2370	 0.665147733881772 
2371	 0.663083607063948 
2372	 0.662310964018495 
2373	 0.653083972056376 
2374	 0.647243870332312 
2375	 0.645774052996819 
2376	 0.642084738149687 
2377	 0.63907757623714 
2378	 0.634584647800234 
2379	 0.625073671168869 
2380	 0.619788500516117 
2381	 0.612266085014098 
2382	 0.613222197792402 
2383	 0.623493004110135 
2384	 0.629093999972696 
2385	 0.641826303815485 
2386	 0.642599066747864 
2387	 0.634288352941119 
2388	 0.630343182506974 
2389	 0.625537396455502 
2390	 0.618281290839937 
2391	 0.600748553597896 
2392	 0.597986216573833 
2393	 0.5982780918605 
2394	 0.602888052436188 
2395	 0.628650687714608 
2396	 0.640803544308665 
2397	 0.652098344085763 
2398	 0.651262699913906 
2399	 0.636095255904365 
2400	 0.629080412547887 
2401	 0.614514974103919 
2402	 0.60637245250171 
2403	 0.60873468920429 
2404	 0.605847927863946 
2405	 0.607242734621422 
2406	 0.604742041310167 
2407	 0.603473767141684 
2408	 0.605281609237822 
2409	 0.602957367814124 
2410	 0.602291511338643 
2411	 0.599982704259732 
2412	 0.600948568376523 
2413	 0.604562947920041 
2414	 0.594293224908249 
2415	 0.592025140280094 
2416	 0.602967532366858 
2417	 0.610016608642642 
2418	 0.62348790508998 
2419	 0.630814667021823 
2420	 0.629827384610836 
2421	 0.612446931038328 
2422	 0.602163276352916 
2423	 0.616853395223533 
2424	 0.609348403241183 
2425	 0.605604037796511 
2426	 0.617236120816261 
2427	 0.616486783118811 
2428	 0.622054161559983 
2429	 0.640418954022312 
2430	 0.652071957231122 
2431	 0.663377255679998 
2432	 0.668361923367349 
2433	 0.646457282712209 
2434	 0.638977545136832 
2435	 0.625337123025209 
2436	 0.616962921043265 
2437	 0.617852835202498 
2438	 0.618333423365317 
2439	 0.617671661017704 
2440	 0.623628376275141 
2441	 0.654573073353867 
2442	 0.657522201727767 
2443	 0.645007144874838 
2444	 0.6341290826787 
2445	 0.580951920492486 
2446	 0.570761413214511 
2447	 0.597542467092006 
2448	 0.608750814052781 
2449	 0.649911943465433 
2450	 0.659440991599508 
2451	 0.627028440262061 
2452	 0.621148976009765 
2453	 0.627103832508389 
2454	 0.624898495454093 
2455	 0.640720178123187 
2456	 0.623282469917144 
2457	 0.560857479868509 
2458	 0.537604206688262 
2459	 0.512594716878924 
2460	 0.516961265302671 
2461	 0.565031383406718 
2462	 0.589236610121968 
2463	 0.614697618684556 
2464	 0.633523550654688 
2465	 0.653430565169601 
2466	 0.654957793470146 
2467	 0.636186389512543 
2468	 0.646014867502471 
2469	 0.65518798993419 
2470	 0.647708795580453 
2471	 0.675110810260701 
2472	 0.652848192632119 
2473	 0.532320640963173 
2474	 0.5092231215332 
2475	 0.520323699057262 
2476	 0.538849766897555 
2477	 0.702708083071948 
2478	 0.706805040053918 
2479	 0.562385212121362 
2480	 0.514391903639274 
2481	 0.385559912787404 
2482	 0.370208150213023 
2483	 0.53822095803645 
2484	 0.593763400400275 
2485	 0.63532656095776 
2486	 0.676802713842136 
2487	 0.58906382065816 
2488	 0.684104423055637 
2489	 0.627887466241016 
2490	 0.445637541366919 
2491	 0.534772863868478 
2492	 0.556303684258555 
2493	 0.56634414838441 
2494	 0.829196559199309 
2495	 0.806852922219433 
2496	 0.658180135539596 
2497	 0.491139931953444 
2498	-1.92741590482222E-02 
2499	-0.228266685448131 
2500	 0.032745843207379 
