Wavelength	ref00099.asd
350	 8.11997241546743E-03 
351	 8.34722783316996E-03 
352	 8.4786193129469E-03 
353	 8.09639131950999E-03 
354	 7.5532892054827E-03 
355	 7.42278732772109E-03 
356	 7.83082040567769E-03 
357	 8.02030236454934E-03 
358	 7.72815279261533E-03 
359	 7.33720862560847E-03 
360	 7.3608746591923E-03 
361	 7.87539622735397E-03 
362	 8.16939103980177E-03 
363	 7.98411377623505E-03 
364	 7.47040020561231E-03 
365	 7.30159339192588E-03 
366	 7.0256668725697E-03 
367	 6.69709034485173E-03 
368	 7.2688345247155E-03 
369	 7.63154779152177E-03 
370	 7.38614537906774E-03 
371	 6.76836347381597E-03 
372	 7.37196949757899E-03 
373	 7.45390346954602E-03 
374	 6.94812002255807E-03 
375	 6.66242912902978E-03 
376	 6.63876767402535E-03 
377	 6.84594274888444E-03 
378	 7.10625971791986E-03 
379	 7.10706645300319E-03 
380	 7.08897381117857E-03 
381	 7.22207192073158E-03 
382	 7.45647400549819E-03 
383	 7.17297739410598E-03 
384	 7.12020918251378E-03 
385	 7.19179263799575E-03 
386	 7.01370036298883E-03 
387	 7.16060961300564E-03 
388	 7.3414484215373E-03 
389	 7.41562764982941E-03 
390	 7.4656463682178E-03 
391	 7.4076499267705E-03 
392	 7.30431394372049E-03 
393	 7.23108331656494E-03 
394	 7.2285296272714E-03 
395	 7.30722539758502E-03 
396	 7.41654940881281E-03 
397	 7.47554144381941E-03 
398	 7.35813216039643E-03 
399	 7.39543380855718E-03 
400	 7.63029280397897E-03 
401	 7.83653049881254E-03 
402	 7.67773706583392E-03 
403	 7.58483466326172E-03 
404	 7.77129041378818E-03 
405	 7.79113478823958E-03 
406	 7.83120453211508E-03 
407	 7.8045309790816E-03 
408	 7.63421998634296E-03 
409	 7.72596221387538E-03 
410	 7.82756352411871E-03 
411	 7.86420916683998E-03 
412	 7.94933263272806E-03 
413	 8.22309467449505E-03 
414	 8.22449435121128E-03 
415	 7.86797266212513E-03 
416	 8.02315264266146E-03 
417	 8.1945882734699E-03 
418	 8.37019612056667E-03 
419	 8.60295060236492E-03 
420	 8.46637586143448E-03 
421	 8.40666908409667E-03 
422	 8.54551053261736E-03 
423	 8.67790065676576E-03 
424	 8.72193835780709E-03 
425	 8.77935154587921E-03 
426	 8.87482337112501E-03 
427	 8.76016869156998E-03 
428	 8.90521669840648E-03 
429	 9.0899771705789E-03 
430	 8.97164902771019E-03 
431	 8.93577482864688E-03 
432	 8.99484776091721E-03 
433	 9.05849367149069E-03 
434	 8.99178729357277E-03 
435	 9.16691143127385E-03 
436	 9.24460307115714E-03 
437	 9.08994630437162E-03 
438	 9.23126181638985E-03 
439	 9.29642733633242E-03 
440	 9.2611458601544E-03 
441	 9.23147655782314E-03 
442	 9.32235726245583E-03 
443	 9.37164445977804E-03 
444	 9.36227769453985E-03 
445	 9.42328434250182E-03 
446	 9.46291957366418E-03 
447	 9.51387125794655E-03 
448	 9.59527941941723E-03 
449	 9.6450449063006E-03 
450	 9.6503678094176E-03 
451	 9.63469541917256E-03 
452	 9.64267899794544E-03 
453	 9.72999699314208E-03 
454	 9.81560646750057E-03 
455	 9.85561227958091E-03 
456	 9.86398251622332E-03 
457	 9.94275708212363E-03 
458	 9.98374861689579E-03 
459	 9.91795117481465E-03 
460	 9.93487424790764E-03 
461	 0.00997454372809 
462	 1.00044399290986E-02 
463	 1.00057325923495E-02 
464	 9.94233900085972E-03 
465	 9.99109383546969E-03 
466	 1.01500270362471E-02 
467	 1.01231809818259E-02 
468	 1.01045978261375E-02 
469	 1.00995614728844E-02 
470	 1.00891087931841E-02 
471	 1.01640057613092E-02 
472	 1.02220493575671E-02 
473	 1.02513813391778E-02 
474	 1.02998169788109E-02 
475	 0.010279892069556 
476	 1.02642395772221E-02 
477	 1.02948316774908E-02 
478	 1.03127500535341E-02 
479	 1.03836147018793E-02 
480	 1.04700188586496E-02 
481	 1.05010440555196E-02 
482	 1.04134204696081E-02 
483	 1.04367856779566E-02 
484	 1.05933446263913E-02 
485	 1.06854856457137E-02 
486	 1.06877556934393E-02 
487	 1.07051690814783E-02 
488	 0.010784161650355 
489	 1.07226576443563E-02 
490	 0.010820682355857 
491	 1.09827535984084E-02 
492	 1.09906628494776E-02 
493	 1.10309773854493E-02 
494	 1.11466247342948E-02 
495	 1.13002663800566E-02 
496	 1.13729667872865E-02 
497	 1.14976881349428E-02 
498	 1.16807666306997E-02 
499	 1.18810069186813E-02 
500	 1.19917484027321E-02 
501	 1.22687999747145E-02 
502	 1.26050791297905E-02 
503	 1.27101909150156E-02 
504	 1.28820782828107E-02 
505	 1.31603988272638E-02 
506	 1.35385815451093E-02 
507	 0.013999000316332 
508	 1.43485036550806E-02 
509	 1.47441686666916E-02 
510	 1.53421023853797E-02 
511	 1.57575818663642E-02 
512	 1.62944458183557E-02 
513	 1.69556592108832E-02 
514	 1.74917756186659E-02 
515	 1.82403606153053E-02 
516	 1.90347987869378E-02 
517	 1.97416638490368E-02 
518	 2.05275788305738E-02 
519	 2.14154336841898E-02 
520	 2.22886903556514E-02 
521	 2.30414629565455E-02 
522	 2.39906653903604E-02 
523	 2.48438107206143E-02 
524	 2.55876426662764E-02 
525	 2.65451835073447E-02 
526	 2.74419145942414E-02 
527	 2.83157170350436E-02 
528	 2.92148074905196E-02 
529	 2.99952101508006E-02 
530	 3.07000583578738E-02 
531	 3.13943180022516E-02 
532	 0.032141311955983 
533	 3.28374100729111E-02 
534	 3.34868773844796E-02 
535	 3.40690311774679E-02 
536	 3.44983720679794E-02 
537	 3.50007469827052E-02 
538	 3.55423359965145E-02 
539	 3.60140011908877E-02 
540	 3.63744794372111E-02 
541	 3.67790148247963E-02 
542	 3.72138630676675E-02 
543	 3.75227712578984E-02 
544	 3.77908569296164E-02 
545	 3.80930395287519E-02 
546	 3.84664188213542E-02 
547	 3.88927810388825E-02 
548	 3.91378341571476E-02 
549	 3.93055006977383E-02 
550	 3.95987162529381E-02 
551	 3.98302103394429E-02 
552	 3.99419393712056E-02 
553	 3.99631602306223E-02 
554	 4.00114891508465E-02 
555	 3.99827750146485E-02 
556	 3.98799852692976E-02 
557	 3.97412255827462E-02 
558	 3.96391144621665E-02 
559	 3.94818968792484E-02 
560	 3.92377200932189E-02 
561	 0.03892464905844 
562	 3.86167527260257E-02 
563	 3.82593098585387E-02 
564	 0.03784206266525 
565	 3.74750901796886E-02 
566	 3.69807015218183E-02 
567	 3.64572282658959E-02 
568	 3.60364276874574E-02 
569	 3.55450861135548E-02 
570	 3.49612797078034E-02 
571	 3.43531183869613E-02 
572	 3.38525624221087E-02 
573	 3.33019105723808E-02 
574	 0.032809915393344 
575	 3.24421272787039E-02 
576	 3.20571338191329E-02 
577	 3.16098672167981E-02 
578	 3.11482011839067E-02 
579	 3.07561122617541E-02 
580	 3.03839512512471E-02 
581	 2.99933425129173E-02 
582	 2.95941316763473E-02 
583	 0.029256021243014 
584	 2.89202054301139E-02 
585	 2.86644774887736E-02 
586	 2.85318807745401E-02 
587	 2.83033138893186E-02 
588	 2.80910305499439E-02 
589	 2.79094683605456E-02 
590	 0.027705887521473 
591	 2.75154636809757E-02 
592	 2.73860824285155E-02 
593	 2.73154928802421E-02 
594	 2.72252742731894E-02 
595	 2.71331024029226E-02 
596	 2.70039490287616E-02 
597	 0.026809937883787 
598	 2.66231816590899E-02 
599	 2.65145718692127E-02 
600	 2.64574873769554E-02 
601	 0.026333387372253 
602	 0.026193700412679 
603	 2.60338533887681E-02 
604	 2.58407062191603E-02 
605	 2.55906997227251E-02 
606	 2.53918993660881E-02 
607	 2.51903168650713E-02 
608	 2.48861957606712E-02 
609	 2.47047601747798E-02 
610	 2.45163793320723E-02 
611	 2.42696609607471E-02 
612	 2.40680870746505E-02 
613	 2.38612591126255E-02 
614	 2.36351437438694E-02 
615	 2.33895255082475E-02 
616	 2.31314651696414E-02 
617	 2.29100231846378E-02 
618	 2.27011989854524E-02 
619	 2.24405192796772E-02 
620	 2.22686929351669E-02 
621	 2.21284212029482E-02 
622	 2.19970968184508E-02 
623	 2.19820350849369E-02 
624	 2.18875705300367E-02 
625	 2.17745467959224E-02 
626	 2.17527060457449E-02 
627	 2.16483840269799E-02 
628	 2.16359730639513E-02 
629	 2.17219539150457E-02 
630	 2.17386024683859E-02 
631	 2.17014200793042E-02 
632	 2.16239609438468E-02 
633	 2.15194322635583E-02 
634	 0.021390954094966 
635	 2.12146623619412E-02 
636	 0.021003663023751 
637	 2.07850523462308E-02 
638	 2.05402367863004E-02 
639	 2.02827125782779E-02 
640	 2.00062206885465E-02 
641	 1.96848892954419E-02 
642	 1.93498616675263E-02 
643	 1.90044899681128E-02 
644	 1.86565778691593E-02 
645	 1.83735566372396E-02 
646	 1.80151802219716E-02 
647	 1.76538402066971E-02 
648	 1.74707110050853E-02 
649	 1.73266165767852E-02 
650	 1.71450086216738E-02 
651	 1.69433289248286E-02 
652	 1.68657475751382E-02 
653	 1.67873259826609E-02 
654	 1.66505203378366E-02 
655	 1.64538040030413E-02 
656	 1.63740482203495E-02 
657	 1.62888828559603E-02 
658	 1.61205236746898E-02 
659	 1.58503592192201E-02 
660	 1.57084511174389E-02 
661	 1.54585019168231E-02 
662	 1.50614773211838E-02 
663	 1.49689224361622E-02 
664	 1.48798094023792E-02 
665	 1.46927597414792E-02 
666	 1.44138128743855E-02 
667	 0.014224566784875 
668	 1.40662138416357E-02 
669	 1.39499093948371E-02 
670	 1.39464463170806E-02 
671	 1.39015900562909E-02 
672	 1.38856380728836E-02 
673	 1.39339829232309E-02 
674	 1.38944244513045E-02 
675	 1.39233908411658E-02 
676	 1.39797992635221E-02 
677	 1.39796154139078E-02 
678	 1.40584130113731E-02 
679	 1.42273696526992E-02 
680	 1.44341789885444E-02 
681	 1.45760394253271E-02 
682	 1.47417718903395E-02 
683	 0.014977787487802 
684	 1.53201929142204E-02 
685	 1.58059205283561E-02 
686	 1.63743926376725E-02 
687	 1.71645623715791E-02 
688	 1.82668401505631E-02 
689	 1.92147824599097E-02 
690	 2.03055206612512E-02 
691	 2.17105652433635E-02 
692	 2.33180517368238E-02 
693	 2.52530520389512E-02 
694	 2.75116479197467E-02 
695	 2.99816766232712E-02 
696	 3.23705697497727E-02 
697	 3.50283966757398E-02 
698	 3.80283887278345E-02 
699	 4.12506417907408E-02 
700	 4.43725855418157E-02 
701	 4.75803567578102E-02 
702	 5.09369394794498E-02 
703	 5.42862166100893E-02 
704	 5.76517251108477E-02 
705	 6.09155508897387E-02 
706	 6.41101805683079E-02 
707	 6.76530686168395E-02 
708	 7.11706032777157E-02 
709	 7.46327510527022E-02 
710	 7.81399980281752E-02 
711	 8.16399495230203E-02 
712	 8.51912819526922E-02 
713	 8.87996253864767E-02 
714	 9.24005788961794E-02 
715	 9.60529778294795E-02 
716	 0.099745823353988 
717	 0.10360632945714 
718	 0.10788321650214 
719	 0.11203205865317 
720	 0.115918271641944 
721	 0.119709011414228 
722	 0.123221819571388 
723	 0.126835994626422 
724	 0.13076337131157 
725	 0.134559877703532 
726	 0.138171530724723 
727	 0.141586677809564 
728	 0.144951591684135 
729	 0.148467438983698 
730	 0.151714451404889 
731	 0.154697599334876 
732	 0.157589942617649 
733	 0.160299749156349 
734	 0.162854945662415 
735	 0.165339894327904 
736	 0.167803488881875 
737	 0.170037714307814 
738	 0.172115827114614 
739	 0.174156992284611 
740	 0.176186185827148 
741	 0.177996067328408 
742	 0.179648599772938 
743	 0.181249628168752 
744	 0.182690013186972 
745	 0.184029553729438 
746	 0.185258116240263 
747	 0.18632441418339 
748	 0.187437880637911 
749	 0.188470629756768 
750	 0.189343917748013 
751	 0.190142539883412 
752	 0.190863949831857 
753	 0.191506117421024 
754	 0.192079728932201 
755	 0.192647559909028 
756	 0.193123226666869 
757	 0.193473197966345 
758	 0.19374879051869 
759	 0.194367796283628 
760	 0.195394209983517 
761	 0.19646088048332 
762	 0.196341622648338 
763	 0.196462594662299 
764	 0.196642818665315 
765	 0.196608820174843 
766	 0.196584630367037 
767	 0.196680053553443 
768	 0.196843586751263 
769	 0.197000496285835 
770	 0.197206545150231 
771	 0.197407274500522 
772	 0.197588249901678 
773	 0.197772201351766 
774	 0.19793739565668 
775	 0.198094026467511 
776	 0.198242573253614 
777	 0.198360761416807 
778	 0.198459775510263 
779	 0.198564889732528 
780	 0.19869678888609 
781	 0.198851649294174 
782	 0.199008372942632 
783	 0.199132851960397 
784	 0.199202559884427 
785	 0.199299968656535 
786	 0.199433366586965 
787	 0.199618780345947 
788	 0.199873141403633 
789	 0.199920444775203 
790	 0.19997125921612 
791	 0.200175095382825 
792	 0.200355594349444 
793	 0.200524510130413 
794	 0.200632896294568 
795	 0.200662018191631 
796	 0.200746675903231 
797	 0.200896418441509 
798	 0.201058351944498 
799	 0.201161421216376 
800	 0.201305996594733 
801	 0.201367791740392 
802	 0.201401815906825 
803	 0.201662896997558 
804	 0.201778239376098 
805	 0.201861245065649 
806	 0.202000786846881 
807	 0.202030688501309 
808	 0.202138197992139 
809	 0.202270041535273 
810	 0.202351434878828 
811	 0.202552000901812 
812	 0.202667732369437 
813	 0.202800539633927 
814	 0.203167093147045 
815	 0.203355573323074 
816	 0.203606734092165 
817	 0.203877996061495 
818	 0.203806963067281 
819	 0.203768057654483 
820	 0.203723633586909 
821	 0.203711715037077 
822	 0.204018119437929 
823	 0.204185520792925 
824	 0.204106266265134 
825	 0.203885755106681 
826	 0.203866363689658 
827	 0.20397071514454 
828	 0.204134908702655 
829	 0.204280236058958 
830	 0.204299886666732 
831	 0.204314310070181 
832	 0.20437440012434 
833	 0.20445152853692 
834	 0.204412330371303 
835	 0.204427881731078 
836	 0.204526781481899 
837	 0.204538131886265 
838	 0.204586171684145 
839	 0.204743480333059 
840	 0.204930674959966 
841	 0.20478509106287 
842	 0.204934301368013 
843	 0.205189970265491 
844	 0.205248258108798 
845	 0.20529040250814 
846	 0.205230014629348 
847	 0.205221671082293 
848	 0.205438401838885 
849	 0.205570001066002 
850	 0.205735354463658 
851	 0.205876869833469 
852	 0.205846539021223 
853	 0.205985172491914 
854	 0.206165611023534 
855	 0.206271344951853 
856	 0.206272041658969 
857	 0.20623195340037 
858	 0.206289530365811 
859	 0.206415848006018 
860	 0.206317694513758 
861	 0.20642771387662 
862	 0.206616935736099 
863	 0.206739404944344 
864	 0.206994355845015 
865	 0.207149260850844 
866	 0.207255827666491 
867	 0.207372878460449 
868	 0.207174633335308 
869	 0.207026114695996 
870	 0.207036736730755 
871	 0.207183536050073 
872	 0.20756590246998 
873	 0.207796406493729 
874	 0.207777182256647 
875	 0.207691519849644 
876	 0.207965867208418 
877	 0.207889314250955 
878	 0.207533894007024 
879	 0.207767587670113 
880	 0.208088340918903 
881	 0.208093871469683 
882	 0.207825937013205 
883	 0.207871687249296 
884	 0.207906863150771 
885	 0.208077611741927 
886	 0.20834468995016 
887	 0.20819619108655 
888	 0.208225655381205 
889	 0.20833639316813 
890	 0.208332730351535 
891	 0.208226267761365 
892	 0.208381261932407 
893	 0.208571441542941 
894	 0.208578508622277 
895	 0.208986729363078 
896	 0.209220063326791 
897	 0.209425640954132 
898	 0.209864522928291 
899	 0.209760551846463 
900	 0.209783691586689 
901	 0.209698386800634 
902	 0.209072090350117 
903	 0.209126188968115 
904	 0.209135282122233 
905	 0.208994840276666 
906	 0.209039425161201 
907	 0.209279093026011 
908	 0.209719625567342 
909	 0.210050073185788 
910	 0.209850323864182 
911	 0.209972963961166 
912	 0.209989215141657 
913	 0.209832834601065 
914	 0.209914830024111 
915	 0.210511876256826 
916	 0.210257731029226 
917	 0.209365887085407 
918	 0.209768006328659 
919	 0.209483135646653 
920	 0.209173106600893 
921	 0.209211350351232 
922	 0.209107440156134 
923	 0.208975608420178 
924	 0.20862092020515 
925	 0.208200821841564 
926	 0.208431769909126 
927	 0.208769667488589 
928	 0.208668886932639 
929	 0.208389777201834 
930	 0.209666125496682 
931	 0.21000029365849 
932	 0.210262832687108 
933	 0.211000759603425 
934	 0.20994966721954 
935	 0.209732038405595 
936	 0.209827460732746 
937	 0.209161122537426 
938	 0.207475481431726 
939	 0.207455447385921 
940	 0.207365044984961 
941	 0.206214653527168 
942	 0.206290700016672 
943	 0.206368925806642 
944	 0.206014428923988 
945	 0.205296038551519 
946	 0.204956692120753 
947	 0.204004266452775 
948	 0.203047126216909 
949	 0.202571919359623 
950	 0.201935617253605 
951	 0.200861709097418 
952	 0.199741949543987 
953	 0.199086337645243 
954	 0.199202605580957 
955	 0.198309822745328 
956	 0.197018684121257 
957	 0.196156703418104 
958	 0.195636967527623 
959	 0.194936973296252 
960	 0.194916121052184 
961	 0.195324931712522 
962	 0.193550697436291 
963	 0.192689814536616 
964	 0.192613324210612 
965	 0.192435698554851 
966	 0.191410757185243 
967	 0.190907226368459 
968	 0.190930250996646 
969	 0.191151971590768 
970	 0.191250907662258 
971	 0.191156393454194 
972	 0.191118851689433 
973	 0.191408881235013 
974	 0.192112579226612 
975	 0.19161758413041 
976	 0.190885507111277 
977	 0.190780349910468 
978	 0.191175311598829 
979	 0.190395626753775 
980	 0.189770095030135 
981	 0.190131010792162 
982	 0.191036292273972 
983	 0.191082723914509 
984	 0.190665633514495 
985	 0.190307150490225 
986	 0.19040873392882 
987	 0.191767662876964 
988	 0.192216863657439 
989	 0.191763830662966 
990	 0.192050210321024 
991	 0.191943590977203 
992	 0.192073740424895 
993	 0.192410564934535 
994	 0.192433519136369 
995	 0.191782061973362 
996	 0.19167805832367 
997	 0.192337384854838 
998	 0.193171550152006 
999	 0.192921147747858 
1000	 0.193878367225966 
1001	 0.197477533320259 
1002	 0.197755758427474 
1003	 0.198023173135476 
1004	 0.198286470493614 
1005	 0.198582984513271 
1006	 0.198816254303322 
1007	 0.199143138645462 
1008	 0.199565243599885 
1009	 0.199979135216524 
1010	 0.200477689145982 
1011	 0.200949350104451 
1012	 0.201202368191098 
1013	 0.201393533579005 
1014	 0.201646762209588 
1015	 0.201851178185631 
1016	 0.20206020473513 
1017	 0.202408473520548 
1018	 0.202732312824321 
1019	 0.202994865111681 
1020	 0.203300026209399 
1021	 0.203707807457063 
1022	 0.204042523310412 
1023	 0.204340429776656 
1024	 0.204600116868802 
1025	 0.204892413119628 
1026	 0.205200781738291 
1027	 0.205397056838955 
1028	 0.205558321679297 
1029	 0.205786938010108 
1030	 0.206048297385131 
1031	 0.206289534390326 
1032	 0.206566028420205 
1033	 0.20682022166595 
1034	 0.207007652649314 
1035	 0.207266620096246 
1036	 0.207614894941609 
1037	 0.207871211563131 
1038	 0.208116461551596 
1039	 0.208338299111948 
1040	 0.208568845060483 
1041	 0.208764786804318 
1042	 0.209039769121783 
1043	 0.209413693316546 
1044	 0.20967954799592 
1045	 0.209946213662139 
1046	 0.210254642575355 
1047	 0.210450469270253 
1048	 0.210657557705693 
1049	 0.210834307817294 
1050	 0.211024193158286 
1051	 0.211203810057712 
1052	 0.211460042786755 
1053	 0.211551984080815 
1054	 0.211630565593359 
1055	 0.211791837621706 
1056	 0.211845131168978 
1057	 0.212031552987016 
1058	 0.212477201234355 
1059	 0.212859879241315 
1060	 0.213147352809122 
1061	 0.213471659380485 
1062	 0.213690747832898 
1063	 0.213834313873316 
1064	 0.214086919743811 
1065	 0.214302259393029 
1066	 0.214533025359029 
1067	 0.21463397413434 
1068	 0.214808443420037 
1069	 0.214963154111139 
1070	 0.214962530735519 
1071	 0.215101723489191 
1072	 0.215239400391264 
1073	 0.21522338850301 
1074	 0.215329949770005 
1075	 0.215391804202658 
1076	 0.215369519873751 
1077	 0.215459896280313 
1078	 0.215524074813291 
1079	 0.215631442282978 
1080	 0.215788700877023 
1081	 0.21588731168342 
1082	 0.215968539892047 
1083	 0.216021634784074 
1084	 0.215947624107004 
1085	 0.215909459440038 
1086	 0.215999196306353 
1087	 0.216004467438839 
1088	 0.216016322354582 
1089	 0.216085397094729 
1090	 0.215997221331606 
1091	 0.215869417714201 
1092	 0.215835266632943 
1093	 0.215813886602252 
1094	 0.215734013147539 
1095	 0.215683189603131 
1096	 0.215690382231279 
1097	 0.215783781116809 
1098	 0.21577145695541 
1099	 0.215738117203514 
1100	 0.215758003791796 
1101	 0.215710203211102 
1102	 0.215581580179817 
1103	 0.215527292563792 
1104	 0.21557618876504 
1105	 0.215506058955944 
1106	 0.215439904988673 
1107	 0.215413768151939 
1108	 0.215287585708572 
1109	 0.21527409072932 
1110	 0.215335180586523 
1111	 0.215355187200088 
1112	 0.215420659380953 
1113	 0.215466802514641 
1114	 0.215385511600283 
1115	 0.215440753840216 
1116	 0.21563274339473 
1117	 0.215777229363046 
1118	 0.215873972881524 
1119	 0.216074079246775 
1120	 0.216004556232555 
1121	 0.215801899863442 
1122	 0.215476221951103 
1123	 0.214989913228216 
1124	 0.21460813207437 
1125	 0.21416699855543 
1126	 0.213531647768521 
1127	 0.212951885682706 
1128	 0.212019057368958 
1129	 0.210831749334636 
1130	 0.209628926762105 
1131	 0.20829719072258 
1132	 0.206982558662734 
1133	 0.205692644140845 
1134	 0.204257409723687 
1135	 0.202762654147344 
1136	 0.201346726415668 
1137	 0.199937066381547 
1138	 0.19853994994418 
1139	 0.19714618779082 
1140	 0.195723597575778 
1141	 0.194371076620673 
1142	 0.193049491155251 
1143	 0.191631901241318 
1144	 0.190233524131041 
1145	 0.188713951857273 
1146	 0.187113488305593 
1147	 0.185429038466782 
1148	 0.183626785895232 
1149	 0.182055519746254 
1150	 0.180471887304739 
1151	 0.179088079693363 
1152	 0.177974606847401 
1153	 0.176925535937398 
1154	 0.175908588285696 
1155	 0.174932110776622 
1156	 0.17404919069007 
1157	 0.173306527787809 
1158	 0.172573597793291 
1159	 0.171902244664049 
1160	 0.171309633636216 
1161	 0.170736186028936 
1162	 0.170246209507925 
1163	 0.169853211476621 
1164	 0.169473375329211 
1165	 0.169116440849255 
1166	 0.168775684052887 
1167	 0.168486443664014 
1168	 0.168157487534156 
1169	 0.167751440810899 
1170	 0.167475519831711 
1171	 0.167277686000197 
1172	 0.167090140029147 
1173	 0.16701248495746 
1174	 0.166901349524172 
1175	 0.166642478635053 
1176	 0.166369233010098 
1177	 0.166167487158223 
1178	 0.165950777610742 
1179	 0.165778526700387 
1180	 0.165715405033298 
1181	 0.165564550101292 
1182	 0.165378031281504 
1183	 0.165191919255606 
1184	 0.164967062489795 
1185	 0.164781062336637 
1186	 0.164588041498146 
1187	 0.16442809625931 
1188	 0.164293761218059 
1189	 0.164199831051427 
1190	 0.164066286049072 
1191	 0.163969606311334 
1192	 0.163897843302454 
1193	 0.163769681952199 
1194	 0.16367167267801 
1195	 0.163571211310667 
1196	 0.163516927685216 
1197	 0.163480153241454 
1198	 0.163449929461736 
1199	 0.16344224992582 
1200	 0.163466802339204 
1201	 0.163524920489258 
1202	 0.163547352658822 
1203	 0.163539930315192 
1204	 0.163629699659365 
1205	 0.163746140200665 
1206	 0.163871932511507 
1207	 0.164124488867065 
1208	 0.164293322305296 
1209	 0.164383907544382 
1210	 0.16448574552272 
1211	 0.164660697736121 
1212	 0.16482058568378 
1213	 0.164994305267263 
1214	 0.165210061527232 
1215	 0.165400209443867 
1216	 0.165552828045641 
1217	 0.165778199695075 
1218	 0.166038055403034 
1219	 0.166299089145166 
1220	 0.166631364406855 
1221	 0.166882007529719 
1222	 0.167086152149658 
1223	 0.167323708804201 
1224	 0.167553094159516 
1225	 0.167764395299165 
1226	 0.167984669880342 
1227	 0.168199647329324 
1228	 0.168384464593654 
1229	 0.168565516817119 
1230	 0.168778821525757 
1231	 0.169025259107151 
1232	 0.169262374148185 
1233	 0.169525228046595 
1234	 0.16973004500598 
1235	 0.169913563330795 
1236	 0.170116278298365 
1237	 0.170261630543358 
1238	 0.170495604162084 
1239	 0.17083543586494 
1240	 0.17105663010783 
1241	 0.171261555576211 
1242	 0.171458761101107 
1243	 0.171572009155823 
1244	 0.171728802079047 
1245	 0.171937015857156 
1246	 0.172101390057959 
1247	 0.172254806194543 
1248	 0.172382408514968 
1249	 0.172457381876069 
1250	 0.17256784637589 
1251	 0.172691442207006 
1252	 0.172791448846586 
1253	 0.172896171461544 
1254	 0.173027182212583 
1255	 0.173127756996259 
1256	 0.17320244946844 
1257	 0.173276380817852 
1258	 0.173366671435563 
1259	 0.173403256028086 
1260	 0.173371148838384 
1261	 0.173402554117239 
1262	 0.173439489478012 
1263	 0.173471393680987 
1264	 0.17351676159941 
1265	 0.17358640328524 
1266	 0.173659393523501 
1267	 0.173728103197591 
1268	 0.173856045127969 
1269	 0.173935306985847 
1270	 0.173969003632477 
1271	 0.173999039267061 
1272	 0.174046615497095 
1273	 0.174018776510183 
1274	 0.174016591850481 
1275	 0.17399824238112 
1276	 0.173993194083259 
1277	 0.174017620086269 
1278	 0.173953469103065 
1279	 0.173825492510967 
1280	 0.173768317198025 
1281	 0.173657002226119 
1282	 0.173629561997182 
1283	 0.173767519016446 
1284	 0.173721256484292 
1285	 0.173599614904936 
1286	 0.173490568541418 
1287	 0.173308329053202 
1288	 0.173128496995859 
1289	 0.172986762658491 
1290	 0.172784250080907 
1291	 0.172477825007679 
1292	 0.172231518169213 
1293	 0.172027077340783 
1294	 0.17176778189986 
1295	 0.171504523955058 
1296	 0.171238699728932 
1297	 0.17089566010497 
1298	 0.170445971800141 
1299	 0.170102802952744 
1300	 0.169782742536371 
1301	 0.169412692322398 
1302	 0.169118745135069 
1303	 0.168651677658116 
1304	 0.168024516553222 
1305	 0.167484045322176 
1306	 0.166912995031524 
1307	 0.166318445452216 
1308	 0.165767281974996 
1309	 0.165136047944544 
1310	 0.164390163973351 
1311	 0.163692544685463 
1312	 0.163027027673591 
1313	 0.162293441783769 
1314	 0.161521604698365 
1315	 0.160757201061963 
1316	 0.15996422677457 
1317	 0.159141715131001 
1318	 0.158340839297617 
1319	 0.157487137475129 
1320	 0.156548031378186 
1321	 0.155592868682109 
1322	 0.154667571968839 
1323	 0.153698072833322 
1324	 0.152791201786522 
1325	 0.151927678472713 
1326	 0.151013049573754 
1327	 0.150106648901835 
1328	 0.149131846899262 
1329	 0.148099837908351 
1330	 0.147042591484542 
1331	 0.145920753803977 
1332	 0.144847689872989 
1333	 0.143757583784424 
1334	 0.142726385856823 
1335	 0.141742891313359 
1336	 0.140789682152285 
1337	 0.139775045077747 
1338	 0.138942745186658 
1339	 0.138184290941377 
1340	 0.137490939851881 
1341	 0.136891301268711 
1342	 0.136377551289461 
1343	 0.135966403907271 
1344	 0.135542673056968 
1345	 0.135303448284643 
1346	 0.134888897646095 
1347	 0.134512454795695 
1348	 0.134294939702991 
1349	 0.134163576029616 
1350	 0.134433367092303 
1351	 0.134580327954212 
1352	 0.135112447300199 
1353	 0.13526110216183 
1354	 0.135098799515563 
1355	 0.134969505738441 
1356	 0.133343824143445 
1357	 0.133256440235874 
1358	 0.136095867025304 
1359	 0.138272855572112 
1360	 0.145401155111123 
1361	 0.149908089870814 
1362	 0.139119100563816 
1363	 0.138356251653919 
1364	 0.145410486115383 
1365	 0.142019347746229 
1366	 0.140520741947312 
1367	 0.137644415626145 
1368	 0.12721276939335 
1369	 0.12180270301134 
1370	 0.122295201640849 
1371	 0.120414785672032 
1372	 0.116779743726554 
1373	 0.113804391240045 
1374	 0.11155969821586 
1375	 0.1073033038122 
1376	 0.106678287190983 
1377	 0.10760286673185 
1378	 0.108477475081053 
1379	 0.113581754352581 
1380	 0.112105135484377 
1381	 0.107212957526907 
1382	 0.103489769096172 
1383	 9.74235595577069E-02 
1384	 9.33695852956113E-02 
1385	 9.18234578211147E-02 
1386	 0.087932540380847 
1387	 8.33708138568853E-02 
1388	 7.98893440534368E-02 
1389	 7.58647152407005E-02 
1390	 0.073312527444592 
1391	 7.21403119051721E-02 
1392	 6.98069189025227E-02 
1393	 6.77641124565425E-02 
1394	 6.52950884784018E-02 
1395	 6.21707886368299E-02 
1396	 0.059285162714914 
1397	 5.54187295214514E-02 
1398	 5.32822082943668E-02 
1399	 5.18422060911318E-02 
1400	 5.06355907223769E-02 
1401	 5.14486321891795E-02 
1402	 5.04950724355603E-02 
1403	 4.84592188301876E-02 
1404	 4.69015248776455E-02 
1405	 4.51420172593837E-02 
1406	 4.35611286571108E-02 
1407	 4.19768948721226E-02 
1408	 3.99036171452713E-02 
1409	 3.81116034617843E-02 
1410	 0.036792872893378 
1411	 3.59344094224314E-02 
1412	 3.57733356285806E-02 
1413	 3.51403138074235E-02 
1414	 3.42827593627394E-02 
1415	 3.40395419623433E-02 
1416	 3.41628073166262E-02 
1417	 3.37119467730934E-02 
1418	 3.33361655020284E-02 
1419	 3.29377490423456E-02 
1420	 3.21574818704743E-02 
1421	 3.16472222892502E-02 
1422	 3.14621136769867E-02 
1423	 3.10461183941005E-02 
1424	 3.03303505668562E-02 
1425	 2.99885416776005E-02 
1426	 2.98577753056673E-02 
1427	 2.95837919277302E-02 
1428	 2.93734299344137E-02 
1429	 2.91179903478493E-02 
1430	 2.85830818444527E-02 
1431	 2.84128906430497E-02 
1432	 2.86071866544996E-02 
1433	 2.85295235899848E-02 
1434	 2.84938604226795E-02 
1435	 2.83723638988143E-02 
1436	 2.79065352673872E-02 
1437	 2.77212422882886E-02 
1438	 2.77951408071446E-02 
1439	 2.77355824229999E-02 
1440	 2.77138375517362E-02 
1441	 2.76585208629781E-02 
1442	 2.75231133486347E-02 
1443	 0.027377374980486 
1444	 0.02734946823324 
1445	 2.72373767586785E-02 
1446	 2.70893837295198E-02 
1447	 2.70575657534255E-02 
1448	 2.70140320754565E-02 
1449	 2.69779790882122E-02 
1450	 0.026945838395601 
1451	 2.69270842007609E-02 
1452	 2.69427131751641E-02 
1453	 2.69891228228799E-02 
1454	 2.69848344956506E-02 
1455	 2.69885624549795E-02 
1456	 2.69778217860378E-02 
1457	 2.68819922658903E-02 
1458	 0.026917175375378 
1459	 2.70402969392651E-02 
1460	 2.71183366457176E-02 
1461	 0.027268559973092 
1462	 2.73202129700801E-02 
1463	 2.72679317756239E-02 
1464	 2.73205552001343E-02 
1465	 2.73340947605407E-02 
1466	 2.74729785355928E-02 
1467	 0.027775760402278 
1468	 2.80048205666875E-02 
1469	 2.83108098505872E-02 
1470	 2.85148814983981E-02 
1471	 2.85844094660274E-02 
1472	 2.87428810640333E-02 
1473	 2.88657778714171E-02 
1474	 2.90356761594643E-02 
1475	 2.92772419787953E-02 
1476	 2.94922177332308E-02 
1477	 2.97028591516309E-02 
1478	 2.99066540310262E-02 
1479	 3.00816261827471E-02 
1480	 3.02938020222934E-02 
1481	 3.05213174537104E-02 
1482	 3.07419507314533E-02 
1483	 3.09924905636193E-02 
1484	 3.12155897560612E-02 
1485	 3.13883834144101E-02 
1486	 3.16074875638384E-02 
1487	 3.17968794767077E-02 
1488	 3.20890850789714E-02 
1489	 3.23508711440838E-02 
1490	 3.25139126787223E-02 
1491	 3.27784975876765E-02 
1492	 3.29461645917405E-02 
1493	 0.033137074566941 
1494	 0.033422226901658 
1495	 3.36461931857379E-02 
1496	 3.38344902442981E-02 
1497	 3.40931790289339E-02 
1498	 3.43874496154793E-02 
1499	 3.46652162709281E-02 
1500	 3.49604486044665E-02 
1501	 3.52829076489056E-02 
1502	 3.56197821219446E-02 
1503	 3.59373068534367E-02 
1504	 3.62863573714154E-02 
1505	 3.66136900008092E-02 
1506	 3.68934462291232E-02 
1507	 3.72117193563612E-02 
1508	 3.75728242722787E-02 
1509	 3.78868992652767E-02 
1510	 3.81570193448298E-02 
1511	 3.84990031751299E-02 
1512	 0.038889609537527 
1513	 3.91998716972782E-02 
1514	 3.95160187425986E-02 
1515	 3.98241770346542E-02 
1516	 4.00353853339862E-02 
1517	 0.040349974551012 
1518	 4.07646454488286E-02 
1519	 4.11096368977505E-02 
1520	 4.14270744490274E-02 
1521	 4.17996488570504E-02 
1522	 0.042210396051751 
1523	 4.25510513506716E-02 
1524	 4.29018332991272E-02 
1525	 4.32344491364041E-02 
1526	 4.34699416119101E-02 
1527	 4.37893179039641E-02 
1528	 4.41889465593655E-02 
1529	 4.45348032154735E-02 
1530	 4.48624453574556E-02 
1531	 4.52089759624329E-02 
1532	 4.55488944439508E-02 
1533	 4.58913996419081E-02 
1534	 4.62478984371348E-02 
1535	 4.66110902155037E-02 
1536	 4.69702548005508E-02 
1537	 4.73349110711373E-02 
1538	 4.77173285441013E-02 
1539	 4.80990310365385E-02 
1540	 4.84730188100025E-02 
1541	 4.88526456765753E-02 
1542	 4.92908898014128E-02 
1543	 4.96464899213026E-02 
1544	 4.99033724595176E-02 
1545	 5.02437325224412E-02 
1546	 5.06163130591712E-02 
1547	 5.09352830755798E-02 
1548	 5.12369158500352E-02 
1549	 5.16086007485721E-02 
1550	 5.19885242418624E-02 
1551	 5.23365282775523E-02 
1552	 0.052769039843223 
1553	 0.05315239928176 
1554	 5.34356663223236E-02 
1555	 5.37481402430232E-02 
1556	 5.40660597117613E-02 
1557	 5.44047314897132E-02 
1558	 5.47778148335598E-02 
1559	 0.05511067630485 
1560	 0.05545330222873 
1561	 5.57740990548254E-02 
1562	 5.60061673336455E-02 
1563	 5.62998442931786E-02 
1564	 5.66357566022609E-02 
1565	 5.69687945016571E-02 
1566	 5.73317412186156E-02 
1567	 5.76961387874721E-02 
1568	 0.058069538365138 
1569	 5.84469554455121E-02 
1570	 5.88031374790493E-02 
1571	 5.91766412869239E-02 
1572	 5.94991147403347E-02 
1573	 5.97636818922714E-02 
1574	 6.00832598242751E-02 
1575	 0.060397969029577 
1576	 6.07350023794219E-02 
1577	 0.061115572087427 
1578	 0.061414279066373 
1579	 6.16769810673991E-02 
1580	 6.19612264404151E-02 
1581	 6.22054873668516E-02 
1582	 6.24867883493492E-02 
1583	 6.28014928105568E-02 
1584	 6.30960761326511E-02 
1585	 0.063358109621594 
1586	 6.37042416592685E-02 
1587	 6.41138578538674E-02 
1588	 6.44458029121479E-02 
1589	 6.48257769847662E-02 
1590	 6.50852647371226E-02 
1591	 6.51987607435939E-02 
1592	 6.54827411356346E-02 
1593	 0.065806602435349 
1594	 6.60960827458197E-02 
1595	 6.64865762529181E-02 
1596	 6.67297893873948E-02 
1597	 6.68078688308309E-02 
1598	 6.70913534947704E-02 
1599	 6.74103713061329E-02 
1600	 6.77818863937716E-02 
1601	 6.83754546723968E-02 
1602	 6.86220979335168E-02 
1603	 6.86962974083427E-02 
1604	 6.88794331843313E-02 
1605	 6.88831840982186E-02 
1606	 6.91197141174813E-02 
1607	 6.95678360159805E-02 
1608	 6.98498023866966E-02 
1609	 7.01057859736157E-02 
1610	 7.03808656936601E-02 
1611	 0.070631757140407 
1612	 7.08675976631237E-02 
1613	 7.11197381523983E-02 
1614	 7.13488208156448E-02 
1615	 7.15050308345583E-02 
1616	 7.17630118710093E-02 
1617	 7.20762562222489E-02 
1618	 7.23747601937966E-02 
1619	 7.27429288981126E-02 
1620	 7.29808024421079E-02 
1621	 7.31564491193178E-02 
1622	 0.073351105987698 
1623	 7.34702477540138E-02 
1624	 7.36719687307845E-02 
1625	 7.39427114990874E-02 
1626	 7.41271378879309E-02 
1627	 7.42838300719181E-02 
1628	 7.44683049587403E-02 
1629	 7.46124126663208E-02 
1630	 7.48300592692849E-02 
1631	 0.075120411597128 
1632	 7.53463794814749E-02 
1633	 7.55779076621016E-02 
1634	 7.57621133753739E-02 
1635	 7.59128571485493E-02 
1636	 7.60645736337248E-02 
1637	 7.61832018356152E-02 
1638	 7.63428648724933E-02 
1639	 7.64904073260747E-02 
1640	 7.66851159690045E-02 
1641	 7.69426875096505E-02 
1642	 7.71142479291043E-02 
1643	 7.73025181375815E-02 
1644	 7.73948933564281E-02 
1645	 7.73708304125913E-02 
1646	 7.74398157618922E-02 
1647	 7.75023233173695E-02 
1648	 7.75972863479329E-02 
1649	 7.77213985692396E-02 
1650	 7.78689213305987E-02 
1651	 7.80599168111919E-02 
1652	 7.81507258041797E-02 
1653	 7.82466548006896E-02 
1654	 7.82930727866013E-02 
1655	 7.82356283357789E-02 
1656	 7.82577546471611E-02 
1657	 7.83045808577192E-02 
1658	 7.83181207668403E-02 
1659	 7.83767992465908E-02 
1660	 7.84132032268476E-02 
1661	 7.84440712930827E-02 
1662	 7.85844850522573E-02 
1663	 0.078667356115553 
1664	 0.07863616050141 
1665	 7.86441523467381E-02 
1666	 7.85311043492154E-02 
1667	 7.84138507631036E-02 
1668	 7.84711265497008E-02 
1669	 7.85669712367665E-02 
1670	 7.86571892643586E-02 
1671	 7.86193033422321E-02 
1672	 7.85308567840803E-02 
1673	 7.85030190535203E-02 
1674	 7.85096018715614E-02 
1675	 7.85481556321762E-02 
1676	 7.85145824922382E-02 
1677	 7.84347484446914E-02 
1678	 7.83574800772365E-02 
1679	 7.83039481124621E-02 
1680	 7.83005512310914E-02 
1681	 7.82389373792914E-02 
1682	 7.81596653092499E-02 
1683	 7.81152366501301E-02 
1684	 7.79888647930539E-02 
1685	 7.78305827897237E-02 
1686	 7.76320100140739E-02 
1687	 7.73753203700461E-02 
1688	 7.71470783954031E-02 
1689	 7.70747636981683E-02 
1690	 7.70536410161013E-02 
1691	 7.69434150245157E-02 
1692	 7.67926169245494E-02 
1693	 7.66584731374065E-02 
1694	 7.65153435446986E-02 
1695	 7.63793860413684E-02 
1696	 7.63202516058261E-02 
1697	 7.61447814819495E-02 
1698	 7.58009035408728E-02 
1699	 7.55655401175955E-02 
1700	 7.53539084592995E-02 
1701	 7.51300422419679E-02 
1702	 7.49855604428529E-02 
1703	 7.47981773608582E-02 
1704	 7.45503805029014E-02 
1705	 7.42812548483892E-02 
1706	 7.39937063411754E-02 
1707	 0.073746085119098 
1708	 0.073413026834252 
1709	 7.32386572101003E-02 
1710	 0.073281551831794 
1711	 0.07311850862843 
1712	 7.28920753157406E-02 
1713	 7.27293319676999E-02 
1714	 0.072479540293072 
1715	 7.22603127856498E-02 
1716	 7.21652833769287E-02 
1717	 0.072013537864635 
1718	 7.17794229974732E-02 
1719	 7.15383412513389E-02 
1720	 7.12787402513529E-02 
1721	 0.071071101248887 
1722	 0.070908899823785 
1723	 7.06624903727705E-02 
1724	 0.070384972135427 
1725	 7.01650869913393E-02 
1726	 6.98346149854685E-02 
1727	 6.96649388013979E-02 
1728	 6.97186261436109E-02 
1729	 6.96401758334269E-02 
1730	 6.95163630677428E-02 
1731	 6.93209019614102E-02 
1732	 6.91684849837167E-02 
1733	 6.89382189433214E-02 
1734	 6.87945221768411E-02 
1735	 6.85668809411263E-02 
1736	 6.83030337303059E-02 
1737	 6.82014014003949E-02 
1738	 6.80354602144081E-02 
1739	 6.79310367203078E-02 
1740	 6.77060946836608E-02 
1741	 0.067248992117961 
1742	 6.68808312864742E-02 
1743	 6.65743303050728E-02 
1744	 6.64061832313571E-02 
1745	 6.63475584674252E-02 
1746	 6.61694477092063E-02 
1747	 6.59552120419814E-02 
1748	 6.57094359304496E-02 
1749	 6.53981748509595E-02 
1750	 6.50838185567035E-02 
1751	 6.47978280739413E-02 
1752	 6.44515678899877E-02 
1753	 6.39815775185589E-02 
1754	 6.36826968084756E-02 
1755	 0.063333994300193 
1756	 6.30033351523215E-02 
1757	 6.29466525402278E-02 
1758	 6.27342097123608E-02 
1759	 6.26128144915578E-02 
1760	 6.24312841674413E-02 
1761	 6.21076195990708E-02 
1762	 6.18891726884354E-02 
1763	 6.17162502917406E-02 
1764	 6.15242840569362E-02 
1765	 6.12479481716922E-02 
1766	 6.10875960242735E-02 
1767	 6.10650049694395E-02 
1768	 6.08239624204206E-02 
1769	 6.06829535051724E-02 
1770	 6.04363004532506E-02 
1771	 5.98092092820517E-02 
1772	 5.96239213600231E-02 
1773	 5.95633246791654E-02 
1774	 5.94095864727007E-02 
1775	 0.059482774274417 
1776	 5.94356295937331E-02 
1777	 5.96889651994047E-02 
1778	 5.99485231030321E-02 
1779	 5.99587456053484E-02 
1780	 5.96916470740338E-02 
1781	 5.91594165441117E-02 
1782	 5.87921629642772E-02 
1783	 5.86933698580107E-02 
1784	 5.89178517471513E-02 
1785	 5.92566875428323E-02 
1786	 5.93959612825187E-02 
1787	 5.95105317624195E-02 
1788	 5.93353055575862E-02 
1789	 0.05882397470962 
1790	 0.058262802012291 
1791	 5.80239178442069E-02 
1792	 5.83674567446417E-02 
1793	 0.058987939394457 
1794	 5.96490295676033E-02 
1795	 0.060182497514341 
1796	 6.02729670775734E-02 
1797	 6.00086329915123E-02 
1798	 6.01984250459094E-02 
1799	 6.01444486491731E-02 
1800	 6.01341428133186E-02 
1801	 6.05027043582451E-02 
1802	 6.10799338512515E-02 
1803	 0.061162743269227 
1804	 6.07181395133795E-02 
1805	 0.061206780090825 
1806	 6.24116803735201E-02 
1807	 6.30212708509244E-02 
1808	 6.37931134819844E-02 
1809	 6.53853058207491E-02 
1810	 6.59830700780265E-02 
1811	 0.065088923351291 
1812	 6.52920916922415E-02 
1813	 6.67160109619278E-02 
1814	 6.62484315639772E-02 
1815	 6.38577152751168E-02 
1816	 6.29786603549668E-02 
1817	 0.060533429011763 
1818	 5.95918205605306E-02 
1819	 5.98603205846626E-02 
1820	 6.30886811617469E-02 
1821	 6.54079642841658E-02 
1822	 0.070762196947551 
1823	 7.20505003109973E-02 
1824	 6.98045340123072E-02 
1825	 7.04755463226513E-02 
1826	 6.93795118093376E-02 
1827	 0.068007115439382 
1828	 6.72002515263568E-02 
1829	 7.05024501961027E-02 
1830	 7.52843441407633E-02 
1831	 8.12002178542124E-02 
1832	 8.60328449516839E-02 
1833	 0.106817060857992 
1834	 0.115091580471168 
1835	 8.78937272853952E-02 
1836	 7.34286962533392E-02 
1837	 5.36432221559298E-02 
1838	 3.95187631409475E-02 
1839	 3.27864849819384E-02 
1840	 3.46235916290079E-02 
1841	 5.03295170617213E-02 
1842	 9.97467744109142E-02 
1843	 0.10247339855544 
1844	 9.32097175448487E-02 
1845	 9.14052862075251E-02 
1846	 5.80562202704282E-02 
1847	 4.79126999083677E-02 
1848	 0.047399494566534 
1849	 7.01967456333859E-02 
1850	 7.94433379821884E-02 
1851	 9.06640452177698E-02 
1852	 0.103990810466314 
1853	 0.118312579168817 
1854	 0.127144664916142 
1855	 0.153105611493392 
1856	 0.147819562609104 
1857	 0.112290893124921 
1858	 9.97713229694543E-02 
1859	 8.36358516962197E-02 
1860	 4.53441342464489E-02 
1861	 4.06636670817399E-02 
1862	 5.69045300838847E-02 
1863	 6.33820348907768E-02 
1864	 8.36036608191096E-02 
1865	 9.38453121456952E-02 
1866	 0.094450129328419 
1867	 0.104265420414414 
1868	 0.117130120942225 
1869	 0.123485649289216 
1870	 0.120173823891657 
1871	 0.110276639407012 
1872	 9.19070162494152E-02 
1873	 0.053492243953021 
1874	 4.10077047403446E-02 
1875	 4.76909925294693E-02 
1876	 4.15952498348154E-02 
1877	 3.12803736280464E-02 
1878	 0.034531018686741 
1879	 3.07966035710744E-02 
1880	 2.46280769360415E-02 
1881	 2.63427591618177E-02 
1882	 3.61173256845834E-02 
1883	 3.63386834698606E-02 
1884	 3.46824018112752E-02 
1885	 3.55050951166864E-02 
1886	 3.50805198484318E-02 
1887	 3.29066779766204E-02 
1888	 3.94988243742008E-02 
1889	 3.85825198614808E-02 
1890	 3.68792282145773E-02 
1891	 3.30853240445278E-02 
1892	 3.01667443483305E-02 
1893	 2.26180376589448E-02 
1894	 2.03034301911993E-02 
1895	 2.28758681971306E-02 
1896	 2.25807597609914E-02 
1897	 2.55378461567112E-02 
1898	 2.35166594197678E-02 
1899	 0.013765554650297 
1900	-4.30184344828524E-03 
1901	-1.75218528227949E-03 
1902	 2.49189469842961E-02 
1903	 2.67259287952696E-02 
1904	 3.61626132857823E-02 
1905	 0.039301117711842 
1906	 1.52218848359269E-02 
1907	-4.07783545125872E-03 
1908	 8.93100400248398E-03 
1909	 2.19180045949802E-02 
1910	 2.85154882163382E-02 
1911	 0.024772821703921 
1912	 2.12094507349472E-02 
1913	 1.31404438789514E-02 
1914	 1.19052660167413E-02 
1915	 1.14906722213035E-02 
1916	 1.16463286872337E-02 
1917	 1.18793534647419E-02 
1918	 1.55552592746687E-02 
1919	 1.73436709365703E-02 
1920	 0.018338778261379 
1921	 2.03782438298929E-02 
1922	 1.59816915282989E-02 
1923	 1.46720038340485E-02 
1924	 1.19145387313755E-02 
1925	 1.14630427993142E-02 
1926	 1.45957059392358E-02 
1927	 1.59070500519064E-02 
1928	 1.77318221860341E-02 
1929	 1.68105820400496E-02 
1930	 1.57022363627382E-02 
1931	 9.80257674641102E-03 
1932	 7.23130822939867E-03 
1933	 7.75166529076239E-03 
1934	 7.83639567828704E-03 
1935	 1.00366814892679E-02 
1936	 1.07436439696046E-02 
1937	 1.01657478013127E-02 
1938	 1.04110571527509E-02 
1939	 1.06942255846603E-02 
1940	 1.19327720168208E-02 
1941	 1.25310411074884E-02 
1942	 1.32941246115465E-02 
1943	 1.38951234345997E-02 
1944	 1.33699450936725E-02 
1945	 1.28637604406866E-02 
1946	 1.31479206836933E-02 
1947	 1.29374091383413E-02 
1948	 1.26126904858074E-02 
1949	 1.21461270661106E-02 
1950	 1.14631447942049E-02 
1951	 1.07048703635571E-02 
1952	 1.02337841781066E-02 
1953	 9.55432865756057E-03 
1954	 9.70193631682655E-03 
1955	 1.04644117851057E-02 
1956	 1.07433213736733E-02 
1957	 1.15753824045762E-02 
1958	 1.22955240372548E-02 
1959	 1.28930777731038E-02 
1960	 1.32313051494917E-02 
1961	 0.013753522637076 
1962	 1.40271873226141E-02 
1963	 1.32000604524455E-02 
1964	 1.26965200403443E-02 
1965	 1.19799599014904E-02 
1966	 1.15665801879849E-02 
1967	 1.17149769906401E-02 
1968	 1.16026638556217E-02 
1969	 1.15934036247394E-02 
1970	 1.15772772718101E-02 
1971	 1.15349558692352E-02 
1972	 1.13960734168201E-02 
1973	 0.011636475441669 
1974	 0.012040393898718 
1975	 1.22716226486695E-02 
1976	 1.21742077519935E-02 
1977	 1.19523239192475E-02 
1978	 1.14681406780496E-02 
1979	 1.13362121883425E-02 
1980	 1.17008974680195E-02 
1981	 1.22438614883869E-02 
1982	 1.26924819798928E-02 
1983	 1.34020091647474E-02 
1984	 1.35417797565938E-02 
1985	 1.36386090897102E-02 
1986	 1.38323827548056E-02 
1987	 1.37315060447045E-02 
1988	 1.39001858684376E-02 
1989	 1.38576722814145E-02 
1990	 1.37463500473165E-02 
1991	 1.40092058196153E-02 
1992	 1.40689706795849E-02 
1993	 1.42396724309327E-02 
1994	 1.46088115076185E-02 
1995	 1.48465961187518E-02 
1996	 1.48595484681819E-02 
1997	 1.51117387345674E-02 
1998	 1.55851594632397E-02 
1999	 1.53653971693874E-02 
2000	 1.47583316778871E-02 
2001	 1.46293486377327E-02 
2002	 1.44594561990381E-02 
2003	 1.45649380070981E-02 
2004	 1.54658363437577E-02 
2005	 1.58941260532401E-02 
2006	 1.59883330404376E-02 
2007	 0.015565204817432 
2008	 1.55864202766738E-02 
2009	 1.56339177201888E-02 
2010	 1.53839542026621E-02 
2011	 1.56012451637567E-02 
2012	 0.015877663276402 
2013	 1.54694454619928E-02 
2014	 1.55339454323412E-02 
2015	 1.53426741396658E-02 
2016	 1.45915900424113E-02 
2017	 1.47882863290267E-02 
2018	 1.49546193893896E-02 
2019	 1.50323461976908E-02 
2020	 1.51650643675825E-02 
2021	 1.57913505047735E-02 
2022	 0.015939560861801 
2023	 1.56438311220832E-02 
2024	 1.55663878222496E-02 
2025	 1.55865806489805E-02 
2026	 1.52555376128714E-02 
2027	 1.53086045545106E-02 
2028	 1.56625850274275E-02 
2029	 1.54133775873483E-02 
2030	 1.56684727037707E-02 
2031	 1.64336232045435E-02 
2032	 1.66112935357819E-02 
2033	 1.64944086032988E-02 
2034	 0.016653684459443 
2035	 0.016741487442222 
2036	 1.63017179771134E-02 
2037	 1.66299090045709E-02 
2038	 1.73144745995184E-02 
2039	 1.74775901884269E-02 
2040	 1.74571323894972E-02 
2041	 1.71660283149436E-02 
2042	 1.68934672770246E-02 
2043	 1.69420818625488E-02 
2044	 0.017164304541989 
2045	 1.73756823133951E-02 
2046	 1.78324241547938E-02 
2047	 0.018005757522716 
2048	 1.77870484835379E-02 
2049	 1.76093387698001E-02 
2050	 1.75178391946088E-02 
2051	 1.75395358878623E-02 
2052	 1.78905307659142E-02 
2053	 1.82743554320037E-02 
2054	 1.88382245392501E-02 
2055	 1.91388288640249E-02 
2056	 1.92154334032105E-02 
2057	 1.97444626108227E-02 
2058	 1.96437452304002E-02 
2059	 1.95076331050575E-02 
2060	 1.92157790264033E-02 
2061	 1.92353409293486E-02 
2062	 0.018622414377962 
2063	 1.83477306597834E-02 
2064	 0.018416389044631 
2065	 1.81277558501772E-02 
2066	 1.81161535310687E-02 
2067	 1.82423983150254E-02 
2068	 1.87179286165122E-02 
2069	 0.019321109120709 
2070	 1.92073393030979E-02 
2071	 1.92163544363412E-02 
2072	 1.93623032215107E-02 
2073	 1.93146843928171E-02 
2074	 1.90628465846115E-02 
2075	 1.93586348425017E-02 
2076	 1.96130656698449E-02 
2077	 1.95250532960058E-02 
2078	 1.96106709051136E-02 
2079	 1.99355168780865E-02 
2080	 0.020474263857432 
2081	 2.07833263946387E-02 
2082	 2.05970096690693E-02 
2083	 2.02512371653232E-02 
2084	 1.99688398393319E-02 
2085	 1.99348842507339E-02 
2086	 2.02058129398362E-02 
2087	 2.04161051667228E-02 
2088	 2.08711356164376E-02 
2089	 2.12066422336826E-02 
2090	 2.11876486324924E-02 
2091	 2.09207782077884E-02 
2092	 2.10211038150609E-02 
2093	 2.10562061658638E-02 
2094	 2.11291939042859E-02 
2095	 2.16598417209813E-02 
2096	 2.19357316118201E-02 
2097	 2.19319268301214E-02 
2098	 2.20741732503917E-02 
2099	 2.20772430899746E-02 
2100	 2.20771482869476E-02 
2101	 2.24754859221351E-02 
2102	 0.022647978008898 
2103	 2.27544074193629E-02 
2104	 2.27201736902656E-02 
2105	 2.29626143763658E-02 
2106	 2.33071842842567E-02 
2107	 2.36416384930914E-02 
2108	 2.40195593885509E-02 
2109	 2.40693443062227E-02 
2110	 2.37225572086177E-02 
2111	 2.33165532437695E-02 
2112	 2.30829047836671E-02 
2113	 2.32693546134483E-02 
2114	 2.33325636503378E-02 
2115	 2.33919893360699E-02 
2116	 2.35527823533772E-02 
2117	 2.35241574808806E-02 
2118	 2.31228146170271E-02 
2119	 2.31929683270446E-02 
2120	 2.34478543116238E-02 
2121	 2.35094526972812E-02 
2122	 2.39422061126434E-02 
2123	 2.45086749515369E-02 
2124	 2.43958334721754E-02 
2125	 2.44769926598449E-02 
2126	 2.47247668362248E-02 
2127	 2.44091386276314E-02 
2128	 2.42539451823621E-02 
2129	 2.45590068918831E-02 
2130	 2.46700025013697E-02 
2131	 2.48636111224289E-02 
2132	 2.54773887980308E-02 
2133	 2.55824812819951E-02 
2134	 2.56361722453939E-02 
2135	 0.025421468713222 
2136	 2.56760957601249E-02 
2137	 2.58833553782695E-02 
2138	 0.02639466481959 
2139	 2.68854082640123E-02 
2140	 2.67610179903727E-02 
2141	 2.65696255417032E-02 
2142	 2.61103249607755E-02 
2143	 2.59514589757034E-02 
2144	 2.61576368025921E-02 
2145	 2.62365568577517E-02 
2146	 2.62467655670234E-02 
2147	 0.026099942765105 
2148	 2.63420826920141E-02 
2149	 2.63788076123311E-02 
2150	 2.62582174435561E-02 
2151	 2.64218019530666E-02 
2152	 2.68035390269608E-02 
2153	 2.69664867725349E-02 
2154	 2.71048794632629E-02 
2155	 2.75193291134667E-02 
2156	 2.79950689738375E-02 
2157	 2.77448856538404E-02 
2158	 2.74245423861924E-02 
2159	 2.75877602314722E-02 
2160	 2.72012317406604E-02 
2161	 2.72192641970116E-02 
2162	 2.79730542646842E-02 
2163	 2.82715761776045E-02 
2164	 2.83739137770067E-02 
2165	 2.88178604830516E-02 
2166	 0.028854597865327 
2167	 2.84917758019773E-02 
2168	 2.83920621405783E-02 
2169	 0.028331058766118 
2170	 2.82558651153488E-02 
2171	 2.81725848911896E-02 
2172	 2.84421946652718E-02 
2173	 2.83217097379054E-02 
2174	 2.81408581669814E-02 
2175	 2.79840877008284E-02 
2176	 2.77858134330213E-02 
2177	 2.84814096825999E-02 
2178	 2.93389149556271E-02 
2179	 2.97106779962455E-02 
2180	 2.99887877381438E-02 
2181	 2.95551991195102E-02 
2182	 2.91622366195236E-02 
2183	 2.90161398681555E-02 
2184	 2.87071611900886E-02 
2185	 2.88295877703205E-02 
2186	 2.85651506124546E-02 
2187	 2.82499612640415E-02 
2188	 2.78299205775012E-02 
2189	 2.77360863761249E-02 
2190	 2.74721191273516E-02 
2191	 2.78375922088429E-02 
2192	 2.85739181347905E-02 
2193	 2.88645873738978E-02 
2194	 2.92468762752978E-02 
2195	 2.92078905062855E-02 
2196	 2.90896628094638E-02 
2197	 2.93544191608247E-02 
2198	 2.95353772122694E-02 
2199	 2.97822933579551E-02 
2200	 0.029517793571059 
2201	 2.89652998902972E-02 
2202	 2.90553791241115E-02 
2203	 2.90279873642866E-02 
2204	 2.90069944049712E-02 
2205	 2.95125206299785E-02 
2206	 2.93293958197766E-02 
2207	 2.90562936595395E-02 
2208	 2.90727731608153E-02 
2209	 2.90694411652078E-02 
2210	 2.91932280141807E-02 
2211	 2.96762625835323E-02 
2212	 3.00050034705201E-02 
2213	 2.98337079086484E-02 
2214	 2.99230056638917E-02 
2215	 2.98925642356701E-02 
2216	 2.97301428916925E-02 
2217	 2.97772296257301E-02 
2218	 2.98731264716256E-02 
2219	 2.99153009740107E-02 
2220	 2.96461729628153E-02 
2221	 2.94062576835652E-02 
2222	 0.029740405903898 
2223	 3.00935047899659E-02 
2224	 3.03843096828077E-02 
2225	 3.07984145048751E-02 
2226	 3.04999712468423E-02 
2227	 0.029552062701452 
2228	 2.88150011053196E-02 
2229	 2.84244274523579E-02 
2230	 2.81308995111901E-02 
2231	 2.79352305602801E-02 
2232	 2.82178754305072E-02 
2233	 2.82645390949448E-02 
2234	 2.81504437447675E-02 
2235	 2.80552038264769E-02 
2236	 2.85523484432861E-02 
2237	 2.85067303394659E-02 
2238	 2.83014770566662E-02 
2239	 2.85712013186566E-02 
2240	 2.83859731991325E-02 
2241	 2.81905496379215E-02 
2242	 2.82235868189706E-02 
2243	 2.77294875621384E-02 
2244	 2.68326878934797E-02 
2245	 2.68140969312732E-02 
2246	 2.73958468510865E-02 
2247	 2.77002220824508E-02 
2248	 2.82516376975723E-02 
2249	 2.79143240246404E-02 
2250	 2.65573898600814E-02 
2251	 2.62813420116983E-02 
2252	 2.63306785663052E-02 
2253	 2.61312600820094E-02 
2254	 2.67863742847135E-02 
2255	 2.70480113183671E-02 
2256	 2.69994822798903E-02 
2257	 2.66341932357415E-02 
2258	 2.64312483616776E-02 
2259	 2.57210435004792E-02 
2260	 2.54937994684733E-02 
2261	 2.52466024276503E-02 
2262	 2.48581749392718E-02 
2263	 2.51452362821982E-02 
2264	 2.50560710815536E-02 
2265	 2.46746449900782E-02 
2266	 2.48705977697231E-02 
2267	 2.49524421934355E-02 
2268	 2.44964331605798E-02 
2269	 2.40754737586108E-02 
2270	 2.40163948316317E-02 
2271	 2.40116769232862E-02 
2272	 2.37563491187244E-02 
2273	 2.35307730010952E-02 
2274	 2.31575745666007E-02 
2275	 2.27472584605968E-02 
2276	 0.023708675203212 
2277	 0.025025728540271 
2278	 2.51092303164176E-02 
2279	 2.46388576514949E-02 
2280	 2.35001243598237E-02 
2281	 2.22673093095474E-02 
2282	 2.24235586776808E-02 
2283	 2.34076628270683E-02 
2284	 2.37156104056709E-02 
2285	 0.02350954462029 
2286	 2.32897717589231E-02 
2287	 2.26050805474161E-02 
2288	 2.15819138992379E-02 
2289	 2.15866285042915E-02 
2290	 2.19743335459296E-02 
2291	 2.19985082920964E-02 
2292	 2.28174544992981E-02 
2293	 2.35579848768016E-02 
2294	 0.023685049377923 
2295	 2.33579279904854E-02 
2296	 2.26763491751592E-02 
2297	 2.23435235125122E-02 
2298	 2.19541532024132E-02 
2299	 2.19593435041116E-02 
2300	 2.20935280905129E-02 
2301	 2.15015126106008E-02 
2302	 2.09918907211174E-02 
2303	 2.05671119577663E-02 
2304	 2.02476098535188E-02 
2305	 2.01664480238383E-02 
2306	 2.00547059296916E-02 
2307	 1.95739299308489E-02 
2308	 1.90254778748725E-02 
2309	 1.83543879949362E-02 
2310	 1.80125535110811E-02 
2311	 1.92565990562197E-02 
2312	 2.01696977657174E-02 
2313	 2.09794998930283E-02 
2314	 2.12030247706208E-02 
2315	 2.00092169887005E-02 
2316	 2.01210956434746E-02 
2317	 2.06551621291897E-02 
2318	 2.06763667450473E-02 
2319	 1.99896306421937E-02 
2320	 1.87574738213076E-02 
2321	 1.86635723945122E-02 
2322	 1.91497511367406E-02 
2323	 1.92829191311676E-02 
2324	 2.04517392669345E-02 
2325	 2.05382231497342E-02 
2326	 1.87554052768354E-02 
2327	 1.75293644123072E-02 
2328	 1.68242797771087E-02 
2329	 1.79109591383216E-02 
2330	 1.96816164959377E-02 
2331	 1.91785939490051E-02 
2332	 1.92054116578112E-02 
2333	 1.80538783397082E-02 
2334	 1.56780364610447E-02 
2335	 1.56429704035107E-02 
2336	 1.55424832276151E-02 
2337	 1.49363994114999E-02 
2338	 1.65664639654017E-02 
2339	 0.017992861136644 
2340	 0.018420883335514 
2341	 1.99899342952897E-02 
2342	 2.05445998896737E-02 
2343	 1.91994807679095E-02 
2344	 1.85524880358428E-02 
2345	 1.89690847218968E-02 
2346	 1.82971744133955E-02 
2347	 1.84446789316872E-02 
2348	 1.87349413489043E-02 
2349	 1.73386444550793E-02 
2350	 1.66206967670745E-02 
2351	 1.62514019097021E-02 
2352	 1.65757938327616E-02 
2353	 1.66225171885392E-02 
2354	 1.62722034647947E-02 
2355	 1.63437258226109E-02 
2356	 1.53982485577722E-02 
2357	 1.53811960271435E-02 
2358	 1.59793837046259E-02 
2359	 0.016725841177803 
2360	 1.71014644961216E-02 
2361	 1.48273332854724E-02 
2362	 1.24218858708243E-02 
2363	 1.21290826294981E-02 
2364	 1.29659766288776E-02 
2365	 1.43657523498137E-02 
2366	 1.58549891166459E-02 
2367	 1.57826860129084E-02 
2368	 1.48262314845624E-02 
2369	 1.43705783063684E-02 
2370	 0.014428921812165 
2371	 1.44669168307482E-02 
2372	 1.43119927654404E-02 
2373	 1.37676935563534E-02 
2374	 1.36252120082392E-02 
2375	 1.35296282609702E-02 
2376	 1.40517604321679E-02 
2377	 1.50543380134593E-02 
2378	 1.57912973062481E-02 
2379	 1.74347030224881E-02 
2380	 1.76510944397241E-02 
2381	 1.68261716160489E-02 
2382	 1.66976226599965E-02 
2383	 1.67201829753709E-02 
2384	 1.52298420057158E-02 
2385	 1.14520462384884E-02 
2386	 1.13012544241484E-02 
2387	 1.14527592412214E-02 
2388	 1.30115449291508E-02 
2389	 2.10915403862808E-02 
2390	 2.21510597328009E-02 
2391	 1.83653594201915E-02 
2392	 1.71753461505463E-02 
2393	 1.27346935211069E-02 
2394	 1.13391938791388E-02 
2395	 1.44518570976658E-02 
2396	 0.014560476652541 
2397	 1.36630292137058E-02 
2398	 1.33809912667194E-02 
2399	 1.15230797436886E-02 
2400	 1.12292783065704E-02 
2401	 1.25815488083661E-02 
2402	 1.31237566098432E-02 
2403	 1.22229842486326E-02 
2404	 1.26516250585059E-02 
2405	 1.23133963182213E-02 
2406	 1.04811056124196E-02 
2407	 1.13274494132408E-02 
2408	 1.05589223777852E-02 
2409	 8.4586982674402E-03 
2410	 9.34175381366585E-03 
2411	 8.72075481463938E-03 
2412	 8.32126246300052E-03 
2413	 1.13362296231574E-02 
2414	 1.12651541279421E-02 
2415	 1.02205342981324E-02 
2416	 1.27707822446275E-02 
2417	 1.29108394467527E-02 
2418	 1.06764979818985E-02 
2419	 9.70186353174587E-03 
2420	 8.96039777073494E-03 
2421	 9.13770774527459E-03 
2422	 1.25109858917152E-02 
2423	 1.66306071477724E-02 
2424	 1.89997960970965E-02 
2425	 1.72361203052902E-02 
2426	 0.014635949788888 
2427	 1.60764621572584E-02 
2428	 1.53300831460193E-02 
2429	 1.58352390548882E-02 
2430	 2.02684173240832E-02 
2431	 1.93839632235646E-02 
2432	 1.82691367929819E-02 
2433	 1.97716745389703E-02 
2434	 1.94756441807607E-02 
2435	 0.018834290208967 
2436	 1.82172360707946E-02 
2437	 1.78503268237412E-02 
2438	 1.63204822148856E-02 
2439	 1.19194857270695E-02 
2440	 1.01744447096669E-02 
2441	 9.56447982519738E-03 
2442	 7.72761259845571E-03 
2443	 7.41889115304571E-03 
2444	 7.59101473829053E-03 
2445	 6.12730116113103E-03 
2446	 5.7151349353359E-03 
2447	 5.66046296445992E-03 
2448	 7.40783288462544E-03 
2449	 9.98003505443958E-03 
2450	 0.013754923404557 
2451	 2.49850775894944E-02 
2452	 2.80866304973976E-02 
2453	 2.44221720318685E-02 
2454	 2.38731521284407E-02 
2455	 2.07724076314626E-02 
2456	 1.99033132725282E-02 
2457	 2.50484152743282E-02 
2458	 2.29963224981851E-02 
2459	 1.18823417657361E-02 
2460	 8.15045627027981E-03 
2461	 6.23950843187781E-03 
2462	 4.35099551564759E-03 
2463	 9.98396038950953E-03 
2464	 9.18958544785531E-03 
2465	-3.57630053785549E-04 
2466	-5.45328747902988E-03 
2467	-1.08062736520042E-02 
2468	-0.01257210441169 
2469	-1.14504791344679E-02 
2470	-4.90516372939153E-03 
2471	 1.17062379702936E-02 
2472	 1.90122128704401E-02 
2473	 2.62423978142811E-02 
2474	 2.55432517917792E-02 
2475	 1.20185251649727E-02 
2476	 6.37122714068081E-03 
2477	-1.58117324386408E-03 
2478	 2.1604167651582E-03 
2479	 0.021049807050066 
2480	 2.27016235522499E-02 
2481	 2.48582155058064E-02 
2482	 1.49660455632127E-02 
2483	-0.029876539885967 
2484	-4.20727543543682E-02 
2485	-3.86212890698805E-02 
2486	-2.13788593079437E-02 
2487	 8.80615434560427E-03 
2488	 4.54820492704337E-02 
2489	 4.89469998174753E-02 
2490	 4.91477609672087E-02 
2491	 5.40372933264966E-02 
2492	-3.58266683810947E-03 
2493	-3.15932201884787E-02 
2494	-1.95965630169945E-03 
2495	 2.13225125910719E-02 
2496	 4.99064746640518E-02 
2497	 9.11355607840518E-02 
2498	 0.12152105905029 
2499	 0.103448366384306 
2500	 8.62102539024864E-02 
