Wavelength	ref00060.asd
350	 3.36920264801213E-02 
351	 3.50047942304186E-02 
352	 3.63031260858656E-02 
353	 3.65637180752447E-02 
354	 3.68305747015185E-02 
355	 3.71148231486546E-02 
356	 3.72678311974734E-02 
357	 3.70717013838677E-02 
358	 3.83176483511859E-02 
359	 4.00847238173739E-02 
360	 4.08245441938791E-02 
361	 4.02674102719756E-02 
362	 4.00836615389398E-02 
363	 4.09987943145087E-02 
364	 4.27574988598628E-02 
365	 4.29694273197495E-02 
366	 4.27822739334923E-02 
367	 4.32653676133265E-02 
368	 4.47297940572195E-02 
369	 4.59874000066409E-02 
370	 4.67378534036889E-02 
371	 4.72661636796656E-02 
372	 4.88653428503216E-02 
373	 5.00802011321037E-02 
374	 5.08809345562713E-02 
375	 5.20145029656236E-02 
376	 5.39392247765924E-02 
377	 5.57665081876471E-02 
378	 5.72947316474335E-02 
379	 5.92605686933782E-02 
380	 6.05830560489154E-02 
381	 6.22192285951048E-02 
382	 6.47816151036189E-02 
383	 6.67758915381759E-02 
384	 6.91562668391793E-02 
385	 7.18682072447099E-02 
386	 7.44459146950181E-02 
387	 7.69092034948648E-02 
388	 7.97288925445718E-02 
389	 8.27359568905189E-02 
390	 8.51257594623458E-02 
391	 8.82401689515642E-02 
392	 9.13273587008057E-02 
393	 9.38815300616759E-02 
394	 9.67071636781654E-02 
395	 0.100116068838284 
396	 0.103632024495202 
397	 0.106663496523503 
398	 0.10972803887926 
399	 0.112515165128457 
400	 0.115062594473871 
401	 0.117687316301171 
402	 0.119929420936982 
403	 0.121860404236685 
404	 0.123754355844416 
405	 0.126163860131557 
406	 0.128490161278705 
407	 0.130634711190473 
408	 0.132681889930941 
409	 0.134696165010058 
410	 0.136817290728461 
411	 0.138922940604689 
412	 0.140699201851093 
413	 0.142439599419349 
414	 0.143995290274148 
415	 0.145335768975181 
416	 0.146820615253061 
417	 0.148141403599186 
418	 0.149269279987194 
419	 0.150315169459462 
420	 0.151532836795294 
421	 0.15265410970003 
422	 0.153556933434191 
423	 0.154304385362725 
424	 0.155377999883774 
425	 0.156230708473285 
426	 0.156598943980307 
427	 0.157179282122105 
428	 0.157958750448206 
429	 0.158600393690502 
430	 0.158812016893959 
431	 0.159232843209509 
432	 0.159624619669665 
433	 0.159867742737726 
434	 0.159986236915973 
435	 0.159888723225806 
436	 0.159695609060051 
437	 0.159489043025985 
438	 0.159207318423573 
439	 0.158852848803658 
440	 0.158423784356315 
441	 0.157902888068624 
442	 0.157170331709332 
443	 0.156458008906377 
444	 0.155801962380139 
445	 0.155033906923783 
446	 0.154104758381668 
447	 0.153095945260717 
448	 0.152063449849456 
449	 0.150948727805582 
450	 0.149716723537063 
451	 0.148409162014152 
452	 0.147105757022709 
453	 0.145895471748303 
454	 0.14455225094255 
455	 0.143018573443027 
456	 0.141456758273307 
457	 0.139793032208047 
458	 0.138063402995974 
459	 0.136298196777105 
460	 0.134441315263892 
461	 0.132631424745035 
462	 0.13079061251598 
463	 0.128759208012539 
464	 0.126751318091165 
465	 0.124714014211551 
466	 0.122603082194134 
467	 0.120439364493315 
468	 0.118165827757472 
469	 0.115842839331301 
470	 0.113546821560132 
471	 0.111282430410462 
472	 0.10894118104441 
473	 0.106557040687341 
474	 0.104250478649489 
475	 0.10187173827362 
476	 9.94687979673411E-02 
477	 9.70859295894278E-02 
478	 9.47129749283499E-02 
479	 9.24027460729906E-02 
480	 9.01580403500428E-02 
481	 8.79522274670661E-02 
482	 8.57357503187249E-02 
483	 8.35208028964901E-02 
484	 8.13795198085278E-02 
485	 7.94228250993018E-02 
486	 7.72857491160068E-02 
487	 7.50033407035949E-02 
488	 7.27533912056245E-02 
489	 7.08228807721095E-02 
490	 6.90024685344116E-02 
491	 6.71762940384931E-02 
492	 6.52980504348132E-02 
493	 6.36148932559799E-02 
494	 6.19176029715433E-02 
495	 6.02318657877964E-02 
496	 5.89007700485629E-02 
497	 5.74327676207965E-02 
498	 5.59621057712575E-02 
499	 5.46696952326045E-02 
500	 5.33322802005348E-02 
501	 5.21297642315285E-02 
502	 5.10238247879279E-02 
503	 4.98500120103105E-02 
504	 4.86735157550262E-02 
505	 4.75648410643408E-02 
506	 4.65681368781088E-02 
507	 4.56899482797447E-02 
508	 4.48207432537339E-02 
509	 4.39708826263521E-02 
510	 4.31824062780745E-02 
511	 4.24332631719222E-02 
512	 4.17680601218534E-02 
513	 4.11818810314759E-02 
514	 4.06243570176071E-02 
515	 4.00514358921452E-02 
516	 3.95923733852755E-02 
517	 3.92816524442324E-02 
518	 3.88390303893599E-02 
519	 3.84903388684914E-02 
520	 3.81364927831926E-02 
521	 3.76395902907802E-02 
522	 3.74211170731641E-02 
523	 3.71290251904249E-02 
524	 3.67210685022056E-02 
525	 3.65516743619228E-02 
526	 3.64183668620843E-02 
527	 3.62337126976715E-02 
528	 3.59710542307091E-02 
529	 3.56912477646381E-02 
530	 3.55203303852068E-02 
531	 3.54165980466564E-02 
532	 3.52672559524901E-02 
533	 3.52802537204093E-02 
534	 3.53004228705158E-02 
535	 3.52408065661015E-02 
536	 3.51895354526876E-02 
537	 0.035228958715542 
538	 3.52607298135794E-02 
539	 3.52151616019035E-02 
540	 3.54341308905143E-02 
541	 3.56775234622368E-02 
542	 3.58126532210625E-02 
543	 0.035840589678119 
544	 3.60023101390306E-02 
545	 3.62606792990496E-02 
546	 3.65529211001206E-02 
547	 3.68810630497418E-02 
548	 3.72271138866651E-02 
549	 3.75965862411858E-02 
550	 3.80146254833067E-02 
551	 3.85622376020949E-02 
552	 3.90975903204651E-02 
553	 3.95742716165565E-02 
554	 4.00776404981813E-02 
555	 4.07636718858873E-02 
556	 4.15712816342496E-02 
557	 4.24163158270161E-02 
558	 4.33323800991143E-02 
559	 4.43636822967262E-02 
560	 0.045491360085977 
561	 4.66706894226709E-02 
562	 0.047974260884912 
563	 0.049419233134128 
564	 0.05102417436316 
565	 5.28111125225346E-02 
566	 5.47265160357725E-02 
567	 5.67976775763532E-02 
568	 5.90673498394807E-02 
569	 0.061521934027068 
570	 6.40925699887886E-02 
571	 6.67921245620278E-02 
572	 6.97131254424112E-02 
573	 7.28061528136226E-02 
574	 7.61171414138155E-02 
575	 7.96762082487272E-02 
576	 8.33356177630971E-02 
577	 0.087277399658322 
578	 9.14309923241263E-02 
579	 9.56549547299305E-02 
580	 0.100152706842774 
581	 0.104818345882122 
582	 0.109641982489863 
583	 0.114786421681392 
584	 0.120344329129144 
585	 0.126235648898015 
586	 0.132325853420173 
587	 0.138555087248853 
588	 0.145291163248135 
589	 0.152726930134635 
590	 0.160707677686996 
591	 0.168835877055092 
592	 0.176990034816011 
593	 0.185354644758723 
594	 0.194090469392412 
595	 0.203196124322078 
596	 0.212466639159317 
597	 0.221718598022447 
598	 0.231021076932594 
599	 0.240335769943797 
600	 0.249783345251334 
601	 0.259598886257473 
602	 0.269431522559416 
603	 0.279248367959437 
604	 0.289078490287543 
605	 0.298991348106019 
606	 0.309041076174171 
607	 0.319077726678849 
608	 0.328861828208314 
609	 0.338742457961466 
610	 0.348537260776042 
611	 0.358050898068091 
612	 0.36722571696762 
613	 0.376154743418112 
614	 0.384932443089497 
615	 0.393554113119029 
616	 0.401769576284868 
617	 0.409816885453696 
618	 0.417606201367335 
619	 0.424962967737097 
620	 0.431962408501111 
621	 0.438708226691328 
622	 0.445264310094812 
623	 0.451606032053851 
624	 0.457710988762632 
625	 0.463634159250561 
626	 0.469405420513706 
627	 0.474880228586975 
628	 0.480097779429586 
629	 0.485110953586635 
630	 0.489925699505254 
631	 0.494683595123035 
632	 0.499221853326063 
633	 0.503428992730741 
634	 0.507501694501242 
635	 0.511433775463352 
636	 0.515217101247158 
637	 0.518810142664095 
638	 0.522133653072778 
639	 0.525286787560068 
640	 0.528381313265445 
641	 0.531430015826536 
642	 0.534153771678854 
643	 0.5366824485169 
644	 0.539176415841456 
645	 0.541428037142248 
646	 0.543429292921832 
647	 0.545325895535332 
648	 0.547362490082035 
649	 0.549651313738358 
650	 0.551856108356533 
651	 0.553792831765755 
652	 0.555729666282167 
653	 0.55743501320862 
654	 0.558882612962013 
655	 0.560248732595218 
656	 0.562115021005403 
657	 0.564153521206878 
658	 0.565777340718445 
659	 0.566733939506249 
660	 0.567374426997787 
661	 0.567983517332849 
662	 0.568648953160827 
663	 0.569181532161225 
664	 0.569577146051156 
665	 0.56986690795938 
666	 0.570118556737548 
667	 0.570427833540985 
668	 0.570754726251712 
669	 0.571074481943237 
670	 0.571390498491213 
671	 0.571747352016303 
672	 0.572072043846418 
673	 0.572380588481337 
674	 0.572982283276671 
675	 0.573454467469855 
676	 0.573852799107165 
677	 0.574401930016734 
678	 0.575105728633245 
679	 0.575820171654121 
680	 0.576642877327571 
681	 0.577904677912299 
682	 0.579195820993465 
683	 0.580791487172781 
684	 0.582845076596065 
685	 0.584806780636792 
686	 0.587113926017119 
687	 0.590143972754757 
688	 0.593803176718144 
689	 0.597179208324791 
690	 0.600163716458133 
691	 0.602917341993343 
692	 0.605477756786409 
693	 0.608076175507301 
694	 0.610749876176738 
695	 0.613569538068705 
696	 0.61699374065518 
697	 0.620095551583241 
698	 0.62275475990571 
699	 0.625225289126664 
700	 0.627608263012115 
701	 0.630168439581483 
702	 0.632888971373483 
703	 0.635407801825761 
704	 0.637761901933984 
705	 0.639941187291436 
706	 0.642033512831534 
707	 0.644335662963334 
708	 0.646560494996927 
709	 0.648590723556848 
710	 0.650417701138772 
711	 0.652256592818893 
712	 0.654007505704823 
713	 0.655605994460229 
714	 0.657062217506648 
715	 0.658344932232642 
716	 0.659058827478621 
717	 0.65916487679091 
718	 0.659767149599636 
719	 0.661473217246897 
720	 0.664021045621418 
721	 0.666515763200873 
722	 0.66827423630487 
723	 0.669382700491985 
724	 0.670200079641927 
725	 0.671225663612698 
726	 0.672759971490231 
727	 0.674370476611771 
728	 0.675772280812724 
729	 0.677297132584472 
730	 0.678757399565862 
731	 0.68030595404962 
732	 0.682110873559516 
733	 0.683745449853414 
734	 0.685071590114427 
735	 0.686151100646458 
736	 0.687179904071506 
737	 0.688448257477716 
738	 0.68967552551205 
739	 0.690686375158509 
740	 0.691688486682431 
741	 0.692694288149587 
742	 0.69362302198085 
743	 0.694407203578665 
744	 0.695254861295655 
745	 0.695994965183645 
746	 0.696654408801627 
747	 0.697392852424044 
748	 0.697976097295649 
749	 0.69862473753797 
750	 0.699379754345302 
751	 0.699877773475396 
752	 0.700476416730005 
753	 0.701096663359633 
754	 0.701605493659818 
755	 0.702153950976493 
756	 0.702549679607909 
757	 0.702607302742822 
758	 0.702249743029206 
759	 0.702088402036406 
760	 0.703267621776902 
761	 0.706301694381821 
762	 0.708034424089626 
763	 0.708574242538701 
764	 0.708910738931829 
765	 0.709412828259698 
766	 0.709409673326416 
767	 0.709270353196595 
768	 0.709245749554623 
769	 0.709466904314104 
770	 0.709687252331789 
771	 0.709995922511614 
772	 0.710458324032257 
773	 0.711070216281412 
774	 0.71138269963761 
775	 0.711735001431846 
776	 0.712318756668274 
777	 0.712872889194147 
778	 0.71328045455465 
779	 0.71366114347179 
780	 0.714158964640554 
781	 0.714746084746738 
782	 0.715258727132196 
783	 0.71567276113596 
784	 0.716054929021004 
785	 0.716477784453062 
786	 0.716843035586831 
787	 0.717148140457707 
788	 0.717502293133605 
789	 0.71788650888356 
790	 0.718271749882274 
791	 0.718687991022368 
792	 0.719291588434792 
793	 0.720046293006319 
794	 0.720752610300845 
795	 0.721233144793496 
796	 0.721636009086481 
797	 0.721920344267665 
798	 0.722313719239884 
799	 0.723074794215131 
800	 0.723504520344696 
801	 0.72377565516141 
802	 0.724148353360937 
803	 0.724851991079965 
804	 0.725611048688599 
805	 0.726226695554619 
806	 0.726669225502079 
807	 0.727229362344126 
808	 0.727564118527231 
809	 0.727738662438206 
810	 0.727873522017683 
811	 0.727789648309396 
812	 0.727417272522342 
813	 0.726957917100971 
814	 0.726724744238772 
815	 0.726452958959801 
816	 0.726616872030386 
817	 0.727324312407346 
818	 0.72820285311417 
819	 0.729229292792498 
820	 0.730124452669234 
821	 0.730700817710419 
822	 0.730944012877505 
823	 0.731364047421589 
824	 0.732166004844344 
825	 0.733226207985672 
826	 0.733988718166019 
827	 0.734272663124644 
828	 0.734489546971604 
829	 0.735116287089226 
830	 0.735442889785335 
831	 0.736053267750786 
832	 0.736875782420252 
833	 0.737393846066156 
834	 0.738117468348934 
835	 0.73895255767966 
836	 0.739737009396489 
837	 0.740340592010215 
838	 0.741098084648136 
839	 0.741716757615727 
840	 0.742096551538996 
841	 0.742757606635357 
842	 0.743340442229978 
843	 0.743751101985582 
844	 0.744051271598194 
845	 0.744527219915964 
846	 0.745114822820048 
847	 0.745591903366025 
848	 0.74579300862854 
849	 0.746210350787533 
850	 0.746679510212533 
851	 0.747168626706972 
852	 0.747740344682293 
853	 0.748188223415165 
854	 0.748576122187308 
855	 0.749110494939592 
856	 0.750036035467666 
857	 0.750677239718508 
858	 0.7510144429074 
859	 0.751193699221926 
860	 0.751389244454424 
861	 0.752110338564809 
862	 0.752646244481732 
863	 0.75258220400006 
864	 0.753047647104136 
865	 0.753725578146042 
866	 0.754370259388496 
867	 0.75485039032904 
868	 0.755531324916631 
869	 0.755749455138008 
870	 0.755826076961646 
871	 0.756371405662795 
872	 0.756852537349635 
873	 0.757373999935538 
874	 0.757861556922072 
875	 0.75815087928724 
876	 0.758491411435833 
877	 0.758848900544139 
878	 0.759322910757278 
879	 0.760087209334473 
880	 0.760348207292692 
881	 0.760512595937398 
882	 0.760905345261329 
883	 0.761453285566775 
884	 0.761674798387174 
885	 0.761976383960634 
886	 0.762467126360444 
887	 0.762391765346618 
888	 0.762659753281029 
889	 0.762927012684289 
890	 0.762914885100955 
891	 0.763388418539412 
892	 0.76321459268049 
893	 0.762735389521657 
894	 0.762473459639815 
895	 0.761625386121217 
896	 0.761715386852407 
897	 0.761917470023165 
898	 0.761030441440276 
899	 0.761281323533752 
900	 0.76201513736181 
901	 0.762776304203505 
902	 0.763360279145536 
903	 0.764021558755056 
904	 0.764662747708791 
905	 0.765002342152534 
906	 0.764819410471441 
907	 0.764914285741792 
908	 0.764963453566022 
909	 0.764862219601466 
910	 0.764748337163589 
911	 0.764437286935925 
912	 0.764426313410037 
913	 0.76503970406994 
914	 0.766194899992721 
915	 0.766525578334836 
916	 0.766416183627758 
917	 0.76669749187878 
918	 0.768115870559453 
919	 0.768307398722967 
920	 0.768711690175476 
921	 0.769726114444872 
922	 0.769770076700673 
923	 0.769371691692431 
924	 0.76881677270764 
925	 0.768212593844708 
926	 0.767421707428207 
927	 0.766583716740907 
928	 0.764999786389494 
929	 0.762500796530082 
930	 0.760311993204173 
931	 0.758464980635199 
932	 0.756085924921345 
933	 0.753140871749064 
934	 0.751970499258759 
935	 0.751219763682378 
936	 0.75126440277543 
937	 0.752043010968931 
938	 0.752032213195672 
939	 0.752512002066971 
940	 0.752146968542101 
941	 0.751254096867305 
942	 0.754103347763768 
943	 0.754860185014941 
944	 0.753547084159626 
945	 0.751953849129588 
946	 0.752135406932142 
947	 0.752068420942531 
948	 0.751551755301026 
949	 0.750996616239675 
950	 0.750944568231612 
951	 0.750846631693004 
952	 0.750854323129923 
953	 0.750798241125239 
954	 0.749537973806701 
955	 0.750449674765366 
956	 0.751868900833453 
957	 0.751925604997849 
958	 0.751087235544757 
959	 0.749955582261176 
960	 0.750262325002673 
961	 0.751996521727715 
962	 0.751894101878396 
963	 0.752297369283369 
964	 0.753545357952486 
965	 0.755230328147681 
966	 0.756554659287516 
967	 0.757428987869292 
968	 0.758457302561037 
969	 0.759451372202762 
970	 0.758917759025431 
971	 0.758683646862401 
972	 0.759668358289921 
973	 0.760936894508158 
974	 0.759630744093532 
975	 0.759613890798434 
976	 0.759750963808267 
977	 0.760092061406463 
978	 0.762808870226337 
979	 0.762068630449816 
980	 0.761901068507207 
981	 0.763970657391144 
982	 0.765448872253492 
983	 0.763315545384787 
984	 0.763601231416108 
985	 0.766492406087836 
986	 0.766594008440767 
987	 0.768202274329162 
988	 0.769525589676066 
989	 0.770016741116248 
990	 0.770565572906894 
991	 0.771354255618093 
992	 0.771775476654116 
993	 0.772011407455977 
994	 0.772521763701707 
995	 0.772142471875328 
996	 0.772992209375211 
997	 0.774163070341778 
998	 0.773839773213507 
999	 0.773473598590251 
1000	 0.773487175459176 
1001	 0.771622073252079 
1002	 0.772298012818404 
1003	 0.772964001913053 
1004	 0.773469637626921 
1005	 0.774174989820337 
1006	 0.77513666475276 
1007	 0.775805841209939 
1008	 0.776320695171737 
1009	 0.776922049148959 
1010	 0.777508060016308 
1011	 0.777940860870687 
1012	 0.778386682593793 
1013	 0.779123442972667 
1014	 0.779653500578151 
1015	 0.780263454024161 
1016	 0.781160412989823 
1017	 0.781865781633398 
1018	 0.782435304794222 
1019	 0.782865474889238 
1020	 0.783454662931572 
1021	 0.783916213626961 
1022	 0.784507251750427 
1023	 0.785379357787958 
1024	 0.785974912559793 
1025	 0.786266440381959 
1026	 0.786629984802993 
1027	 0.787034188256191 
1028	 0.787527878667912 
1029	 0.788257872575858 
1030	 0.789068177624836 
1031	 0.789800258722451 
1032	 0.790593868981037 
1033	 0.791251522563637 
1034	 0.791844950340888 
1035	 0.792409415944019 
1036	 0.792813060640173 
1037	 0.793222479807981 
1038	 0.793583135463397 
1039	 0.79413688862098 
1040	 0.794560398626679 
1041	 0.795163351437192 
1042	 0.79564995315496 
1043	 0.795938843135111 
1044	 0.796233271890179 
1045	 0.796405395734124 
1046	 0.796798022095883 
1047	 0.797203405904675 
1048	 0.797455226068432 
1049	 0.797948996682441 
1050	 0.798365665972975 
1051	 0.798776694396704 
1052	 0.799037508806367 
1053	 0.799389822435795 
1054	 0.799662153611067 
1055	 0.799838697628302 
1056	 0.80010750869299 
1057	 0.800407149609233 
1058	 0.800510389783808 
1059	 0.800597945232823 
1060	 0.800900713830653 
1061	 0.801097980507602 
1062	 0.801398125910795 
1063	 0.801900414220062 
1064	 0.802090550864261 
1065	 0.802139954215127 
1066	 0.802037264362856 
1067	 0.802035156746073 
1068	 0.802044698256763 
1069	 0.802245047862734 
1070	 0.802783634127941 
1071	 0.803060933022699 
1072	 0.803065005807376 
1073	 0.803121373580593 
1074	 0.802947856263533 
1075	 0.802789292182547 
1076	 0.802938014164036 
1077	 0.802874148406016 
1078	 0.802618273403908 
1079	 0.802680398726061 
1080	 0.802702724043282 
1081	 0.802699497848195 
1082	 0.802664287461146 
1083	 0.80294083501936 
1084	 0.802954257863142 
1085	 0.802688259599557 
1086	 0.802466747891767 
1087	 0.802159281407433 
1088	 0.801933108938435 
1089	 0.801861473488892 
1090	 0.801704886570182 
1091	 0.801407976777067 
1092	 0.801177242021084 
1093	 0.800968974501439 
1094	 0.800554840571396 
1095	 0.800198545170609 
1096	 0.799819605335259 
1097	 0.799268107002262 
1098	 0.798745225513889 
1099	 0.798285691249013 
1100	 0.797837517966334 
1101	 0.797214669071883 
1102	 0.796602727839448 
1103	 0.795966031160668 
1104	 0.795423864291287 
1105	 0.794797732910111 
1106	 0.793995268215491 
1107	 0.793135740572096 
1108	 0.792104630761899 
1109	 0.790829731740049 
1110	 0.789441601891834 
1111	 0.787902938895612 
1112	 0.785905786289349 
1113	 0.784129167076492 
1114	 0.782215185431077 
1115	 0.780330386319116 
1116	 0.778574963154334 
1117	 0.776686239341611 
1118	 0.774558810477799 
1119	 0.772449427467652 
1120	 0.770503815010666 
1121	 0.768774588404067 
1122	 0.767532936120794 
1123	 0.766563567938437 
1124	 0.765505334868375 
1125	 0.764803858689332 
1126	 0.764328457384227 
1127	 0.764011329062803 
1128	 0.763800582135243 
1129	 0.764177832873105 
1130	 0.764132563336654 
1131	 0.764046212893363 
1132	 0.763834285726133 
1133	 0.763654221961156 
1134	 0.763061097518539 
1135	 0.762301341230454 
1136	 0.761350879422659 
1137	 0.760077753603449 
1138	 0.758645675250178 
1139	 0.757038721685891 
1140	 0.7553679194318 
1141	 0.753536366291984 
1142	 0.751682628546946 
1143	 0.749831729424914 
1144	 0.747756852069783 
1145	 0.745993034127884 
1146	 0.744172192002343 
1147	 0.742767358609154 
1148	 0.74175322666563 
1149	 0.740804734090377 
1150	 0.740110420899106 
1151	 0.739595310233094 
1152	 0.739261858731312 
1153	 0.738913045854557 
1154	 0.738794167422431 
1155	 0.738948540452604 
1156	 0.739292186614453 
1157	 0.739746258352652 
1158	 0.740122107743556 
1159	 0.740528322035136 
1160	 0.740839794862404 
1161	 0.741011329187134 
1162	 0.741222992073456 
1163	 0.741484010694937 
1164	 0.741675270325048 
1165	 0.741832852101402 
1166	 0.74192143372625 
1167	 0.741877069899225 
1168	 0.741996519454112 
1169	 0.742143603662005 
1170	 0.742309575481641 
1171	 0.742532771562776 
1172	 0.742737400236621 
1173	 0.742867720606656 
1174	 0.742880917000186 
1175	 0.74289901924264 
1176	 0.743018962000624 
1177	 0.742994354009062 
1178	 0.742815727361154 
1179	 0.742781090119399 
1180	 0.74272091771237 
1181	 0.742696917516206 
1182	 0.742797766453113 
1183	 0.742830377769264 
1184	 0.742814555806214 
1185	 0.742843618150159 
1186	 0.742867780429479 
1187	 0.742918573571574 
1188	 0.74298863019507 
1189	 0.74311350155509 
1190	 0.743187818281024 
1191	 0.743141959199582 
1192	 0.743124187891144 
1193	 0.743164119630676 
1194	 0.743223513617982 
1195	 0.74335084353151 
1196	 0.743444916041308 
1197	 0.743546733566324 
1198	 0.743606653358351 
1199	 0.743638629884416 
1200	 0.743722242270935 
1201	 0.743721875353119 
1202	 0.743895712387617 
1203	 0.744184119074157 
1204	 0.744478403553871 
1205	 0.744963839813302 
1206	 0.745294975798652 
1207	 0.74550021857508 
1208	 0.745799653939093 
1209	 0.746101516961266 
1210	 0.746341551537414 
1211	 0.74669793239995 
1212	 0.747156086584266 
1213	 0.747607079627174 
1214	 0.74810164810433 
1215	 0.748539889782737 
1216	 0.748992046045269 
1217	 0.749463218010338 
1218	 0.749898148390921 
1219	 0.75036176269839 
1220	 0.750905953881189 
1221	 0.751364795852836 
1222	 0.751772565694454 
1223	 0.75219827013442 
1224	 0.75255658616136 
1225	 0.752998173725826 
1226	 0.753512509728479 
1227	 0.753986976022713 
1228	 0.754467116892003 
1229	 0.754993493684869 
1230	 0.755511650998811 
1231	 0.755905561564905 
1232	 0.756325059185773 
1233	 0.756773689214906 
1234	 0.757128916133027 
1235	 0.757379559520527 
1236	 0.757721841791767 
1237	 0.758023743122931 
1238	 0.758398715493882 
1239	 0.758886127882142 
1240	 0.759292665958439 
1241	 0.759707272074824 
1242	 0.760077970944858 
1243	 0.760436760487813 
1244	 0.76072977068109 
1245	 0.760933023589237 
1246	 0.76118853300853 
1247	 0.761415220053203 
1248	 0.761645451016689 
1249	 0.761911864399451 
1250	 0.762167340581951 
1251	 0.762426600948206 
1252	 0.762642660983415 
1253	 0.762866430764354 
1254	 0.763093104321812 
1255	 0.763331697041243 
1256	 0.763542636550341 
1257	 0.763807566030867 
1258	 0.764183370184296 
1259	 0.764392586901432 
1260	 0.764523548558952 
1261	 0.764690058785425 
1262	 0.764714577564814 
1263	 0.764882946427689 
1264	 0.765221897230814 
1265	 0.76543021298446 
1266	 0.765629430548735 
1267	 0.765792893838912 
1268	 0.765879114467596 
1269	 0.765959078208918 
1270	 0.766093873871425 
1271	 0.766095911288807 
1272	 0.766021466034613 
1273	 0.765859949722906 
1274	 0.765714271751485 
1275	 0.765493796537608 
1276	 0.765275666468625 
1277	 0.765047359953521 
1278	 0.764836802992595 
1279	 0.764628368402326 
1280	 0.76433511742692 
1281	 0.764045912645136 
1282	 0.763701211069792 
1283	 0.763248707093408 
1284	 0.76281658769365 
1285	 0.762436148959337 
1286	 0.761943061362378 
1287	 0.761317393853796 
1288	 0.760771002335154 
1289	 0.760238413374487 
1290	 0.759650510712618 
1291	 0.759129251221538 
1292	 0.758486025936423 
1293	 0.757688330396013 
1294	 0.75692031993085 
1295	 0.756175276872343 
1296	 0.755299647623096 
1297	 0.754387504109066 
1298	 0.753465965544075 
1299	 0.752413252542313 
1300	 0.751180481352179 
1301	 0.750081871407811 
1302	 0.748973325862271 
1303	 0.747838305174403 
1304	 0.746733957613149 
1305	 0.74559106512178 
1306	 0.744418585778229 
1307	 0.743176665562122 
1308	 0.741933004915048 
1309	 0.740606903538709 
1310	 0.739164928145167 
1311	 0.737716720984383 
1312	 0.736231373686235 
1313	 0.734719464414561 
1314	 0.733187617856245 
1315	 0.731595170592253 
1316	 0.730020552387951 
1317	 0.728323257080217 
1318	 0.72648197765294 
1319	 0.724637311261512 
1320	 0.722673647410544 
1321	 0.720744912118023 
1322	 0.718696472538448 
1323	 0.716594022050765 
1324	 0.714369862337725 
1325	 0.711925158158283 
1326	 0.709579468001948 
1327	 0.707160016474732 
1328	 0.704714769107845 
1329	 0.702250426588539 
1330	 0.699748843531087 
1331	 0.697140003001839 
1332	 0.694657612777844 
1333	 0.69227117246909 
1334	 0.689907765732551 
1335	 0.687623373238976 
1336	 0.685371550162334 
1337	 0.683146331940562 
1338	 0.680905193001369 
1339	 0.678649352634832 
1340	 0.676270569719839 
1341	 0.673470783753806 
1342	 0.670811053259905 
1343	 0.667790072458501 
1344	 0.664749980797066 
1345	 0.661454012832367 
1346	 0.65792651679227 
1347	 0.653790219755849 
1348	 0.649204728285886 
1349	 0.644734271675706 
1350	 0.639929830444571 
1351	 0.63494419634701 
1352	 0.631161200754775 
1353	 0.625830149841898 
1354	 0.621461013101712 
1355	 0.614930664529763 
1356	 0.610506688714851 
1357	 0.601710681129218 
1358	 0.592936908722686 
1359	 0.580227906612972 
1360	 0.573304710471666 
1361	 0.558228815774346 
1362	 0.561159923713774 
1363	 0.549547868765645 
1364	 0.539831064671495 
1365	 0.525649987427658 
1366	 0.511799332359808 
1367	 0.503183031843506 
1368	 0.499013009008188 
1369	 0.498363633330721 
1370	 0.50542289530877 
1371	 0.505343008750782 
1372	 0.505888825931954 
1373	 0.5031319545109 
1374	 0.496233793981193 
1375	 0.488586751881714 
1376	 0.48790876952707 
1377	 0.486489564483842 
1378	 0.483321827136794 
1379	 0.483334305612377 
1380	 0.47727276126212 
1381	 0.465102556556817 
1382	 0.456470991354796 
1383	 0.448076272897321 
1384	 0.440607243093505 
1385	 0.435478628499766 
1386	 0.428898957237499 
1387	 0.423786765810832 
1388	 0.417007050860771 
1389	 0.408613928162859 
1390	 0.40330943656935 
1391	 0.397888120588187 
1392	 0.394204750007183 
1393	 0.394662311755202 
1394	 0.390096381765123 
1395	 0.384194971992869 
1396	 0.377646343483782 
1397	 0.367250548577471 
1398	 0.360334474617524 
1399	 0.354957091429755 
1400	 0.349603416895066 
1401	 0.346633785045627 
1402	 0.341852369386923 
1403	 0.336558225248541 
1404	 0.330937902366302 
1405	 0.324912274730158 
1406	 0.319203843301116 
1407	 0.313299873276916 
1408	 0.30948654873377 
1409	 0.307033992513514 
1410	 0.305424712991661 
1411	 0.303614854153661 
1412	 0.303017896988086 
1413	 0.30087374758445 
1414	 0.298038884917371 
1415	 0.295810286570541 
1416	 0.293460210472575 
1417	 0.291641141166868 
1418	 0.290150237423977 
1419	 0.288646065516235 
1420	 0.287085905874728 
1421	 0.285948176849006 
1422	 0.285037332693267 
1423	 0.284103092321481 
1424	 0.283360796655711 
1425	 0.282585951057857 
1426	 0.281656485141034 
1427	 0.280907030740725 
1428	 0.280525296937617 
1429	 0.279625826252312 
1430	 0.278370070872909 
1431	 0.277351506119221 
1432	 0.276056432703662 
1433	 0.274991455818955 
1434	 0.274071246869884 
1435	 0.273392660722665 
1436	 0.272835293177222 
1437	 0.272329102052761 
1438	 0.272192046782074 
1439	 0.271867591808469 
1440	 0.271308133306118 
1441	 0.271045110178986 
1442	 0.270839470794872 
1443	 0.270738099395044 
1444	 0.270893284942434 
1445	 0.271216327071104 
1446	 0.271703145125992 
1447	 0.272200947031787 
1448	 0.272735417979454 
1449	 0.273347569247204 
1450	 0.273870096936498 
1451	 0.274355876695128 
1452	 0.274904024751777 
1453	 0.275516923330436 
1454	 0.275936429747911 
1455	 0.276299530701821 
1456	 0.276703103150975 
1457	 0.277006298699691 
1458	 0.277420630437723 
1459	 0.277990233317126 
1460	 0.278484514836654 
1461	 0.279003801323239 
1462	 0.279494177884896 
1463	 0.279989607894769 
1464	 0.280544846622145 
1465	 0.280924487952321 
1466	 0.281741705108261 
1467	 0.282730741852695 
1468	 0.284035339497413 
1469	 0.285814339570589 
1470	 0.287515995013844 
1471	 0.289272638408198 
1472	 0.291098790245578 
1473	 0.292769333364969 
1474	 0.294683498638867 
1475	 0.296707861644441 
1476	 0.298750564378075 
1477	 0.30086141575316 
1478	 0.302989973070667 
1479	 0.305036376726337 
1480	 0.307248033733762 
1481	 0.309428905313143 
1482	 0.311817795740332 
1483	 0.314429231477647 
1484	 0.316936963653406 
1485	 0.319426675022156 
1486	 0.321966044610078 
1487	 0.324388101744185 
1488	 0.326892155133816 
1489	 0.329440576275571 
1490	 0.331974199952757 
1491	 0.334546100445929 
1492	 0.337003560659333 
1493	 0.339417451579873 
1494	 0.341777108410962 
1495	 0.344088492015489 
1496	 0.34634527319629 
1497	 0.348635136991933 
1498	 0.350969498945957 
1499	 0.353274080938523 
1500	 0.355564076765196 
1501	 0.357979829799027 
1502	 0.360512011953136 
1503	 0.362939214760136 
1504	 0.365443332386653 
1505	 0.367820059527261 
1506	 0.370038392801992 
1507	 0.372353321266117 
1508	 0.37467315822905 
1509	 0.376990671785124 
1510	 0.379353978155227 
1511	 0.381622485016406 
1512	 0.383847812958257 
1513	 0.386089505306531 
1514	 0.388249176765301 
1515	 0.390552420951628 
1516	 0.393023504964555 
1517	 0.395338324253081 
1518	 0.397699819215979 
1519	 0.399959979841941 
1520	 0.402054901032909 
1521	 0.404255577483953 
1522	 0.406485522715991 
1523	 0.408705241536142 
1524	 0.410972185071672 
1525	 0.413192995114477 
1526	 0.415453705559129 
1527	 0.417597072558468 
1528	 0.419670281391464 
1529	 0.421727054203279 
1530	 0.423635316697749 
1531	 0.425679134555691 
1532	 0.427844349510192 
1533	 0.42990081824154 
1534	 0.432005886537911 
1535	 0.434015029718403 
1536	 0.435888152839564 
1537	 0.437795046060794 
1538	 0.43966498575922 
1539	 0.441566333031543 
1540	 0.443506850667185 
1541	 0.445389598711691 
1542	 0.447282136221752 
1543	 0.449123688126915 
1544	 0.450908156678198 
1545	 0.452668720374848 
1546	 0.454379186664948 
1547	 0.456106149549076 
1548	 0.457789677074382 
1549	 0.459514788353684 
1550	 0.461311595636267 
1551	 0.463056715829698 
1552	 0.464821539332933 
1553	 0.466530038179619 
1554	 0.468191794765099 
1555	 0.469822752264157 
1556	 0.471429279825432 
1557	 0.472986178215762 
1558	 0.474457102844997 
1559	 0.475951906738971 
1560	 0.477390765743066 
1561	 0.478881755551879 
1562	 0.480485411867617 
1563	 0.482003904142985 
1564	 0.483473632902902 
1565	 0.485010081490111 
1566	 0.486444471258947 
1567	 0.487765286433949 
1568	 0.489236723229756 
1569	 0.490763748254029 
1570	 0.492215025791625 
1571	 0.493707985461293 
1572	 0.495138257275746 
1573	 0.496448813082611 
1574	 0.497886234029073 
1575	 0.499397311415984 
1576	 0.500771100047836 
1577	 0.502125046401781 
1578	 0.503382661923471 
1579	 0.504496794086105 
1580	 0.505691097635601 
1581	 0.506862155478473 
1582	 0.508042756777016 
1583	 0.509253388398619 
1584	 0.510381286954784 
1585	 0.511436313795147 
1586	 0.512616138734381 
1587	 0.513816197722289 
1588	 0.515002706138196 
1589	 0.516289046222212 
1590	 0.517465975625037 
1591	 0.518571662705529 
1592	 0.519672470351323 
1593	 0.520761341990542 
1594	 0.521843137279181 
1595	 0.52291832627013 
1596	 0.523903865458658 
1597	 0.524810112673221 
1598	 0.525859424294579 
1599	 0.526946066570269 
1600	 0.527904480539466 
1601	 0.528906074050652 
1602	 0.529892028799482 
1603	 0.530721515151497 
1604	 0.531641994920543 
1605	 0.532719980888992 
1606	 0.53361392929658 
1607	 0.534309588448002 
1608	 0.53521883403861 
1609	 0.536189460237472 
1610	 0.537131296118548 
1611	 0.538231964814012 
1612	 0.539028934342332 
1613	 0.539667076423875 
1614	 0.540299324372506 
1615	 0.540716304758739 
1616	 0.541362662030854 
1617	 0.542074039105543 
1618	 0.542814934283578 
1619	 0.543666561483902 
1620	 0.544445544001051 
1621	 0.54523292914346 
1622	 0.545972468986979 
1623	 0.546706366329668 
1624	 0.54737201946699 
1625	 0.548000458631416 
1626	 0.548566487160715 
1627	 0.549067295757977 
1628	 0.549570379305791 
1629	 0.54998924870668 
1630	 0.550531391143883 
1631	 0.551118583808242 
1632	 0.551694496771946 
1633	 0.552360762788081 
1634	 0.552933031788039 
1635	 0.553503457944569 
1636	 0.553924474479668 
1637	 0.554178951781536 
1638	 0.554655092514453 
1639	 0.555122018298951 
1640	 0.555600283070149 
1641	 0.556308300256775 
1642	 0.556704814978309 
1643	 0.556896931260788 
1644	 0.557133438882116 
1645	 0.557277889367537 
1646	 0.557467616964784 
1647	 0.557621696935189 
1648	 0.557847201700966 
1649	 0.558078501212524 
1650	 0.558400043713548 
1651	 0.558819256628578 
1652	 0.559104854266861 
1653	 0.55939965687747 
1654	 0.559725509079048 
1655	 0.560038048445002 
1656	 0.56020650832206 
1657	 0.560311683017972 
1658	 0.560474300673127 
1659	 0.560676077804461 
1660	 0.561168803133377 
1661	 0.561723180117091 
1662	 0.562001045995988 
1663	 0.562353988135915 
1664	 0.562651563498444 
1665	 0.562950088479083 
1666	 0.563504420047492 
1667	 0.563892450613639 
1668	 0.564301219564958 
1669	 0.564702466208479 
1670	 0.564889619778552 
1671	 0.565167888635134 
1672	 0.565452331224462 
1673	 0.565647124342431 
1674	 0.565740068668992 
1675	 0.565856326526768 
1676	 0.565983462158817 
1677	 0.566082516206945 
1678	 0.566226364194616 
1679	 0.566262227993852 
1680	 0.566180559401481 
1681	 0.566084764662757 
1682	 0.566075254751265 
1683	 0.566128678041555 
1684	 0.566133688213593 
1685	 0.565957239943525 
1686	 0.565538722046658 
1687	 0.565142868507835 
1688	 0.564793652784325 
1689	 0.564581442187289 
1690	 0.56462662687077 
1691	 0.564475992032492 
1692	 0.564252445364935 
1693	 0.563993933745631 
1694	 0.563630054095561 
1695	 0.563271203772425 
1696	 0.562968479132046 
1697	 0.562492877850824 
1698	 0.561867756352635 
1699	 0.561267011535992 
1700	 0.560463132261814 
1701	 0.559863627459437 
1702	 0.559472836167409 
1703	 0.558944121053927 
1704	 0.558534808563664 
1705	 0.557886990698881 
1706	 0.556977680008478 
1707	 0.556156931785306 
1708	 0.55517346620889 
1709	 0.554429184259545 
1710	 0.553887207489353 
1711	 0.553161893212104 
1712	 0.552350041598541 
1713	 0.55174631068636 
1714	 0.551263489535937 
1715	 0.550648447172652 
1716	 0.550216148720791 
1717	 0.549562139371819 
1718	 0.548580370807253 
1719	 0.547740191788941 
1720	 0.547025501791022 
1721	 0.546050001988229 
1722	 0.544776403936433 
1723	 0.543925966614913 
1724	 0.54314771745319 
1725	 0.542277028330919 
1726	 0.541693962919806 
1727	 0.54093769192417 
1728	 0.539871301709155 
1729	 0.539231789261011 
1730	 0.538828811902156 
1731	 0.53815984197277 
1732	 0.537752538276987 
1733	 0.537159286918817 
1734	 0.536598788670217 
1735	 0.536089198599195 
1736	 0.535427574159385 
1737	 0.534768404135149 
1738	 0.533865902865911 
1739	 0.532847336428437 
1740	 0.532058003834254 
1741	 0.531189469196866 
1742	 0.530301189608795 
1743	 0.529530776270986 
1744	 0.528435023828602 
1745	 0.527182164575894 
1746	 0.526133253588673 
1747	 0.524940720922401 
1748	 0.523748817317459 
1749	 0.522690985031164 
1750	 0.521510694417131 
1751	 0.520296140571888 
1752	 0.519168397081636 
1753	 0.518099554437923 
1754	 0.516980458456531 
1755	 0.515871119401546 
1756	 0.514608623986295 
1757	 0.512761108002004 
1758	 0.511436780671919 
1759	 0.510337809401137 
1760	 0.509234865183397 
1761	 0.508617314808995 
1762	 0.507483157421229 
1763	 0.505914801202324 
1764	 0.504593351598034 
1765	 0.503088274146811 
1766	 0.501882716093852 
1767	 0.50110861721069 
1768	 0.500030354052665 
1769	 0.498771134178979 
1770	 0.497598222954583 
1771	 0.496384087073438 
1772	 0.495165693753186 
1773	 0.493973079239 
1774	 0.493061815290587 
1775	 0.492008571775988 
1776	 0.491175731652314 
1777	 0.490455821099884 
1778	 0.489694919840006 
1779	 0.488826774102343 
1780	 0.487895403046801 
1781	 0.487135777660735 
1782	 0.486422393511138 
1783	 0.485595683666161 
1784	 0.484919863956351 
1785	 0.484566458975436 
1786	 0.483990454244021 
1787	 0.483304593378837 
1788	 0.482716323464821 
1789	 0.481631587078303 
1790	 0.480393461908197 
1791	 0.479718652624155 
1792	 0.479160780444937 
1793	 0.47856504401447 
1794	 0.478188718930457 
1795	 0.477715096267284 
1796	 0.47744358654136 
1797	 0.477411899279368 
1798	 0.476911347832416 
1799	 0.475828314329537 
1800	 0.474375777829799 
1801	 0.468033632982092 
1802	 0.464983425512541 
1803	 0.463651884546523 
1804	 0.462913490584408 
1805	 0.461820648756457 
1806	 0.46156582255533 
1807	 0.461154185908626 
1808	 0.460645569519582 
1809	 0.459920422989954 
1810	 0.458950518753743 
1811	 0.458612525358802 
1812	 0.457613806399932 
1813	 0.454915129613766 
1814	 0.453320609587532 
1815	 0.453139185587059 
1816	 0.45154271978832 
1817	 0.448162906100043 
1818	 0.446508555854082 
1819	 0.445325908648596 
1820	 0.443437242508119 
1821	 0.443559520385521 
1822	 0.448491424193409 
1823	 0.449608775822232 
1824	 0.449624066522538 
1825	 0.450361249151037 
1826	 0.446653374827538 
1827	 0.447365101517026 
1828	 0.450977749360639 
1829	 0.4649413296948 
1830	 0.465413630475478 
1831	 0.46076016253324 
1832	 0.455339556350853 
1833	 0.418056727310522 
1834	 0.394452933571721 
1835	 0.393471890618496 
1836	 0.381920748199737 
1837	 0.384148987361242 
1838	 0.378577919161709 
1839	 0.372806700559712 
1840	 0.371506192290348 
1841	 0.372268602912251 
1842	 0.369796941137828 
1843	 0.369229824474956 
1844	 0.375586998223649 
1845	 0.377128626649177 
1846	 0.363041038069874 
1847	 0.370245880019279 
1848	 0.386855875598795 
1849	 0.432787650027314 
1850	 0.423318379019174 
1851	 0.409054458103502 
1852	 0.382874693224576 
1853	 0.272458328374825 
1854	 0.266584186057389 
1855	 0.334767909486492 
1856	 0.352368596774571 
1857	 0.372770648391321 
1858	 0.411609456899362 
1859	 0.419642397454293 
1860	 0.397191302903043 
1861	 0.390366748625283 
1862	 0.38315159984218 
1863	 0.379985151171009 
1864	 0.378754834063746 
1865	 0.369818448583223 
1866	 0.340249286077576 
1867	 0.352558427651153 
1868	 0.379661358601248 
1869	 0.381705651947855 
1870	 0.379473764894874 
1871	 0.403529801481923 
1872	 0.384249673119444 
1873	 0.313535571604898 
1874	 0.277209276654512 
1875	 0.26918687719268 
1876	 0.250269799430367 
1877	 0.219775014641402 
1878	 0.225099705861385 
1879	 0.226612531245157 
1880	 0.214953630641339 
1881	 0.210800866855954 
1882	 0.213552896848825 
1883	 0.208525840508454 
1884	 0.193803045417111 
1885	 0.190366770962289 
1886	 0.19379577419726 
1887	 0.191749563607788 
1888	 0.180706850181528 
1889	 0.182352588836392 
1890	 0.179408568919052 
1891	 0.165850560514753 
1892	 0.162738617850871 
1893	 0.16894660240372 
1894	 0.17019408038735 
1895	 0.175793341853234 
1896	 0.178234858747851 
1897	 0.172790274365926 
1898	 0.180169467496653 
1899	 0.197445017144159 
1900	 0.194886713255526 
1901	 0.1859711269701 
1902	 0.16699637392446 
1903	 0.144008234764804 
1904	 7.96732575903968E-02 
1905	 6.86186672010161E-02 
1906	 8.67649237450387E-02 
1907	 0.122978770067255 
1908	 0.170217347552811 
1909	 0.175376976340378 
1910	 0.15857483917089 
1911	 0.134932037367489 
1912	 0.121740429789628 
1913	 0.10803092057914 
1914	 0.100062070086112 
1915	 9.39511585648322E-02 
1916	 9.26071329995913E-02 
1917	 9.35711161125271E-02 
1918	 9.22660045436587E-02 
1919	 9.25461612596084E-02 
1920	 9.34738260896421E-02 
1921	 0.085679969062716 
1922	 7.78427794868898E-02 
1923	 7.70391301941618E-02 
1924	 7.74355710255117E-02 
1925	 7.96613579990645E-02 
1926	 9.01526290578115E-02 
1927	 9.18737284403169E-02 
1928	 0.090453702764107 
1929	 8.74813164756044E-02 
1930	 8.42502022737812E-02 
1931	 8.36739629320441E-02 
1932	 8.54457005709864E-02 
1933	 8.63894522570097E-02 
1934	 0.087389103085266 
1935	 8.86139320488807E-02 
1936	 8.95234535080325E-02 
1937	 9.12620422860314E-02 
1938	 9.13033038296118E-02 
1939	 9.07439432110566E-02 
1940	 8.90153871070784E-02 
1941	 8.83932645760782E-02 
1942	 8.79163824580423E-02 
1943	 8.85708702532125E-02 
1944	 9.04452844214993E-02 
1945	 9.15782606476003E-02 
1946	 9.36603508698313E-02 
1947	 9.50270104297271E-02 
1948	 9.67984867424901E-02 
1949	 9.71328313295779E-02 
1950	 9.67509484914661E-02 
1951	 9.55687757061403E-02 
1952	 9.50661571104694E-02 
1953	 9.60548933957904E-02 
1954	 9.81193652061166E-02 
1955	 0.100687760715695 
1956	 0.103600823796799 
1957	 0.106713259611385 
1958	 0.108779260704077 
1959	 0.11063945390955 
1960	 0.111975129764089 
1961	 0.112580357221206 
1962	 0.112728547503691 
1963	 0.113585719225551 
1964	 0.114110363120912 
1965	 0.115391024713984 
1966	 0.116863040763451 
1967	 0.117758111592585 
1968	 0.118895302652833 
1969	 0.119899162766158 
1970	 0.120777428596374 
1971	 0.121590852626287 
1972	 0.122384421825413 
1973	 0.123178261436047 
1974	 0.124104039862807 
1975	 0.124752009770539 
1976	 0.125548561553207 
1977	 0.12663724443365 
1978	 0.127946549293877 
1979	 0.12923451335661 
1980	 0.13056967529791 
1981	 0.132167723130708 
1982	 0.133527662523636 
1983	 0.134753389428974 
1984	 0.135859935811386 
1985	 0.137301705646239 
1986	 0.138591603265434 
1987	 0.139440905903518 
1988	 0.140569035827079 
1989	 0.141608684140316 
1990	 0.142248450154035 
1991	 0.143663288153861 
1992	 0.145189748310731 
1993	 0.146319974316387 
1994	 0.14759573684018 
1995	 0.148525718594986 
1996	 0.148875261653694 
1997	 0.149245253907744 
1998	 0.150565802995847 
1999	 0.152756803678522 
2000	 0.155674660949567 
2001	 0.158233269921845 
2002	 0.160329223084951 
2003	 0.16169800944884 
2004	 0.162415904088218 
2005	 0.163796013477057 
2006	 0.165484506157548 
2007	 0.167220860538478 
2008	 0.168795347251198 
2009	 0.170986955262559 
2010	 0.173095984520793 
2011	 0.174983131123949 
2012	 0.176618269429565 
2013	 0.177805215848988 
2014	 0.17912137512213 
2015	 0.180078302983193 
2016	 0.180823234246752 
2017	 0.182242105501938 
2018	 0.184032912378698 
2019	 0.185496252528714 
2020	 0.186949902976239 
2021	 0.188637471092743 
2022	 0.189933783611496 
2023	 0.190143130239296 
2024	 0.190844394147093 
2025	 0.191642056423923 
2026	 0.192494801898524 
2027	 0.194006039799491 
2028	 0.195287248791396 
2029	 0.196670331801572 
2030	 0.197785064976583 
2031	 0.198641125236419 
2032	 0.199561284800643 
2033	 0.200547893739571 
2034	 0.201322002278951 
2035	 0.202176711592002 
2036	 0.203041721795716 
2037	 0.20392749684625 
2038	 0.205001013648152 
2039	 0.206098717247947 
2040	 0.207295942605295 
2041	 0.208905750295547 
2042	 0.210357412618966 
2043	 0.21133492450045 
2044	 0.212408587704271 
2045	 0.213403547419076 
2046	 0.214072131726771 
2047	 0.214828694270198 
2048	 0.216333408566635 
2049	 0.217566425909521 
2050	 0.218801001128739 
2051	 0.220061140078572 
2052	 0.220817866393305 
2053	 0.221711899486943 
2054	 0.222797062122554 
2055	 0.224282227996598 
2056	 0.225734106715922 
2057	 0.227304056184088 
2058	 0.22890947550577 
2059	 0.230139334254133 
2060	 0.23092972141085 
2061	 0.231925738932581 
2062	 0.23287317326878 
2063	 0.233745878117179 
2064	 0.234703134632533 
2065	 0.235907115740167 
2066	 0.237060357583784 
2067	 0.237702112985793 
2068	 0.238896869165384 
2069	 0.239910848712489 
2070	 0.240266392614606 
2071	 0.241301392442919 
2072	 0.242498140070332 
2073	 0.243769813842305 
2074	 0.244927901760724 
2075	 0.246501053652208 
2076	 0.247810824291365 
2077	 0.248710830781694 
2078	 0.249276604868442 
2079	 0.249731112233615 
2080	 0.250611103488516 
2081	 0.251616116640509 
2082	 0.252715478336403 
2083	 0.253932195730283 
2084	 0.254954882328116 
2085	 0.256098588554987 
2086	 0.257195150314729 
2087	 0.258135888513811 
2088	 0.259099805029027 
2089	 0.259929366474443 
2090	 0.260664338286321 
2091	 0.261881062552907 
2092	 0.263158454014545 
2093	 0.264597647603038 
2094	 0.266138308499476 
2095	 0.267149112634688 
2096	 0.268038242389408 
2097	 0.269119706577462 
2098	 0.269796065290184 
2099	 0.270347631564351 
2100	 0.271614516711905 
2101	 0.272851652563709 
2102	 0.273785366112405 
2103	 0.274682385575734 
2104	 0.275742935105759 
2105	 0.276370131193507 
2106	 0.276636179360826 
2107	 0.277327853504911 
2108	 0.27847339630629 
2109	 0.279637218620226 
2110	 0.280850398184351 
2111	 0.282477362188957 
2112	 0.283560966033544 
2113	 0.28384516178545 
2114	 0.284616032049355 
2115	 0.285235859877351 
2116	 0.285689165290347 
2117	 0.286348479939043 
2118	 0.287344886252178 
2119	 0.288107036879567 
2120	 0.288666411800137 
2121	 0.289477639008922 
2122	 0.290852792056373 
2123	 0.292015649586816 
2124	 0.293193977620363 
2125	 0.294890077352071 
2126	 0.296280572671371 
2127	 0.297017413105142 
2128	 0.297715540744719 
2129	 0.298231681877925 
2130	 0.297963617700024 
2131	 0.297963982819606 
2132	 0.2990294798209 
2133	 0.300255791199318 
2134	 0.301423802855096 
2135	 0.303005794009433 
2136	 0.304724279926053 
2137	 0.305365279505291 
2138	 0.305665277403788 
2139	 0.306161709661082 
2140	 0.306920973244722 
2141	 0.308330516067979 
2142	 0.309556858560601 
2143	 0.310435229679942 
2144	 0.310754735014629 
2145	 0.310414424214491 
2146	 0.310529378642784 
2147	 0.311104875366415 
2148	 0.311798726158826 
2149	 0.312692037969176 
2150	 0.313634534939632 
2151	 0.314334468119841 
2152	 0.314498027656618 
2153	 0.315000598699887 
2154	 0.315701521654694 
2155	 0.316317585301054 
2156	 0.316475921231379 
2157	 0.317270673776412 
2158	 0.317593332599255 
2159	 0.31753646544279 
2160	 0.318007548699726 
2161	 0.318311743906786 
2162	 0.318706227745065 
2163	 0.319384988238669 
2164	 0.320087570704958 
2165	 0.320641604163532 
2166	 0.321322253648564 
2167	 0.322424581743319 
2168	 0.323149874904734 
2169	 0.323558218681273 
2170	 0.324177252377674 
2171	 0.325073779690225 
2172	 0.324991877201639 
2173	 0.324834297715137 
2174	 0.325648496331094 
2175	 0.325728018434072 
2176	 0.325978690236117 
2177	 0.326308659866061 
2178	 0.326186954410655 
2179	 0.326740559327167 
2180	 0.327080757806627 
2181	 0.327135174711784 
2182	 0.32761665376046 
2183	 0.32756824237611 
2184	 0.327511838673166 
2185	 0.328781387742544 
2186	 0.329581580936499 
2187	 0.329931141497614 
2188	 0.33001358210812 
2189	 0.330360867899404 
2190	 0.330240043352558 
2191	 0.330547247809757 
2192	 0.331339425959332 
2193	 0.332048836382449 
2194	 0.332505747117077 
2195	 0.333031642129324 
2196	 0.333559420984576 
2197	 0.333812087660225 
2198	 0.334468172726729 
2199	 0.334633578574512 
2200	 0.334512518375522 
2201	 0.334944279072861 
2202	 0.335034287789202 
2203	 0.335036731130406 
2204	 0.335448084300531 
2205	 0.335978109706095 
2206	 0.336022891548561 
2207	 0.33610964948551 
2208	 0.336225905197456 
2209	 0.336251222437194 
2210	 0.33583824055823 
2211	 0.33519415799616 
2212	 0.334893361381586 
2213	 0.334509213557226 
2214	 0.334825611753903 
2215	 0.336086005464344 
2216	 0.337239819461762 
2217	 0.337703109970404 
2218	 0.338141212828306 
2219	 0.338351190541008 
2220	 0.338188043041822 
2221	 0.338274570430942 
2222	 0.337912147167135 
2223	 0.337029718781848 
2224	 0.336913343734465 
2225	 0.337364946678482 
2226	 0.337232300780769 
2227	 0.337314843091242 
2228	 0.337228971662642 
2229	 0.336379725730923 
2230	 0.336376767081842 
2231	 0.336316668175393 
2232	 0.336628165489834 
2233	 0.336237154602825 
2234	 0.33561055866257 
2235	 0.334921660156811 
2236	 0.333836751529433 
2237	 0.333266059111653 
2238	 0.333345252521352 
2239	 0.332872098687822 
2240	 0.332567122996433 
2241	 0.331873512480589 
2242	 0.331222345926193 
2243	 0.330851576099605 
2244	 0.329909601243973 
2245	 0.3293643585238 
2246	 0.328997034675724 
2247	 0.328778366517491 
2248	 0.328093134314106 
2249	 0.32732932391384 
2250	 0.327050905006365 
2251	 0.326354883340292 
2252	 0.326306791240334 
2253	 0.325850548735333 
2254	 0.324204215050169 
2255	 0.323000794410046 
2256	 0.322102688421724 
2257	 0.321121492211367 
2258	 0.321021857421337 
2259	 0.321537288499202 
2260	 0.320886654936671 
2261	 0.320387145374653 
2262	 0.320313915362918 
2263	 0.319752008570084 
2264	 0.319194605735105 
2265	 0.318099163407215 
2266	 0.317054444284658 
2267	 0.316340051179584 
2268	 0.315134177492191 
2269	 0.314972933007112 
2270	 0.314968837629435 
2271	 0.313025939780856 
2272	 0.311931994870124 
2273	 0.311186510804155 
2274	 0.309273575386144 
2275	 0.309024652130091 
2276	 0.309380472389127 
2277	 0.30912995550366 
2278	 0.308802661957708 
2279	 0.307343980693624 
2280	 0.306080265071174 
2281	 0.304877423082021 
2282	 0.30312221013197 
2283	 0.302389934390197 
2284	 0.301436928885018 
2285	 0.300500798774959 
2286	 0.299946915240904 
2287	 0.300131996786312 
2288	 0.299416500293783 
2289	 0.298393438933769 
2290	 0.297624230598412 
2291	 0.296525488400791 
2292	 0.29572182658235 
2293	 0.29476783545315 
2294	 0.292958113081272 
2295	 0.291501053813411 
2296	 0.290252626310739 
2297	 0.28824195907378 
2298	 0.286936591356488 
2299	 0.285903792772204 
2300	 0.284160124927945 
2301	 0.28428177635777 
2302	 0.284685985267641 
2303	 0.282853586730686 
2304	 0.280945622762445 
2305	 0.2789394978711 
2306	 0.275783401286316 
2307	 0.274485557141817 
2308	 0.275252128743477 
2309	 0.275270622242712 
2310	 0.275717109719426 
2311	 0.276535743175066 
2312	 0.275925395707393 
2313	 0.273658764978006 
2314	 0.271978589650179 
2315	 0.270912936898389 
2316	 0.268663201035005 
2317	 0.268613822853216 
2318	 0.269427293946198 
2319	 0.268443210271232 
2320	 0.268083934992191 
2321	 0.267402696537904 
2322	 0.265777914159494 
2323	 0.265052344092209 
2324	 0.264909624305633 
2325	 0.264147259656383 
2326	 0.264047926570584 
2327	 0.262644198629751 
2328	 0.260214079277712 
2329	 0.259014030200716 
2330	 0.258402163113272 
2331	 0.258852454069456 
2332	 0.259066470938921 
2333	 0.257759432277626 
2334	 0.256005000000693 
2335	 0.253101950434649 
2336	 0.250746871393133 
2337	 0.249896200252919 
2338	 0.24839776112198 
2339	 0.247907377482562 
2340	 0.248289858189436 
2341	 0.247773745228613 
2342	 0.248149133128812 
2343	 0.248090233357952 
2344	 0.246254130227937 
2345	 0.24659052538087 
2346	 0.246968130639782 
2347	 0.244973268785403 
2348	 0.244529534936891 
2349	 0.244053387342126 
2350	 0.241968568312955 
2351	 0.241654534126164 
2352	 0.241040929164762 
2353	 0.238729626159767 
2354	 0.237640863022988 
2355	 0.235336247909705 
2356	 0.231956443699865 
2357	 0.230909084162658 
2358	 0.229225429421044 
2359	 0.227981312596187 
2360	 0.230077275780029 
2361	 0.230425991426767 
2362	 0.230721268817651 
2363	 0.230800038930284 
2364	 0.227056027930692 
2365	 0.223744812150634 
2366	 0.220935210594023 
2367	 0.220173368369754 
2368	 0.221450747193145 
2369	 0.222007878699541 
2370	 0.22181186712673 
2371	 0.218317154369655 
2372	 0.216084839584267 
2373	 0.212498917838296 
2374	 0.211592644114926 
2375	 0.213906744218058 
2376	 0.214202730621295 
2377	 0.214731961294218 
2378	 0.213259529849185 
2379	 0.208877234305896 
2380	 0.20704826691462 
2381	 0.205474061269729 
2382	 0.205205140047972 
2383	 0.206740844388347 
2384	 0.206716884976776 
2385	 0.206895255531308 
2386	 0.205842729835537 
2387	 0.20510086341788 
2388	 0.204281421502669 
2389	 0.20158143861625 
2390	 0.199804800565712 
2391	 0.197338755003442 
2392	 0.195771517290734 
2393	 0.194545900847047 
2394	 0.194539554058869 
2395	 0.198488820778899 
2396	 0.198112757213966 
2397	 0.194294928783068 
2398	 0.193866234727493 
2399	 0.193249001749168 
2400	 0.191849741031886 
2401	 0.191568813482032 
2402	 0.193068192194655 
2403	 0.191062842922995 
2404	 0.186582757347029 
2405	 0.185951154990237 
2406	 0.185659974472677 
2407	 0.185868457376904 
2408	 0.185326286674409 
2409	 0.181123198143229 
2410	 0.177528904774518 
2411	 0.174041147580022 
2412	 0.171706704064472 
2413	 0.172309953399192 
2414	 0.173310129865002 
2415	 0.172777785092084 
2416	 0.172696780279745 
2417	 0.173984006350552 
2418	 0.172050868764115 
2419	 0.172008820215734 
2420	 0.174152509300917 
2421	 0.17119150952139 
2422	 0.16899320797077 
2423	 0.16582401286796 
2424	 0.15860348361191 
2425	 0.155279481214748 
2426	 0.156228356228489 
2427	 0.157354902407219 
2428	 0.157730957297773 
2429	 0.157307374674975 
2430	 0.157623754364979 
2431	 0.158616697602449 
2432	 0.157593250788451 
2433	 0.155673479674882 
2434	 0.154422011037443 
2435	 0.151567550658219 
2436	 0.150838035157811 
2437	 0.151600094538278 
2438	 0.152192167756451 
2439	 0.154795216655678 
2440	 0.154835933114349 
2441	 0.155019212640044 
2442	 0.154290655310372 
2443	 0.148917096752952 
2444	 0.14679861024848 
2445	 0.14677751336005 
2446	 0.145970750608199 
2447	 0.146225729050704 
2448	 0.144541345917802 
2449	 0.14387395482022 
2450	 0.138050751092749 
2451	 0.125995837154254 
2452	 0.123699334876208 
2453	 0.122917005342357 
2454	 0.120120312525592 
2455	 0.122382964541906 
2456	 0.12455624893772 
2457	 0.123570250643412 
2458	 0.125392421849101 
2459	 0.132233972970249 
2460	 0.133030837638027 
2461	 0.129875883061918 
2462	 0.129212012142672 
2463	 0.131191498320916 
2464	 0.13129576172862 
2465	 0.12853148947287 
2466	 0.127244021293005 
2467	 0.120711585406297 
2468	 0.122175002289144 
2469	 0.134909665367626 
2470	 0.139522817177096 
2471	 0.148885259918072 
2472	 0.147915824223525 
2473	 0.128714999669443 
2474	 0.119653679860026 
2475	 0.110101652975631 
2476	 0.104304805912769 
2477	 0.100865346740425 
2478	 0.110025129175993 
2479	 0.135610490070239 
2480	 0.134765765722904 
2481	 0.142176303166365 
2482	 0.14062796779919 
2483	 0.101578544380139 
2484	 8.86415509607944E-02 
2485	 8.53198994007907E-02 
2486	 5.86248049863364E-02 
2487	 6.03818133760906E-02 
2488	 8.42739214817008E-02 
2489	 7.91445555995631E-02 
2490	 7.02148064939924E-02 
2491	 6.89958524946962E-02 
2492	 6.23648410104693E-02 
2493	 0.073102598995206 
2494	 0.115977899577462 
2495	 0.160684552837754 
2496	 0.171347187403068 
2497	 0.185119973518142 
2498	 0.13640563979903 
2499	 8.88067377312771E-02 
2500	 0.107269587109718 
