Wavelength	ref00002.asd
350	 1.73176335326443E-02 
351	 1.74972327137069E-02 
352	 1.76234347534802E-02 
353	 1.84845757432026E-02 
354	 1.85563892830415E-02 
355	 0.018160492021473 
356	 1.77740183174166E-02 
357	 1.73839843948296E-02 
358	 1.74531666905826E-02 
359	 1.80140345579504E-02 
360	 0.018692758197324 
361	 1.82193509241737E-02 
362	 1.75963159885755E-02 
363	 1.73735840976783E-02 
364	 1.76385062261973E-02 
365	 1.79135033570176E-02 
366	 1.79337083602815E-02 
367	 1.76697492938149E-02 
368	 1.73388743564358E-02 
369	 1.73352151675661E-02 
370	 1.73735906341151E-02 
371	 1.72522173038628E-02 
372	 0.017638874096977 
373	 1.75774839039545E-02 
374	 1.73607344291455E-02 
375	 1.77790942768913E-02 
376	 1.81017393759528E-02 
377	 1.81171873696213E-02 
378	 1.79936571116965E-02 
379	 1.82644538581609E-02 
380	 0.018453878863944 
381	 1.85903210063454E-02 
382	 1.87179611217335E-02 
383	 1.85608946951222E-02 
384	 1.88477672008585E-02 
385	 0.019390032487412 
386	 1.96368346384274E-02 
387	 1.96916882044184E-02 
388	 1.99191903696151E-02 
389	 2.03351620542888E-02 
390	 2.05789297964484E-02 
391	 2.06948520322636E-02 
392	 0.020783501267166 
393	 2.09247007637878E-02 
394	 2.10879858343372E-02 
395	 2.15633745543557E-02 
396	 2.21038577999588E-02 
397	 2.23736197777229E-02 
398	 2.26728728640379E-02 
399	 2.27660885567721E-02 
400	 2.28029963637546E-02 
401	 2.32024766081234E-02 
402	 2.32615509244737E-02 
403	 2.33703007197876E-02 
404	 2.38138881744874E-02 
405	 2.43956086669184E-02 
406	 2.46769128806922E-02 
407	 2.47315842379527E-02 
408	 2.48436704185158E-02 
409	 2.52385107558679E-02 
410	 2.56942824152696E-02 
411	 2.61255660007661E-02 
412	 2.65735225800868E-02 
413	 0.026719312066884 
414	 2.68975606811862E-02 
415	 2.73058504388021E-02 
416	 2.76519504630858E-02 
417	 2.79723869482372E-02 
418	 2.82528236523401E-02 
419	 2.85035504110903E-02 
420	 2.88908362551363E-02 
421	 2.92475136639074E-02 
422	 2.95035163692191E-02 
423	 2.96991037111151E-02 
424	 2.99421410757808E-02 
425	 3.02492742975025E-02 
426	 3.05799044163459E-02 
427	 3.08113023153553E-02 
428	 0.031074925191833 
429	 3.12734159450075E-02 
430	 3.13263561041913E-02 
431	 3.16511530625705E-02 
432	 3.19418217245618E-02 
433	 3.21119001931167E-02 
434	 0.032299592263327 
435	 3.25234773779246E-02 
436	 3.27509629290466E-02 
437	 3.29499498665928E-02 
438	 3.31194500408178E-02 
439	 0.033152812266831 
440	 3.32238414849197E-02 
441	 3.35170406274109E-02 
442	 3.37113870525849E-02 
443	 3.38700052133042E-02 
444	 3.40582145339634E-02 
445	 0.034315418926745 
446	 3.45571126442418E-02 
447	 3.47319643119515E-02 
448	 0.034859910794545 
449	 3.51193592603603E-02 
450	 3.53093784963674E-02 
451	 3.54753110111105E-02 
452	 3.57364470810484E-02 
453	 3.59524038393089E-02 
454	 3.61756359591236E-02 
455	 3.63960042129859E-02 
456	 0.036516509743691 
457	 3.66037726195756E-02 
458	 3.66997076885515E-02 
459	 3.68331700415653E-02 
460	 3.70297505381864E-02 
461	 3.71180852889208E-02 
462	 3.71424234892056E-02 
463	 3.72614045203507E-02 
464	 3.74831019032524E-02 
465	 3.76468477590485E-02 
466	 3.77089530800481E-02 
467	 3.78251085137866E-02 
468	 3.79147884775012E-02 
469	 3.80285196008225E-02 
470	 3.81985947599132E-02 
471	 3.82486948398746E-02 
472	 3.83723641708758E-02 
473	 3.85759890990029E-02 
474	 3.87289942241636E-02 
475	 3.88168115077446E-02 
476	 3.89333483311762E-02 
477	 3.91023499542733E-02 
478	 3.91804681398337E-02 
479	 0.03932245449319 
480	 3.95009086333939E-02 
481	 3.96392058414882E-02 
482	 3.97388855495873E-02 
483	 3.99276697443463E-02 
484	 4.01801333487107E-02 
485	 4.03191852926173E-02 
486	 4.04355548033146E-02 
487	 4.05950490655802E-02 
488	 4.08149596026616E-02 
489	 4.09909724026814E-02 
490	 4.12799928212013E-02 
491	 4.15719367444824E-02 
492	 4.17068582614253E-02 
493	 4.19704087688725E-02 
494	 4.23473190261785E-02 
495	 4.27522219153346E-02 
496	 4.30496511804567E-02 
497	 4.33792062302846E-02 
498	 4.38164307389116E-02 
499	 4.43567714720767E-02 
500	 4.47924471292601E-02 
501	 4.52583940264102E-02 
502	 0.045771173087877 
503	 4.62834774796279E-02 
504	 4.68891817777979E-02 
505	 4.74787830506199E-02 
506	 4.80596871229376E-02 
507	 4.88655510472006E-02 
508	 4.97821992285579E-02 
509	 5.06862686214781E-02 
510	 5.15182833309565E-02 
511	 5.25247067727281E-02 
512	 5.35507896494037E-02 
513	 5.45639937097064E-02 
514	 5.56513735287662E-02 
515	 5.68450186495229E-02 
516	 5.81597091473037E-02 
517	 5.95637878124183E-02 
518	 6.09551737670083E-02 
519	 6.23592863034846E-02 
520	 6.37509830902025E-02 
521	 6.51034156612202E-02 
522	 6.64430493063028E-02 
523	 6.78348460169276E-02 
524	 0.069233612192956 
525	 7.04573467947532E-02 
526	 7.17855682616836E-02 
527	 7.31583310724991E-02 
528	 7.44456430794564E-02 
529	 7.55472646516661E-02 
530	 7.66209719740479E-02 
531	 7.76647216443028E-02 
532	 7.86003691840232E-02 
533	 7.95114132272446E-02 
534	 0.080390195028421 
535	 8.12026666706881E-02 
536	 8.18933398039217E-02 
537	 8.25843297726025E-02 
538	 0.083228354279151 
539	 0.083774216482414 
540	 8.44143024304486E-02 
541	 8.50311889362827E-02 
542	 8.55525785370314E-02 
543	 0.085971906354167 
544	 8.65231385304443E-02 
545	 8.71041429937551E-02 
546	 8.76047342505998E-02 
547	 8.80193288224205E-02 
548	 0.08846319292576 
549	 8.89279415911286E-02 
550	 8.93434450146278E-02 
551	 8.96284909278028E-02 
552	 8.99142298485268E-02 
553	 9.02026539513097E-02 
554	 9.03240586130931E-02 
555	 9.04732487956542E-02 
556	 9.06068040337104E-02 
557	 9.06467067270592E-02 
558	 9.06035640766144E-02 
559	 9.05002654382337E-02 
560	 9.03533584050997E-02 
561	 9.01760096333546E-02 
562	 0.09002081282164 
563	 8.97134776238352E-02 
564	 8.92282808020295E-02 
565	 8.88494077174981E-02 
566	 8.84602365106131E-02 
567	 8.80225424942248E-02 
568	 0.087527821927173 
569	 8.70041564273899E-02 
570	 8.64713288727017E-02 
571	 8.59602374514251E-02 
572	 8.55039056127637E-02 
573	 8.50154744616048E-02 
574	 8.45667747839567E-02 
575	 8.41750657266918E-02 
576	 8.36382663720126E-02 
577	 8.32033240843835E-02 
578	 8.28522723844055E-02 
579	 8.24510425321719E-02 
580	 8.20395866831415E-02 
581	 8.17287220999725E-02 
582	 8.15152896143212E-02 
583	 8.12407319970995E-02 
584	 8.09987695193192E-02 
585	 8.08344400067799E-02 
586	 8.07361648882067E-02 
587	 8.05183201872155E-02 
588	 8.03827891167295E-02 
589	 8.03225742440515E-02 
590	 0.080183509192923 
591	 8.00544847844135E-02 
592	 0.080019253980634 
593	 8.00679900085753E-02 
594	 8.00401696813238E-02 
595	 7.99602089665166E-02 
596	 7.98794522071548E-02 
597	 0.07984219225846 
598	 0.079774498492888 
599	 7.97545388335832E-02 
600	 0.079787995950099 
601	 7.98006649733085E-02 
602	 7.97440752840546E-02 
603	 7.96347007585481E-02 
604	 7.95060076767612E-02 
605	 7.93907471112172E-02 
606	 7.92360185160785E-02 
607	 7.90445390781521E-02 
608	 7.88484430051205E-02 
609	 7.86659471615161E-02 
610	 7.84527491994114E-02 
611	 7.81873674981526E-02 
612	 7.78857600953853E-02 
613	 0.077640371775946 
614	 7.74078379720186E-02 
615	 7.71325226231456E-02 
616	 7.68685144726196E-02 
617	 7.65739855335516E-02 
618	 7.62851107692722E-02 
619	 7.60827255066531E-02 
620	 7.59589566730384E-02 
621	 7.58654022305493E-02 
622	 7.57773237236687E-02 
623	 7.57255129883682E-02 
624	 7.57037527579084E-02 
625	 7.57052912300115E-02 
626	 7.57220617747338E-02 
627	 7.57432057168172E-02 
628	 7.58252876401564E-02 
629	 0.075941519824236 
630	 7.59856945829795E-02 
631	 7.60117152419012E-02 
632	 7.60306324632146E-02 
633	 7.60300398398694E-02 
634	 7.59647159027857E-02 
635	 7.57893348463929E-02 
636	 7.55440385790458E-02 
637	 7.52866302394179E-02 
638	 7.48683793772222E-02 
639	 7.44091511754839E-02 
640	 7.39530893329445E-02 
641	 7.34340808210971E-02 
642	 7.28538120234076E-02 
643	 7.22021682229202E-02 
644	 7.15144425269083E-02 
645	 0.070997273198418 
646	 7.04653864157714E-02 
647	 6.98990816444419E-02 
648	 6.93856530321772E-02 
649	 6.89574396526007E-02 
650	 6.86035087516718E-02 
651	 6.83369273331645E-02 
652	 6.82073386084058E-02 
653	 6.80446873484966E-02 
654	 6.78330601308099E-02 
655	 6.76134248086846E-02 
656	 0.067491233032352 
657	 6.72448851921147E-02 
658	 6.68490348664741E-02 
659	 6.64095206756824E-02 
660	 6.60466953199635E-02 
661	 6.56277016675555E-02 
662	 6.51012750760821E-02 
663	 6.46080261376479E-02 
664	 6.41347353395283E-02 
665	 6.36971495404793E-02 
666	 6.33069109690667E-02 
667	 6.29504780037919E-02 
668	 6.26446375923695E-02 
669	 6.23943540960498E-02 
670	 6.21870946329653E-02 
671	 6.20009071958777E-02 
672	 6.19152197760852E-02 
673	 6.19539049113835E-02 
674	 6.19703732678952E-02 
675	 6.20188491450338E-02 
676	 0.06212436667327 
677	 6.22934162979195E-02 
678	 6.24751358641908E-02 
679	 6.26922801610381E-02 
680	 6.29791176374554E-02 
681	 6.33786304786431E-02 
682	 6.40153753444742E-02 
683	 6.48596980259598E-02 
684	 6.58457930594168E-02 
685	 6.68824425654394E-02 
686	 6.82346926254833E-02 
687	 7.01015010631758E-02 
688	 0.072383061602486 
689	 7.45306763331119E-02 
690	 7.69484532774457E-02 
691	 7.98167314822614E-02 
692	 8.28143383630451E-02 
693	 8.62480265708934E-02 
694	 9.00592658009187E-02 
695	 9.40996509772689E-02 
696	 9.82908137835619E-02 
697	 0.102597339113862 
698	 0.10711670209053 
699	 0.111920279835724 
700	 0.116715473762522 
701	 0.121448927791343 
702	 0.126179294321018 
703	 0.13104060997596 
704	 0.135657103830793 
705	 0.140040547036233 
706	 0.144359030810213 
707	 0.148830244257639 
708	 0.153209713500377 
709	 0.15746237205356 
710	 0.161638306420225 
711	 0.16588075882239 
712	 0.170045392563755 
713	 0.174085030083619 
714	 0.178095512293221 
715	 0.182127119899308 
716	 0.186106454689556 
717	 0.190075528044766 
718	 0.194098407836668 
719	 0.198190581684798 
720	 0.202166958905352 
721	 0.205847248516367 
722	 0.20918437979578 
723	 0.212600367645145 
724	 0.216286053351617 
725	 0.219735293743803 
726	 0.223034775677484 
727	 0.226213780530354 
728	 0.229347411544627 
729	 0.232340856075025 
730	 0.235240979234616 
731	 0.237959395908632 
732	 0.240425902037097 
733	 0.242789251216448 
734	 0.24505863039528 
735	 0.247264271192937 
736	 0.249399093898051 
737	 0.251404145690059 
738	 0.253317260631386 
739	 0.255161091361555 
740	 0.256794119372931 
741	 0.258399888439129 
742	 0.259939643376241 
743	 0.261325799428578 
744	 0.262697776942161 
745	 0.263871095800497 
746	 0.264863475735588 
747	 0.265850253302612 
748	 0.266862839682985 
749	 0.267869514946401 
750	 0.268789609593012 
751	 0.269481536864265 
752	 0.270188558613714 
753	 0.270884394352104 
754	 0.27149821033846 
755	 0.272095159431136 
756	 0.272659243529706 
757	 0.273180021390589 
758	 0.273709864932947 
759	 0.274739124706135 
760	 0.276269990361001 
761	 0.277836429523052 
762	 0.278026096177676 
763	 0.278106789736733 
764	 0.278195112861451 
765	 0.278143393956618 
766	 0.277922952776937 
767	 0.277823632776742 
768	 0.277957508192039 
769	 0.27831378151178 
770	 0.278551203523629 
771	 0.278820088049021 
772	 0.279118843877792 
773	 0.27932286493207 
774	 0.279632606418781 
775	 0.279974985850536 
776	 0.280260868808974 
777	 0.280445282113396 
778	 0.280807157723899 
779	 0.281182930866613 
780	 0.281380247543076 
781	 0.281573408991949 
782	 0.28184959436659 
783	 0.282193346159102 
784	 0.282529341936066 
785	 0.282833383208201 
786	 0.283138285172859 
787	 0.283432241059614 
788	 0.2836592081617 
789	 0.284041333026694 
790	 0.284312552104801 
791	 0.284385906087796 
792	 0.2847391554934 
793	 0.285100150349492 
794	 0.285404045016526 
795	 0.285663349435869 
796	 0.285932521648302 
797	 0.286206254586008 
798	 0.286508743288876 
799	 0.286861612602456 
800	 0.287148052141701 
801	 0.287387917920907 
802	 0.287642030345814 
803	 0.287991339928349 
804	 0.288264603288665 
805	 0.288494954585282 
806	 0.288731101531005 
807	 0.28896313511233 
808	 0.289265429356635 
809	 0.289639887397489 
810	 0.290008813644321 
811	 0.29009588598803 
812	 0.290342067477622 
813	 0.290750901686131 
814	 0.291061374543263 
815	 0.29125465449756 
816	 0.291521061667904 
817	 0.291846802033809 
818	 0.291994610389388 
819	 0.29208830078653 
820	 0.292271174565972 
821	 0.292591336245695 
822	 0.292941804674049 
823	 0.293299700431525 
824	 0.293500861182891 
825	 0.293517050633494 
826	 0.2937962765484 
827	 0.294120534217628 
828	 0.294484726866314 
829	 0.294897076990644 
830	 0.295036807618122 
831	 0.29518069656499 
832	 0.295457033503888 
833	 0.295823400628627 
834	 0.296075579572739 
835	 0.296228864286187 
836	 0.296373186491663 
837	 0.296637036753575 
838	 0.296908177914312 
839	 0.297222826892933 
840	 0.29754400228241 
841	 0.297638117100368 
842	 0.297780590338099 
843	 0.298020133172211 
844	 0.298330507416738 
845	 0.298710313041151 
846	 0.29892157359622 
847	 0.299091782822505 
848	 0.299443504805847 
849	 0.299721466541853 
850	 0.3000270114441 
851	 0.300256111524609 
852	 0.300239589462384 
853	 0.30063409948112 
854	 0.301132037149514 
855	 0.301379636150431 
856	 0.301184605936511 
857	 0.30130172579196 
858	 0.301528910521233 
859	 0.301716874819814 
860	 0.30205500565279 
861	 0.302474351834107 
862	 0.302710302555692 
863	 0.302708619497571 
864	 0.303056935799992 
865	 0.303430756551827 
866	 0.303743446526957 
867	 0.303944961729892 
868	 0.30379884195644 
869	 0.304004825203398 
870	 0.304330985675313 
871	 0.304316541111338 
872	 0.304820079202757 
873	 0.30532236643682 
874	 0.305513310130624 
875	 0.305397193906457 
876	 0.305610083317491 
877	 0.306001537095085 
878	 0.306328315841583 
879	 0.306409650809639 
880	 0.306836371236982 
881	 0.307103817085024 
882	 0.307066394337015 
883	 0.307262916846492 
884	 0.307482076106172 
885	 0.307681654273795 
886	 0.307870516423146 
887	 0.308100617871489 
888	 0.308132529720948 
889	 0.308342853763524 
890	 0.308895047512895 
891	 0.309023518858304 
892	 0.309316242752633 
893	 0.309630656545824 
894	 0.309712306619209 
895	 0.309785660751151 
896	 0.309739305214224 
897	 0.310011869665279 
898	 0.310884253011071 
899	 0.310900828238162 
900	 0.311008271779786 
901	 0.311298188279664 
902	 0.311392293464729 
903	 0.31128716655252 
904	 0.311154194834632 
905	 0.311234568666368 
906	 0.311698926126684 
907	 0.312158025917921 
908	 0.31236806569772 
909	 0.312261188508825 
910	 0.312001382913791 
911	 0.312239167560379 
912	 0.312382965303928 
913	 0.312469334216458 
914	 0.313155251365473 
915	 0.313730471673481 
916	 0.313787342045935 
917	 0.313524715207198 
918	 0.31366727084821 
919	 0.313582741863074 
920	 0.313600966998384 
921	 0.313970782603409 
922	 0.31461392803592 
923	 0.314935154789229 
924	 0.314672858574503 
925	 0.31407440482467 
926	 0.313998404579773 
927	 0.314211051499801 
928	 0.314344412699732 
929	 0.314389701755432 
930	 0.315092793845243 
931	 0.315394191423633 
932	 0.315414671064711 
933	 0.31529800746623 
934	 0.314505676991317 
935	 0.314178456309191 
936	 0.313948924627628 
937	 0.313452978854248 
938	 0.313176893289706 
939	 0.313022008416558 
940	 0.312613889653738 
941	 0.312123185123698 
942	 0.312779646815645 
943	 0.314237083914188 
944	 0.314647265159475 
945	 0.313393772849317 
946	 0.313286379493186 
947	 0.313383743569792 
948	 0.313759022805891 
949	 0.314139677689224 
950	 0.313203317852954 
951	 0.312363388166754 
952	 0.312295412852788 
953	 0.312800706566378 
954	 0.312454463170301 
955	 0.311807223763923 
956	 0.311558598366526 
957	 0.311790269868657 
958	 0.311364759284049 
959	 0.310980296926194 
960	 0.311246865965107 
961	 0.312087701377855 
962	 0.3123358554851 
963	 0.31256313058399 
964	 0.312701341851032 
965	 0.312489436499748 
966	 0.311632051344288 
967	 0.312283546872653 
968	 0.312704027199975 
969	 0.311979306006999 
970	 0.311766619805881 
971	 0.312500711245652 
972	 0.313399752440307 
973	 0.313690138371217 
974	 0.313150087804509 
975	 0.312643231099411 
976	 0.313337185482033 
977	 0.314908605940236 
978	 0.315290346433469 
979	 0.315016340826672 
980	 0.315209484827496 
981	 0.315519992973168 
982	 0.31431982393886 
983	 0.314378415521902 
984	 0.315109122493897 
985	 0.315514937892138 
986	 0.314959792159322 
987	 0.31474218961861 
988	 0.315318215204693 
989	 0.316353570580166 
990	 0.317120025910736 
991	 0.318162179465906 
992	 0.318219912110066 
993	 0.317792569144651 
994	 0.317997847603636 
995	 0.31641091772481 
996	 0.317435070805488 
997	 0.318790340537481 
998	 0.316877879203592 
999	 0.31781975751695 
1000	 0.319513010103348 
1001	 0.327167661032931 
1002	 0.327450973545289 
1003	 0.327787329946006 
1004	 0.32822328872188 
1005	 0.328511183454444 
1006	 0.328758828608594 
1007	 0.329092170197174 
1008	 0.329373881680081 
1009	 0.329654557769005 
1010	 0.330022622012052 
1011	 0.330397234247898 
1012	 0.330587675212624 
1013	 0.330915574610923 
1014	 0.331221387370864 
1015	 0.331424233762552 
1016	 0.331689469026676 
1017	 0.331893330137952 
1018	 0.332174201617362 
1019	 0.332557484443985 
1020	 0.332876024562985 
1021	 0.333205954766239 
1022	 0.333477407148847 
1023	 0.333701575955171 
1024	 0.333914944140411 
1025	 0.334045250602964 
1026	 0.334258345440433 
1027	 0.334618480748969 
1028	 0.334794389295236 
1029	 0.334933333032337 
1030	 0.335242684841585 
1031	 0.335458530331798 
1032	 0.335699354661068 
1033	 0.335906247055003 
1034	 0.336131217133635 
1035	 0.336320900461935 
1036	 0.33642722877331 
1037	 0.336592928796812 
1038	 0.336811583636159 
1039	 0.33708280724011 
1040	 0.337218755715364 
1041	 0.337347637597019 
1042	 0.337549578151785 
1043	 0.337682959921584 
1044	 0.337790817649443 
1045	 0.338023571135509 
1046	 0.338218028636126 
1047	 0.338460669055428 
1048	 0.338831198958348 
1049	 0.339058314625581 
1050	 0.33928996288291 
1051	 0.339485830977884 
1052	 0.339712293353367 
1053	 0.339885320539868 
1054	 0.340119024314726 
1055	 0.340375634466394 
1056	 0.340544943540065 
1057	 0.340716862952001 
1058	 0.34094036335869 
1059	 0.341071502147139 
1060	 0.341330342923733 
1061	 0.341673193382479 
1062	 0.341952822613582 
1063	 0.342314834649225 
1064	 0.342507914693683 
1065	 0.342665874189615 
1066	 0.342703734743351 
1067	 0.342840008082081 
1068	 0.343071441848505 
1069	 0.343341688799659 
1070	 0.343606068499834 
1071	 0.343860511500984 
1072	 0.343978942522219 
1073	 0.34420921263641 
1074	 0.344494387616596 
1075	 0.344625990870867 
1076	 0.344825873389021 
1077	 0.344981087035844 
1078	 0.345123226095747 
1079	 0.345378856179171 
1080	 0.345551808956327 
1081	 0.345723807383002 
1082	 0.345850118707685 
1083	 0.346037794594596 
1084	 0.346207932758452 
1085	 0.346342758675478 
1086	 0.34649003363763 
1087	 0.346607495520921 
1088	 0.346725390400059 
1089	 0.346871671366703 
1090	 0.346980575783295 
1091	 0.347117908573239 
1092	 0.347214568351037 
1093	 0.347297425105361 
1094	 0.347486454902488 
1095	 0.347623572449736 
1096	 0.347697231653712 
1097	 0.347713473699132 
1098	 0.347755682793844 
1099	 0.347747515200045 
1100	 0.347748980956686 
1101	 0.347826111056183 
1102	 0.347992096850038 
1103	 0.348058128543113 
1104	 0.348046258008929 
1105	 0.34803559162356 
1106	 0.347996527812267 
1107	 0.347995130085868 
1108	 0.34803540574715 
1109	 0.348088575959195 
1110	 0.348070359168378 
1111	 0.348008568227806 
1112	 0.347892289271266 
1113	 0.347788245102408 
1114	 0.347590069879211 
1115	 0.347435325794702 
1116	 0.347297004511649 
1117	 0.347171269736709 
1118	 0.347098834642081 
1119	 0.347042272371341 
1120	 0.346837246947092 
1121	 0.34667176754303 
1122	 0.346581598013739 
1123	 0.346297479110814 
1124	 0.346048791348793 
1125	 0.345965631487724 
1126	 0.34574952038388 
1127	 0.345391444271239 
1128	 0.345129726133598 
1129	 0.344947246340007 
1130	 0.344608000740335 
1131	 0.344280419820822 
1132	 0.343867773606886 
1133	 0.343386790792008 
1134	 0.342875184947492 
1135	 0.342282977849547 
1136	 0.341674297819772 
1137	 0.340990240662093 
1138	 0.340448381467478 
1139	 0.339917418349796 
1140	 0.339124910810218 
1141	 0.338440960400766 
1142	 0.337640095237993 
1143	 0.336862321275307 
1144	 0.336147587689146 
1145	 0.33530586988061 
1146	 0.334306058577364 
1147	 0.333456866487477 
1148	 0.332587813892305 
1149	 0.331816119659317 
1150	 0.331128843552721 
1151	 0.330567312152499 
1152	 0.330103243031366 
1153	 0.329696473865796 
1154	 0.329380222833599 
1155	 0.329254603140981 
1156	 0.329066500892672 
1157	 0.328798672094287 
1158	 0.328639712964884 
1159	 0.328534916557978 
1160	 0.328437446777081 
1161	 0.328399055949727 
1162	 0.328347594717479 
1163	 0.32826187716022 
1164	 0.328236336358449 
1165	 0.328285605646817 
1166	 0.328279544402618 
1167	 0.328281905473467 
1168	 0.328266469510966 
1169	 0.328213393774737 
1170	 0.328156996509316 
1171	 0.328120491288054 
1172	 0.328112759337615 
1173	 0.328157365951059 
1174	 0.328197050430747 
1175	 0.32820959878091 
1176	 0.328176110309 
1177	 0.32818207866474 
1178	 0.328172155088841 
1179	 0.328149932919422 
1180	 0.32815811919111 
1181	 0.328156588642852 
1182	 0.328096265033628 
1183	 0.328086643741982 
1184	 0.328154644691203 
1185	 0.328150605058348 
1186	 0.328075536483165 
1187	 0.328077443651512 
1188	 0.328124335616336 
1189	 0.32810518012033 
1190	 0.328083441058018 
1191	 0.328128349550322 
1192	 0.328165880318668 
1193	 0.328168819475551 
1194	 0.328186698414096 
1195	 0.328245651847815 
1196	 0.328301758483154 
1197	 0.328312360100502 
1198	 0.328400231557397 
1199	 0.328576998222274 
1200	 0.328688125091795 
1201	 0.328757942909858 
1202	 0.328900876347114 
1203	 0.329056334383993 
1204	 0.329238649936169 
1205	 0.329483895999963 
1206	 0.329711587222574 
1207	 0.329942117112443 
1208	 0.330171052022789 
1209	 0.330432105498784 
1210	 0.33065340871084 
1211	 0.33082657820447 
1212	 0.331039664625653 
1213	 0.331261727033856 
1214	 0.331486795069674 
1215	 0.331710635165876 
1216	 0.331951887542268 
1217	 0.332192008700898 
1218	 0.332426371504803 
1219	 0.33266683346481 
1220	 0.332907828308882 
1221	 0.333180126369748 
1222	 0.333482216128505 
1223	 0.333745740736935 
1224	 0.334034406098324 
1225	 0.3342922041707 
1226	 0.334482301723473 
1227	 0.334713456548998 
1228	 0.334975843937984 
1229	 0.335222028070841 
1230	 0.335421496132817 
1231	 0.335627338533188 
1232	 0.335863388611772 
1233	 0.336077940409163 
1234	 0.336337012131776 
1235	 0.336681091811172 
1236	 0.336927468529375 
1237	 0.337128297188954 
1238	 0.337357479243698 
1239	 0.337532595701927 
1240	 0.337786236031831 
1241	 0.33817183462314 
1242	 0.338395150283439 
1243	 0.338539004875417 
1244	 0.338728959001685 
1245	 0.338836115448761 
1246	 0.338980846781009 
1247	 0.339210173612665 
1248	 0.33939973893323 
1249	 0.33954930882383 
1250	 0.339697678003284 
1251	 0.339848501037498 
1252	 0.340001842379207 
1253	 0.340130964789866 
1254	 0.34023037545474 
1255	 0.340358430564396 
1256	 0.340485377628517 
1257	 0.340624002438762 
1258	 0.340812844982109 
1259	 0.340917002404834 
1260	 0.340976287543734 
1261	 0.341049049478607 
1262	 0.341056479622646 
1263	 0.341116806503579 
1264	 0.341211886776955 
1265	 0.341308976274531 
1266	 0.341450207975888 
1267	 0.341531727022815 
1268	 0.341590378769447 
1269	 0.341645588418234 
1270	 0.341617139286079 
1271	 0.341655612138698 
1272	 0.341744241786019 
1273	 0.341818635462593 
1274	 0.341919208940105 
1275	 0.342071280859142 
1276	 0.342150890529456 
1277	 0.342214833913588 
1278	 0.342264206773414 
1279	 0.342259563856107 
1280	 0.342307280762679 
1281	 0.342397371601538 
1282	 0.342423531936592 
1283	 0.34243120767551 
1284	 0.34244535371165 
1285	 0.342402118083623 
1286	 0.342411261472881 
1287	 0.342479402277842 
1288	 0.342504983030372 
1289	 0.342573197040333 
1290	 0.342546669146428 
1291	 0.342465663296744 
1292	 0.342355390604787 
1293	 0.342097823934524 
1294	 0.3419475901256 
1295	 0.341854066024658 
1296	 0.341758119634788 
1297	 0.341602689295583 
1298	 0.341490969422405 
1299	 0.341286009407189 
1300	 0.340954676055997 
1301	 0.340716107968985 
1302	 0.340536879315678 
1303	 0.340242204253058 
1304	 0.339908729961752 
1305	 0.339562180149526 
1306	 0.339121891973417 
1307	 0.338728821257913 
1308	 0.338405902264196 
1309	 0.337969032640336 
1310	 0.33750481542124 
1311	 0.336961317597786 
1312	 0.336276893755729 
1313	 0.335649800614951 
1314	 0.33498578142176 
1315	 0.334341084970372 
1316	 0.333748212978119 
1317	 0.333114544208869 
1318	 0.332455705174049 
1319	 0.331785483931669 
1320	 0.331081798776232 
1321	 0.3303890704592 
1322	 0.329649130239082 
1323	 0.328901998980724 
1324	 0.328063919432883 
1325	 0.327137679492838 
1326	 0.326206960613955 
1327	 0.32515581125439 
1328	 0.324189370906662 
1329	 0.323251643881525 
1330	 0.322267058935837 
1331	 0.321308747142591 
1332	 0.320307162603441 
1333	 0.319228362939865 
1334	 0.318237184091822 
1335	 0.317285729994682 
1336	 0.316337101574915 
1337	 0.315363915237172 
1338	 0.314490922975804 
1339	 0.313615979945645 
1340	 0.312787465094993 
1341	 0.312002568884985 
1342	 0.311239282448419 
1343	 0.310432683506283 
1344	 0.309615488502706 
1345	 0.308778530003922 
1346	 0.307867520880546 
1347	 0.3067596346951 
1348	 0.305720732669915 
1349	 0.304754067506052 
1350	 0.30391665240586 
1351	 0.302979145005054 
1352	 0.30256272314821 
1353	 0.301644092465195 
1354	 0.300754946788014 
1355	 0.299324554534222 
1356	 0.29759548344492 
1357	 0.295520944205519 
1358	 0.293226082293114 
1359	 0.291061446091924 
1360	 0.294205947010253 
1361	 0.294119166136186 
1362	 0.294493761025019 
1363	 0.294776307623866 
1364	 0.292918852395761 
1365	 0.291618256393192 
1366	 0.298234307297392 
1367	 0.292343631457799 
1368	 0.27765361451505 
1369	 0.271524996528571 
1370	 0.26608955732761 
1371	 0.262793567927031 
1372	 0.260651967804508 
1373	 0.261209957422297 
1374	 0.262784948845429 
1375	 0.265102511093421 
1376	 0.266813216550336 
1377	 0.2669711713299 
1378	 0.263809151873545 
1379	 0.255406056067469 
1380	 0.250316706274479 
1381	 0.245330575792381 
1382	 0.239733220237053 
1383	 0.234759450799908 
1384	 0.229206833396567 
1385	 0.223000857528118 
1386	 0.218593899180252 
1387	 0.215854203413978 
1388	 0.212553932292569 
1389	 0.209670550901642 
1390	 0.206946828804882 
1391	 0.204526788278782 
1392	 0.201541488280853 
1393	 0.199108653939124 
1394	 0.195249892933389 
1395	 0.189055336625756 
1396	 0.185689992430713 
1397	 0.183501571419283 
1398	 0.180610442813956 
1399	 0.178987214924966 
1400	 0.176575539737191 
1401	 0.173237605779225 
1402	 0.170013514599049 
1403	 0.167038042396086 
1404	 0.164311750361956 
1405	 0.161698935508275 
1406	 0.15916882494152 
1407	 0.156657502487433 
1408	 0.15413620310155 
1409	 0.152074118227878 
1410	 0.150470692939333 
1411	 0.149179887312571 
1412	 0.148496386294639 
1413	 0.147657870320178 
1414	 0.14705651269704 
1415	 0.145860561876155 
1416	 0.144448831804002 
1417	 0.143509938627703 
1418	 0.142474720625996 
1419	 0.141488619732478 
1420	 0.140722400711879 
1421	 0.140138969863996 
1422	 0.139452527486272 
1423	 0.138879674042076 
1424	 0.138604042893317 
1425	 0.138216033034802 
1426	 0.137636362310237 
1427	 0.137220679354181 
1428	 0.1370421707548 
1429	 0.13663515465841 
1430	 0.13600140866619 
1431	 0.135564988446475 
1432	 0.135084958021625 
1433	 0.134740838061742 
1434	 0.134657952192983 
1435	 0.134413564266116 
1436	 0.134075510892002 
1437	 0.133825293523831 
1438	 0.133471594102235 
1439	 0.133301053436406 
1440	 0.13332154281887 
1441	 0.133312556958424 
1442	 0.133384452811412 
1443	 0.133444607548996 
1444	 0.133335196194313 
1445	 0.133438845121731 
1446	 0.133593987435572 
1447	 0.133589604808672 
1448	 0.133620071992698 
1449	 0.133658996333489 
1450	 0.133726176818227 
1451	 0.133713950824689 
1452	 0.133864856983152 
1453	 0.134158192223045 
1454	 0.134310378023278 
1455	 0.134538555218446 
1456	 0.134543279100137 
1457	 0.134328560510505 
1458	 0.134354068860725 
1459	 0.134303754329265 
1460	 0.134455840967525 
1461	 0.134894053256621 
1462	 0.135170688716517 
1463	 0.135442332025384 
1464	 0.135771772653214 
1465	 0.136074935965078 
1466	 0.136501637331618 
1467	 0.136996772941758 
1468	 0.137599298669815 
1469	 0.138340808823064 
1470	 0.139027970836018 
1471	 0.139720529669649 
1472	 0.140455395617028 
1473	 0.141136859023331 
1474	 0.141846781574789 
1475	 0.142653820573153 
1476	 0.143338482045149 
1477	 0.143790821266157 
1478	 0.144489481871675 
1479	 0.145267589822672 
1480	 0.14603414729287 
1481	 0.146903592061234 
1482	 0.147799498100121 
1483	 0.148645517902915 
1484	 0.149527052371048 
1485	 0.150475620885262 
1486	 0.151418668903415 
1487	 0.152344387525658 
1488	 0.153270037613194 
1489	 0.154129150013528 
1490	 0.154947265558265 
1491	 0.155814660543892 
1492	 0.156598144975525 
1493	 0.157469179527799 
1494	 0.158377659541104 
1495	 0.159229305049186 
1496	 0.160063678652938 
1497	 0.160921529670697 
1498	 0.161796668598825 
1499	 0.162658844542303 
1500	 0.163525703973461 
1501	 0.164431641826864 
1502	 0.165337155090048 
1503	 0.166308053094904 
1504	 0.167356284005103 
1505	 0.168359046143034 
1506	 0.16937195255373 
1507	 0.170364528360305 
1508	 0.171358280366783 
1509	 0.172299872147227 
1510	 0.173212150250889 
1511	 0.174134866346042 
1512	 0.175006716239862 
1513	 0.1759293494384 
1514	 0.176894600402239 
1515	 0.177846117996768 
1516	 0.178833895596066 
1517	 0.179772476923125 
1518	 0.180687399853392 
1519	 0.181627142617657 
1520	 0.18254307988601 
1521	 0.183493848246827 
1522	 0.184510281007618 
1523	 0.185457955988511 
1524	 0.18636822802049 
1525	 0.187312096127097 
1526	 0.188265894296016 
1527	 0.189181944559555 
1528	 0.190126393456068 
1529	 0.191018676380046 
1530	 0.191820057108111 
1531	 0.192680399060081 
1532	 0.193554583383199 
1533	 0.194432763382855 
1534	 0.195339229441093 
1535	 0.196236867884087 
1536	 0.197146014254429 
1537	 0.198025322907093 
1538	 0.198879839477028 
1539	 0.199750525907322 
1540	 0.200644312408227 
1541	 0.20148061654291 
1542	 0.20228726974795 
1543	 0.203104884270809 
1544	 0.203851938437243 
1545	 0.204654992698164 
1546	 0.205526022893002 
1547	 0.20636486751518 
1548	 0.207211751223097 
1549	 0.20804579941097 
1550	 0.208890730952338 
1551	 0.209693620405896 
1552	 0.21046468622978 
1553	 0.21123059973745 
1554	 0.211946623339865 
1555	 0.212683004161704 
1556	 0.21343485181127 
1557	 0.214180585239499 
1558	 0.214941288840898 
1559	 0.215676534872029 
1560	 0.216409042582289 
1561	 0.217114301394862 
1562	 0.217780058931241 
1563	 0.218453935525568 
1564	 0.219080807085623 
1565	 0.219783902773299 
1566	 0.220478764799097 
1567	 0.221122641640114 
1568	 0.221794876905748 
1569	 0.222464193297915 
1570	 0.223139895625944 
1571	 0.223804474699661 
1572	 0.224540275872106 
1573	 0.225323902810808 
1574	 0.226016969770007 
1575	 0.22672130838519 
1576	 0.227389146422687 
1577	 0.227966546894489 
1578	 0.228577128473498 
1579	 0.229210415518967 
1580	 0.229807452015578 
1581	 0.230359461732167 
1582	 0.230916848210672 
1583	 0.231448982321392 
1584	 0.232069217495615 
1585	 0.232726819193 
1586	 0.233322312517833 
1587	 0.233969207461056 
1588	 0.234562683628395 
1589	 0.235073442320328 
1590	 0.235621564436044 
1591	 0.236189137225506 
1592	 0.236774994300381 
1593	 0.237340532165907 
1594	 0.237939691974644 
1595	 0.238631360593542 
1596	 0.239190460683713 
1597	 0.239693185953843 
1598	 0.240194722736426 
1599	 0.240628842217663 
1600	 0.241117231956034 
1601	 0.241601524564917 
1602	 0.242147733453997 
1603	 0.242717053720133 
1604	 0.24332438929071 
1605	 0.244033917993304 
1606	 0.244598563287746 
1607	 0.245130515073341 
1608	 0.245627719896896 
1609	 0.24602113440355 
1610	 0.246474393718477 
1611	 0.24692991518769 
1612	 0.247405267279413 
1613	 0.247888305622708 
1614	 0.248365986349091 
1615	 0.248894670615059 
1616	 0.24931249647883 
1617	 0.249658493508756 
1618	 0.250056207941488 
1619	 0.25041074316557 
1620	 0.250802456864937 
1621	 0.25124116768894 
1622	 0.251648890648404 
1623	 0.252025384569685 
1624	 0.252447190377948 
1625	 0.252934164401579 
1626	 0.253304900365418 
1627	 0.253658731805712 
1628	 0.253964419953697 
1629	 0.254144166392206 
1630	 0.254453854161868 
1631	 0.254811398853604 
1632	 0.255146029845171 
1633	 0.25554980230603 
1634	 0.255859430063036 
1635	 0.256061703839832 
1636	 0.256418214147909 
1637	 0.256814517026537 
1638	 0.257209718223451 
1639	 0.257715206662538 
1640	 0.258113762547182 
1641	 0.258442281116565 
1642	 0.258788466708221 
1643	 0.259138753418004 
1644	 0.259449297619484 
1645	 0.259734275524035 
1646	 0.259983225594886 
1647	 0.260217844689355 
1648	 0.26035403055856 
1649	 0.260381957733373 
1650	 0.260516654272123 
1651	 0.26064251706205 
1652	 0.260779278423041 
1653	 0.260977975052255 
1654	 0.261153499327043 
1655	 0.261281759924322 
1656	 0.261420065759892 
1657	 0.26163714615948 
1658	 0.261643972866376 
1659	 0.261622573223156 
1660	 0.261625505655837 
1661	 0.261679423201992 
1662	 0.261810387257953 
1663	 0.262018408991605 
1664	 0.262181681417924 
1665	 0.262263257306243 
1666	 0.262422115155296 
1667	 0.262472330767729 
1668	 0.262418331892726 
1669	 0.262448492778682 
1670	 0.262455800327493 
1671	 0.262447143727085 
1672	 0.26243381743236 
1673	 0.26241786146864 
1674	 0.26242311725342 
1675	 0.262357487760647 
1676	 0.262289535299492 
1677	 0.26223812171886 
1678	 0.262071217471675 
1679	 0.261876633430476 
1680	 0.261751282934174 
1681	 0.261628309474102 
1682	 0.261446793123992 
1683	 0.261241751252831 
1684	 0.261072909213447 
1685	 0.260857204440039 
1686	 0.26064533160592 
1687	 0.260515144027094 
1688	 0.260320299026759 
1689	 0.260124937867484 
1690	 0.259773436924006 
1691	 0.25949754382421 
1692	 0.25921230492321 
1693	 0.258901042523663 
1694	 0.258596571851212 
1695	 0.258372256324052 
1696	 0.258196201189701 
1697	 0.257961072246218 
1698	 0.257827087270734 
1699	 0.257579971814466 
1700	 0.257111624885252 
1701	 0.256792194166562 
1702	 0.256522765480491 
1703	 0.256269608101376 
1704	 0.256177250875244 
1705	 0.25593726906072 
1706	 0.255566412868165 
1707	 0.25525054505121 
1708	 0.254870320621982 
1709	 0.254541540297943 
1710	 0.254321809526853 
1711	 0.254033897351678 
1712	 0.253715819375501 
1713	 0.25338691671573 
1714	 0.253009934179636 
1715	 0.252655255273496 
1716	 0.252351252924194 
1717	 0.251946520737178 
1718	 0.251454099437273 
1719	 0.251047902297853 
1720	 0.250598160270708 
1721	 0.250191787783677 
1722	 0.249898250470953 
1723	 0.249512540625913 
1724	 0.249073605676626 
1725	 0.248694163391369 
1726	 0.248331370315659 
1727	 0.247887658606731 
1728	 0.247368110652724 
1729	 0.247041637104488 
1730	 0.246739070053206 
1731	 0.246486649167249 
1732	 0.246367358263388 
1733	 0.246095794297827 
1734	 0.245838153963445 
1735	 0.245645041132351 
1736	 0.245171974219758 
1737	 0.244668870779022 
1738	 0.244241108421992 
1739	 0.243735291843473 
1740	 0.243345147147511 
1741	 0.242955844267272 
1742	 0.24235778401077 
1743	 0.241627430277446 
1744	 0.240992042936062 
1745	 0.240521899469726 
1746	 0.240012142015672 
1747	 0.239520955854102 
1748	 0.239121601798722 
1749	 0.238458957792156 
1750	 0.237795692471125 
1751	 0.237483179993016 
1752	 0.236932507255968 
1753	 0.23626684613522 
1754	 0.235790170568521 
1755	 0.235137475180099 
1756	 0.234472165168169 
1757	 0.233918907435946 
1758	 0.23334305356882 
1759	 0.232719253936989 
1760	 0.232194959424198 
1761	 0.231769568847376 
1762	 0.231293738719125 
1763	 0.230823949537965 
1764	 0.230344615669676 
1765	 0.229867476909971 
1766	 0.229360999509217 
1767	 0.228776426826106 
1768	 0.228345702407727 
1769	 0.227942903811259 
1770	 0.227650266504538 
1771	 0.227593288722601 
1772	 0.227338917725981 
1773	 0.227059834780808 
1774	 0.226537132983011 
1775	 0.225972225515172 
1776	 0.225473332504451 
1777	 0.225119511218258 
1778	 0.224789059170797 
1779	 0.224467639097584 
1780	 0.22421747187624 
1781	 0.224066902634563 
1782	 0.223986749990711 
1783	 0.223918174024358 
1784	 0.22388209280939 
1785	 0.223757210048181 
1786	 0.223639482255327 
1787	 0.223607697712659 
1788	 0.22344020362802 
1789	 0.223098670723734 
1790	 0.222600879238903 
1791	 0.222362209797119 
1792	 0.222612098606953 
1793	 0.22280142320165 
1794	 0.222951998645581 
1795	 0.222727453292073 
1796	 0.221757973063362 
1797	 0.221303700558712 
1798	 0.221442853242256 
1799	 0.22154095201894 
1800	 0.222202324944593 
1801	 0.223018393140058 
1802	 0.223397694025895 
1803	 0.223484747435269 
1804	 0.223235839070707 
1805	 0.222934658779061 
1806	 0.222494239226431 
1807	 0.222192699425015 
1808	 0.221871594680093 
1809	 0.220859718125962 
1810	 0.220537596270203 
1811	 0.221175482501195 
1812	 0.220440100744383 
1813	 0.218756498421622 
1814	 0.217760950763893 
1815	 0.215774049160802 
1816	 0.214707246638904 
1817	 0.215278681066902 
1818	 0.215172368035431 
1819	 0.215065126789833 
1820	 0.214452617223929 
1821	 0.215420197029599 
1822	 0.21739041463558 
1823	 0.219565026253201 
1824	 0.223858483869067 
1825	 0.228028171556046 
1826	 0.23620524080116 
1827	 0.239832282435571 
1828	 0.241176642680573 
1829	 0.239577278363172 
1830	 0.238167350428167 
1831	 0.222426429088964 
1832	 0.215958515274847 
1833	 0.225189663334662 
1834	 0.220021103808674 
1835	 0.207079192435061 
1836	 0.193500750345647 
1837	 0.158381153987913 
1838	 0.135004685288568 
1839	 0.122673941001288 
1840	 0.125767211069546 
1841	 0.145911416663321 
1842	 0.2031214857998 
1843	 0.223856062462545 
1844	 0.238155591851676 
1845	 0.261509701627725 
1846	 0.293114466279515 
1847	 0.29263715922918 
1848	 0.282993493650479 
1849	 0.279915425664617 
1850	 0.267474330089918 
1851	 0.215470272734158 
1852	 0.19333704199473 
1853	 0.190329913975238 
1854	 0.186442702621653 
1855	 0.181305255724135 
1856	 0.178042621809186 
1857	 0.190299059879038 
1858	 0.18442296474932 
1859	 0.195227798871198 
1860	 0.213184986721217 
1861	 0.217375764489318 
1862	 0.229684769701253 
1863	 0.230990779991272 
1864	 0.205705957128682 
1865	 0.202009938047695 
1866	 0.223161755242246 
1867	 0.213350985789537 
1868	 0.207897027732468 
1869	 0.213387218300043 
1870	 0.201866973658689 
1871	 0.164126250687593 
1872	 0.153093661534413 
1873	 0.158259066959775 
1874	 0.152477274613677 
1875	 0.153179513247826 
1876	 0.149316998254733 
1877	 0.143688555685709 
1878	 0.137270897356056 
1879	 0.129435403629988 
1880	 0.1224256350979 
1881	 0.120937883314691 
1882	 0.12126367124077 
1883	 0.118535101015796 
1884	 0.121406280730381 
1885	 0.117413341193704 
1886	 0.106207390671802 
1887	 9.83017154990917E-02 
1888	 9.21602355023383E-02 
1889	 8.94248676435113E-02 
1890	 9.06848188584181E-02 
1891	 0.101249339523478 
1892	 0.102999213329864 
1893	 0.102518465061133 
1894	 0.101636451404773 
1895	 9.65426735105209E-02 
1896	 9.30808377735277E-02 
1897	 8.77643295315592E-02 
1898	 8.99131406895308E-02 
1899	 8.74325788848632E-02 
1900	 0.080483277654973 
1901	 7.61133448892168E-02 
1902	 7.05134072335781E-02 
1903	 7.00150670887989E-02 
1904	 7.44620090187244E-02 
1905	 7.70888386773733E-02 
1906	 8.33540645982183E-02 
1907	 9.10009562777887E-02 
1908	 9.32632020724272E-02 
1909	 8.92068274736623E-02 
1910	 6.58350609987376E-02 
1911	 0.059792887905189 
1912	 5.83744553235813E-02 
1913	 0.058410829653592 
1914	 5.53466923143135E-02 
1915	 5.36749056733853E-02 
1916	 5.47134286270868E-02 
1917	 5.35897711557254E-02 
1918	 5.53536948949187E-02 
1919	 5.90898343773691E-02 
1920	 6.47154490371449E-02 
1921	 6.68239085612646E-02 
1922	 0.065934967513265 
1923	 6.59167317154654E-02 
1924	 6.51318845150748E-02 
1925	 6.57110156820095E-02 
1926	 6.81561902067264E-02 
1927	 6.75939961795878E-02 
1928	 6.65331426648431E-02 
1929	 6.50586206976127E-02 
1930	 6.24493950445693E-02 
1931	 5.90885312613166E-02 
1932	 5.90991769811938E-02 
1933	 5.90369174470923E-02 
1934	 5.87483713990526E-02 
1935	 5.79897377263427E-02 
1936	 5.86984974062601E-02 
1937	 6.04551843981325E-02 
1938	 6.14314574162262E-02 
1939	 6.28144794218714E-02 
1940	 6.37470337811961E-02 
1941	 6.32318144300336E-02 
1942	 6.20897643799184E-02 
1943	 6.29015644502453E-02 
1944	 6.34021855895435E-02 
1945	 6.37643521016235E-02 
1946	 6.51963177535435E-02 
1947	 6.56941865479857E-02 
1948	 6.48262950778031E-02 
1949	 6.50702928804021E-02 
1950	 6.60885741422767E-02 
1951	 6.62696214393999E-02 
1952	 6.64787751373678E-02 
1953	 6.68911820420484E-02 
1954	 0.066698145980281 
1955	 6.69503596390078E-02 
1956	 6.69958343085056E-02 
1957	 6.72998580102269E-02 
1958	 6.78620070020643E-02 
1959	 6.85239062892489E-02 
1960	 6.91702538299748E-02 
1961	 6.99822791301882E-02 
1962	 7.07943417552258E-02 
1963	 7.13304132242431E-02 
1964	 7.16328309264721E-02 
1965	 7.17773596887537E-02 
1966	 7.20330685949721E-02 
1967	 7.24915899766238E-02 
1968	 7.27944625369242E-02 
1969	 7.30250015510927E-02 
1970	 7.31879715757399E-02 
1971	 7.35154967140119E-02 
1972	 0.073755391754941 
1973	 7.41178070948059E-02 
1974	 7.48774697716517E-02 
1975	 7.55636501358414E-02 
1976	 7.60921654466786E-02 
1977	 7.65022315131739E-02 
1978	 7.67827593328676E-02 
1979	 7.71019521743512E-02 
1980	 7.73262425451241E-02 
1981	 7.79430813877739E-02 
1982	 7.85860726067232E-02 
1983	 7.94486870456835E-02 
1984	 8.00180125636348E-02 
1985	 0.080580637438109 
1986	 8.11167864238776E-02 
1987	 8.14449873340826E-02 
1988	 8.17448972729813E-02 
1989	 8.20237354004943E-02 
1990	 8.20079844005575E-02 
1991	 0.082098107344011 
1992	 8.27036964966707E-02 
1993	 8.34297855502561E-02 
1994	 8.41190593894684E-02 
1995	 8.47314578012874E-02 
1996	 8.53508519359141E-02 
1997	 8.54860962400823E-02 
1998	 0.085890675229488 
1999	 8.66593651484279E-02 
2000	 8.71915650143821E-02 
2001	 8.81865182741075E-02 
2002	 8.89517444190775E-02 
2003	 0.089283988283576 
2004	 9.02312195932592E-02 
2005	 9.05255804956095E-02 
2006	 9.08739197251397E-02 
2007	 9.09083772733696E-02 
2008	 0.091572123654771 
2009	 9.20996253329091E-02 
2010	 9.29280072096932E-02 
2011	 9.37372324586644E-02 
2012	 9.40328546744946E-02 
2013	 9.37853316513496E-02 
2014	 0.093574108695866 
2015	 9.38267705400153E-02 
2016	 9.42005194759842E-02 
2017	 9.47044997902385E-02 
2018	 9.56415442986473E-02 
2019	 9.63208423446708E-02 
2020	 9.68311899924892E-02 
2021	 9.72271148771257E-02 
2022	 0.098148333778903 
2023	 9.83867865379054E-02 
2024	 9.84504464267699E-02 
2025	 9.88915073359906E-02 
2026	 9.89092801772789E-02 
2027	 9.93319886280767E-02 
2028	 0.100121680361917 
2029	 0.100670446208218 
2030	 0.101132321113021 
2031	 0.101357150411563 
2032	 0.101670760994014 
2033	 0.101791367674116 
2034	 0.102287469265786 
2035	 0.102863051704773 
2036	 0.103412731537727 
2037	 0.104086907072399 
2038	 0.104413823724291 
2039	 0.104611799736108 
2040	 0.104931742605927 
2041	 0.105271175542468 
2042	 0.105674947818137 
2043	 0.106123553051771 
2044	 0.106604364861889 
2045	 0.106962851912487 
2046	 0.107191021865949 
2047	 0.107419165171081 
2048	 0.10768472295651 
2049	 0.107741452334199 
2050	 0.108117045399936 
2051	 0.108625439951809 
2052	 0.108812093788279 
2053	 0.109212921033829 
2054	 0.109558254776452 
2055	 0.109673278115373 
2056	 0.109877422701597 
2057	 0.110243928002366 
2058	 0.110880946435922 
2059	 0.111425312109085 
2060	 0.112018469008517 
2061	 0.112572069826752 
2062	 0.112721989907251 
2063	 0.112560162555768 
2064	 0.112856296979217 
2065	 0.113394201500219 
2066	 0.11391501421268 
2067	 0.114632667024724 
2068	 0.115046327856854 
2069	 0.114833216499723 
2070	 0.114969819619815 
2071	 0.115374343324085 
2072	 0.115810767635388 
2073	 0.116231012238361 
2074	 0.116958898501973 
2075	 0.117511291016478 
2076	 0.117896339377359 
2077	 0.117992741937771 
2078	 0.118293890643264 
2079	 0.119048511155176 
2080	 0.1196464729236 
2081	 0.120293918133421 
2082	 0.120825349976347 
2083	 0.121291261163502 
2084	 0.121827593721481 
2085	 0.122486947489736 
2086	 0.123017291820938 
2087	 0.123275810571781 
2088	 0.123152114050255 
2089	 0.12322471605898 
2090	 0.123426980137325 
2091	 0.123852318917297 
2092	 0.124727340073529 
2093	 0.125350209018853 
2094	 0.125808334069345 
2095	 0.126106400332967 
2096	 0.126221913592278 
2097	 0.126625368888844 
2098	 0.126914038402079 
2099	 0.127342590596477 
2100	 0.127879182637296 
2101	 0.127978368012321 
2102	 0.128256157227303 
2103	 0.128551404185928 
2104	 0.128993831633283 
2105	 0.129536636378622 
2106	 0.130098563277451 
2107	 0.130691451421575 
2108	 0.13102658877443 
2109	 0.130701179488744 
2110	 0.130780461686975 
2111	 0.131284065279407 
2112	 0.131505231311655 
2113	 0.13214307538804 
2114	 0.132909843059553 
2115	 0.13334455274008 
2116	 0.134052501245362 
2117	 0.134729569068177 
2118	 0.135558265251263 
2119	 0.136195306628903 
2120	 0.136787643523426 
2121	 0.137216911343561 
2122	 0.137657507644776 
2123	 0.138081215805961 
2124	 0.138282221994375 
2125	 0.138450078774825 
2126	 0.138424693769817 
2127	 0.138320570650734 
2128	 0.139023563526087 
2129	 0.139656352744301 
2130	 0.140143964709606 
2131	 0.140970587567367 
2132	 0.141093204626127 
2133	 0.141365570719351 
2134	 0.141771431448908 
2135	 0.142417788632405 
2136	 0.142734366025831 
2137	 0.143100278399318 
2138	 0.14328879441021 
2139	 0.143511159582291 
2140	 0.143837314539641 
2141	 0.144272325870489 
2142	 0.144293208800559 
2143	 0.144146678155158 
2144	 0.144417895274079 
2145	 0.14453219764087 
2146	 0.144869796937468 
2147	 0.145444676742092 
2148	 0.1455463727903 
2149	 0.145575078269436 
2150	 0.145919325387886 
2151	 0.146194115628029 
2152	 0.146485929852917 
2153	 0.146751014019442 
2154	 0.147078229382746 
2155	 0.147164083661387 
2156	 0.147374794647036 
2157	 0.147809491950003 
2158	 0.148134776883165 
2159	 0.14847679751749 
2160	 0.14880710901199 
2161	 0.148608199684108 
2162	 0.148390946758073 
2163	 0.148615222583752 
2164	 0.148473773714549 
2165	 0.148550374957068 
2166	 0.1491860630133 
2167	 0.149083566731694 
2168	 0.149053038885375 
2169	 0.149165246442661 
2170	 0.149136718416182 
2171	 0.148699454802669 
2172	 0.148826062175939 
2173	 0.149057960102917 
2174	 0.149080357663995 
2175	 0.149296322129934 
2176	 0.149462651660015 
2177	 0.149912041223826 
2178	 0.150241468442861 
2179	 0.150368562124481 
2180	 0.150810275943525 
2181	 0.150873419627977 
2182	 0.15083698209854 
2183	 0.151154015992808 
2184	 0.151028000378231 
2185	 0.151131863169753 
2186	 0.151889127226104 
2187	 0.152182612234943 
2188	 0.152407292981195 
2189	 0.152721630499263 
2190	 0.153034118397587 
2191	 0.152697830272051 
2192	 0.152686267390351 
2193	 0.152619946914144 
2194	 0.15252770473558 
2195	 0.152703645346601 
2196	 0.153185330296262 
2197	 0.153512425232989 
2198	 0.153319485842693 
2199	 0.153581167039765 
2200	 0.153683160946778 
2201	 0.15355839555679 
2202	 0.153733048257262 
2203	 0.153069534343919 
2204	 0.152266412937666 
2205	 0.152265981947831 
2206	 0.15278971914193 
2207	 0.153440452002398 
2208	 0.153683882772424 
2209	 0.153852992987582 
2210	 0.153913616770735 
2211	 0.153582517239744 
2212	 0.153316646752852 
2213	 0.153242108183349 
2214	 0.153285759499022 
2215	 0.153432101546641 
2216	 0.153673888977643 
2217	 0.154251615709702 
2218	 0.154396757978882 
2219	 0.15421957644764 
2220	 0.154283286071104 
2221	 0.154306226796023 
2222	 0.154469002158879 
2223	 0.154677356318393 
2224	 0.154580828522808 
2225	 0.153856751654254 
2226	 0.153286277313333 
2227	 0.153075585512608 
2228	 0.152553849479129 
2229	 0.152367556647801 
2230	 0.15192797782198 
2231	 0.151732503960417 
2232	 0.151807869467061 
2233	 0.151682010321297 
2234	 0.151507584074181 
2235	 0.15163442260138 
2236	 0.151185553350685 
2237	 0.150217295481705 
2238	 0.150256429113044 
2239	 0.150282456745114 
2240	 0.150544575253647 
2241	 0.150658290993626 
2242	 0.150003153891238 
2243	 0.149241636186432 
2244	 0.148352499294375 
2245	 0.147509394262509 
2246	 0.146599573308256 
2247	 0.146247589140908 
2248	 0.146033089206276 
2249	 0.145719278165509 
2250	 0.145937053190857 
2251	 0.145608852959374 
2252	 0.144945288969739 
2253	 0.144906855425076 
2254	 0.144452016242042 
2255	 0.143659249880929 
2256	 0.143122381445479 
2257	 0.14279023468094 
2258	 0.141983813800749 
2259	 0.141191198782256 
2260	 0.140689095456986 
2261	 0.140373816246042 
2262	 0.139756289628767 
2263	 0.139138654908106 
2264	 0.139165834689292 
2265	 0.138885401097216 
2266	 0.138400342427826 
2267	 0.138224577898678 
2268	 0.138066868254803 
2269	 0.137526873946748 
2270	 0.136705463790524 
2271	 0.136068318970432 
2272	 0.135213451699139 
2273	 0.134465986500842 
2274	 0.134424205790631 
2275	 0.134432230445906 
2276	 0.134550602672995 
2277	 0.13467760924217 
2278	 0.134145325086529 
2279	 0.133490616896118 
2280	 0.132876131102912 
2281	 0.131805491355497 
2282	 0.131334456945224 
2283	 0.131511473007761 
2284	 0.131647762094367 
2285	 0.131918194881641 
2286	 0.131885379606235 
2287	 0.131662346565397 
2288	 0.131495842160359 
2289	 0.131153006871033 
2290	 0.130360600996916 
2291	 0.130255219801953 
2292	 0.129983003590064 
2293	 0.129538476919737 
2294	 0.129961697052469 
2295	 0.129523806743594 
2296	 0.12825318267714 
2297	 0.127247092344831 
2298	 0.125867369803116 
2299	 0.12569665669638 
2300	 0.126200279282445 
2301	 0.12583280476504 
2302	 0.125884543180165 
2303	 0.125819232894092 
2304	 0.125364646708019 
2305	 0.125454153980131 
2306	 0.124641712288296 
2307	 0.122774298769933 
2308	 0.121841244898718 
2309	 0.12107770095884 
2310	 0.120173032603332 
2311	 0.120380291826736 
2312	 0.120392650197132 
2313	 0.119492751999607 
2314	 0.119556710020908 
2315	 0.119549350186089 
2316	 0.118039987696908 
2317	 0.117741397430853 
2318	 0.118210285416157 
2319	 0.117839075250711 
2320	 0.118587747022059 
2321	 0.119154721741441 
2322	 0.119528396077024 
2323	 0.11924166342795 
2324	 0.118993326709709 
2325	 0.11830512804622 
2326	 0.116643853186983 
2327	 0.115850974912183 
2328	 0.115691354960732 
2329	 0.115874789650723 
2330	 0.116707122672808 
2331	 0.116659683985942 
2332	 0.115963448315279 
2333	 0.115115116024826 
2334	 0.114346620709981 
2335	 0.114086835984231 
2336	 0.113640488146247 
2337	 0.11337956345222 
2338	 0.113293199217443 
2339	 0.11251492845922 
2340	 0.111638729678055 
2341	 0.111086475799215 
2342	 0.110622196348256 
2343	 0.109699446076539 
2344	 0.10919209427825 
2345	 0.109376732606131 
2346	 0.10866384682979 
2347	 0.107939132688884 
2348	 0.107601581591437 
2349	 0.107283172925338 
2350	 0.106987939676584 
2351	 0.107167546529871 
2352	 0.107041876603946 
2353	 0.10572969832469 
2354	 0.104750200191 
2355	 0.104412195928196 
2356	 0.105063577535721 
2357	 0.106462322323978 
2358	 0.106362765259823 
2359	 0.104670824147127 
2360	 0.103254164220528 
2361	 0.101442676631468 
2362	 0.099935324959892 
2363	 0.10144629735089 
2364	 0.103683247651996 
2365	 0.104455787746918 
2366	 0.1054928473691 
2367	 0.105216735354487 
2368	 0.103861278267197 
2369	 0.10436333535639 
2370	 0.104436062115512 
2371	 0.104279125662719 
2372	 0.103447868969394 
2373	 0.100311687955839 
2374	 9.90443161686113E-02 
2375	 9.85629418244992E-02 
2376	 9.81182723261641E-02 
2377	 9.88252294369939E-02 
2378	 9.93128017192442E-02 
2379	 9.94615345373921E-02 
2380	 9.98072704810759E-02 
2381	 0.101098021326375 
2382	 0.10146855456221 
2383	 0.101870630820647 
2384	 0.101640276202854 
2385	 9.99587955815496E-02 
2386	 9.84996612325705E-02 
2387	 9.57498784651961E-02 
2388	 9.49726175727104E-02 
2389	 9.57723525680916E-02 
2390	 0.096204534616228 
2391	 0.098466438442133 
2392	 9.85436670294588E-02 
2393	 9.64438282384585E-02 
2394	 9.59369243127701E-02 
2395	 9.55259493388758E-02 
2396	 9.50328439309556E-02 
2397	 9.61011345649984E-02 
2398	 9.56648334591486E-02 
2399	 9.26773646261765E-02 
2400	 9.15851479821554E-02 
2401	 9.11378630014172E-02 
2402	 9.07134360017331E-02 
2403	 9.05624832714248E-02 
2404	 8.96020406616803E-02 
2405	 8.76083030157001E-02 
2406	 8.63215892333105E-02 
2407	 8.71035286606475E-02 
2408	 8.96967400590998E-02 
2409	 9.10021040383821E-02 
2410	 9.01001876202671E-02 
2411	 0.088120906330435 
2412	 8.68580823937919E-02 
2413	 8.64123440139591E-02 
2414	 8.71967832579069E-02 
2415	 8.76455677486588E-02 
2416	 8.52153164696404E-02 
2417	 8.21996495229254E-02 
2418	 8.19932737843306E-02 
2419	 8.17942202462321E-02 
2420	 8.10904798750389E-02 
2421	 8.32023756130202E-02 
2422	 8.18407864232862E-02 
2423	 7.72870519503644E-02 
2424	 7.76407428077359E-02 
2425	 7.95177530350318E-02 
2426	 7.98294958566525E-02 
2427	 8.20013473677821E-02 
2428	 8.26428466655208E-02 
2429	 7.92805688779056E-02 
2430	 7.75232364634691E-02 
2431	 7.74159666309097E-02 
2432	 7.38797033948201E-02 
2433	 7.27083777374632E-02 
2434	 7.22256153461533E-02 
2435	 7.14935751623578E-02 
2436	 7.16759454120534E-02 
2437	 7.29982180009012E-02 
2438	 7.39437104090397E-02 
2439	 7.35258436826673E-02 
2440	 7.51552624221972E-02 
2441	 8.17669928991864E-02 
2442	 8.22476218387366E-02 
2443	 7.94231605699104E-02 
2444	 7.75822029234598E-02 
2445	 6.93574322318058E-02 
2446	 6.75353787745553E-02 
2447	 7.07777921123697E-02 
2448	 0.074812571802579 
2449	 0.086445089444415 
2450	 8.84248968790758E-02 
2451	 8.74327022209761E-02 
2452	 8.50797951658785E-02 
2453	 7.18705570824942E-02 
2454	 6.63664268803679E-02 
2455	 6.24241001918249E-02 
2456	 6.34340804784876E-02 
2457	 7.37248247430413E-02 
2458	 7.62096158261888E-02 
2459	 7.92057856293419E-02 
2460	 7.91794941636393E-02 
2461	 0.071432387782134 
2462	 6.97059722410354E-02 
2463	 7.08752752784241E-02 
2464	 6.83999259470717E-02 
2465	 6.53521056981389E-02 
2466	 6.16469928640681E-02 
2467	 5.43672135524029E-02 
2468	 5.33021061049262E-02 
2469	 5.49914026798503E-02 
2470	 5.71779809236948E-02 
2471	 6.52320567387173E-02 
2472	 6.72545838465254E-02 
2473	 6.89670887436153E-02 
2474	 6.95269418184079E-02 
2475	 6.43926261511163E-02 
2476	 5.90747054023032E-02 
2477	 5.43882430775059E-02 
2478	 4.71726528539054E-02 
2479	 2.82591358334221E-02 
2480	 0.030659130315087 
2481	 5.17880672935846E-02 
2482	 5.67957449852009E-02 
2483	 7.44167520492299E-02 
2484	 7.74063192442981E-02 
2485	 4.39803176964588E-02 
2486	 6.11886991278122E-02 
2487	 6.64366117789982E-02 
2488	 7.09914981271427E-02 
2489	 8.78512087220183E-02 
2490	 0.087900656470725 
2491	 0.109237190678483 
2492	 0.121098670761942 
2493	 0.127103898871423 
2494	 0.13389130422702 
2495	 0.134304879285739 
2496	 0.147965727976893 
2497	 0.153303632911415 
2498	 0.131943889744938 
2499	 0.103941258283286 
2500	 5.58369720345385E-02 
