Wavelength	ref00034.asd
350	 4.36231133118788E-02 
351	 4.41825833597089E-02 
352	 4.44740318103821E-02 
353	 4.46497176613722E-02 
354	 4.49417219835886E-02 
355	 4.47738023320908E-02 
356	 4.42808522115312E-02 
357	 4.53843911972154E-02 
358	 4.62798411209178E-02 
359	 4.65842392015846E-02 
360	 4.65902616965792E-02 
361	 0.047260242412645 
362	 4.80323001842357E-02 
363	 4.83732068856163E-02 
364	 4.80167003104489E-02 
365	 4.85871780920618E-02 
366	 4.88206674613267E-02 
367	 4.84049385303393E-02 
368	 4.88120654043174E-02 
369	 4.90899993917039E-02 
370	 4.96162174550775E-02 
371	 5.06227869969262E-02 
372	 5.09935216378455E-02 
373	 5.11008043264853E-02 
374	 5.12231977502486E-02 
375	 5.15513445052829E-02 
376	 5.20541801297385E-02 
377	 5.22502495106886E-02 
378	 0.052358441020101 
379	 5.34177819121523E-02 
380	 5.38381168415774E-02 
381	 5.43006552675062E-02 
382	 5.53502805238359E-02 
383	 5.57600528755745E-02 
384	 0.056613170694759 
385	 5.75216317599338E-02 
386	 5.76909544878845E-02 
387	 5.81726845168099E-02 
388	 5.91619901236432E-02 
389	 6.02665260173961E-02 
390	 0.060634013453882 
391	 6.11711295723047E-02 
392	 6.20801112885399E-02 
393	 6.31972004392527E-02 
394	 6.38343082393496E-02 
395	 6.47302203791649E-02 
396	 6.57409083140874E-02 
397	 6.64963202070801E-02 
398	 6.71630132000911E-02 
399	 6.79526291486929E-02 
400	 6.88569238792095E-02 
401	 6.96935726096574E-02 
402	 7.04707982646662E-02 
403	 0.071250245721607 
404	 7.21305284048111E-02 
405	 0.073313850519401 
406	 7.42418648949273E-02 
407	 7.50402575849308E-02 
408	 0.076042507118273 
409	 7.72994908766352E-02 
410	 0.078430935389579 
411	 7.94057233253142E-02 
412	 0.080499787162709 
413	 8.14410701161154E-02 
414	 8.24928367118497E-02 
415	 8.37162157595986E-02 
416	 8.45755430444787E-02 
417	 8.54934745755753E-02 
418	 8.64897499423752E-02 
419	 8.74740639454451E-02 
420	 8.85052067220462E-02 
421	 8.95875136963418E-02 
422	 9.06315751642869E-02 
423	 9.14883287661993E-02 
424	 0.092271646930356 
425	 9.31109064936656E-02 
426	 9.40519685170462E-02 
427	 9.49471761438179E-02 
428	 9.60758588511917E-02 
429	 9.71287601508978E-02 
430	 9.77734630540599E-02 
431	 9.86518062101964E-02 
432	 0.099664025154013 
433	 0.100504320326402 
434	 0.100813060089668 
435	 0.101677892094393 
436	 0.102534417127624 
437	 0.103026781530318 
438	 0.103795347780402 
439	 0.10452085938249 
440	 0.105186986891256 
441	 0.105869339542408 
442	 0.106583493285003 
443	 0.107244530373175 
444	 0.107888276265292 
445	 0.108656768967337 
446	 0.109235625656149 
447	 0.109855176263669 
448	 0.110642427350153 
449	 0.111219032957033 
450	 0.111848747099364 
451	 0.112556377222444 
452	 0.113261711244115 
453	 0.113911588171131 
454	 0.114576062031965 
455	 0.115220948021912 
456	 0.115686845410579 
457	 0.116293050448025 
458	 0.116947764603549 
459	 0.117514242088365 
460	 0.118004665707218 
461	 0.118582995982039 
462	 0.119178918256653 
463	 0.119621877547784 
464	 0.120094667066898 
465	 0.120706600763211 
466	 0.121424845056926 
467	 0.122024893622182 
468	 0.12251347569301 
469	 0.123013667941854 
470	 0.123612673960191 
471	 0.124103082822118 
472	 0.12464765714817 
473	 0.12525332526514 
474	 0.125819178999284 
475	 0.126430201807253 
476	 0.126931790591041 
477	 0.127336100182733 
478	 0.12803481277556 
479	 0.12860806875684 
480	 0.12912545773883 
481	 0.129755255410755 
482	 0.130275375230419 
483	 0.130682133795241 
484	 0.131172006926956 
485	 0.132085789472495 
486	 0.132742746883725 
487	 0.133282135834832 
488	 0.13390820799135 
489	 0.134533927893993 
490	 0.135244314523221 
491	 0.135950219974073 
492	 0.136540671054731 
493	 0.137233215237612 
494	 0.137970501820574 
495	 0.138698844690938 
496	 0.139399136762747 
497	 0.140172443963867 
498	 0.14106154048042 
499	 0.142033795850443 
500	 0.142869935694276 
501	 0.143769200236871 
502	 0.144813069324136 
503	 0.145967869527061 
504	 0.146912220236561 
505	 0.147856267410695 
506	 0.148963004755581 
507	 0.150209968297637 
508	 0.15149794813273 
509	 0.152835426257549 
510	 0.154235916348421 
511	 0.155570358405514 
512	 0.156979338839467 
513	 0.158487748815083 
514	 0.160024118370314 
515	 0.161725613297371 
516	 0.163536033928259 
517	 0.16539429183445 
518	 0.167362967644061 
519	 0.169201369326935 
520	 0.17099327529105 
521	 0.17290863622941 
522	 0.174738873669919 
523	 0.176574085473025 
524	 0.178447775892466 
525	 0.180290591909623 
526	 0.182145215216254 
527	 0.18398607434892 
528	 0.185768809990723 
529	 0.187422341147392 
530	 0.189037244362433 
531	 0.190593253823408 
532	 0.192029184535932 
533	 0.193459123782716 
534	 0.194862608631759 
535	 0.196177225926588 
536	 0.197305610938303 
537	 0.198444262808772 
538	 0.199596070505183 
539	 0.200713486390406 
540	 0.20183124477754 
541	 0.202960599275335 
542	 0.204058131195102 
543	 0.205041421688861 
544	 0.205991563280624 
545	 0.206982403549079 
546	 0.208007845727092 
547	 0.208864783391073 
548	 0.209807365617754 
549	 0.210764688704274 
550	 0.211572620606264 
551	 0.212417029967048 
552	 0.213197359270707 
553	 0.213882772834594 
554	 0.214547399941969 
555	 0.215119231255039 
556	 0.215614612343457 
557	 0.216064233897721 
558	 0.216466922001047 
559	 0.216846540401728 
560	 0.217156614562577 
561	 0.217332091436512 
562	 0.217581948885765 
563	 0.217710227357739 
564	 0.217670927719801 
565	 0.217778720076448 
566	 0.217770891194974 
567	 0.217619361918356 
568	 0.217382682243441 
569	 0.217124981226331 
570	 0.216834746260856 
571	 0.216587332222476 
572	 0.216520990961374 
573	 0.216362357511164 
574	 0.216199304499954 
575	 0.216118264629621 
576	 0.216021213273886 
577	 0.216016533780843 
578	 0.216014166512157 
579	 0.215855821011364 
580	 0.215648229589774 
581	 0.215386314972559 
582	 0.215148272889152 
583	 0.215128604777197 
584	 0.215209572041457 
585	 0.215420875795245 
586	 0.215759883336753 
587	 0.215977127024549 
588	 0.216247290954404 
589	 0.216561175819788 
590	 0.216778509430698 
591	 0.21704415591244 
592	 0.217319944123062 
593	 0.217526013358056 
594	 0.217507134095731 
595	 0.217737704627009 
596	 0.218063378805041 
597	 0.218212670217124 
598	 0.218519897059839 
599	 0.218871842489493 
600	 0.219220263679411 
601	 0.219597084480224 
602	 0.219924185703591 
603	 0.220127097295297 
604	 0.22022670341636 
605	 0.220485887680856 
606	 0.220656068742051 
607	 0.220737799570144 
608	 0.220846374860455 
609	 0.220957414299384 
610	 0.221088367731907 
611	 0.221193121272013 
612	 0.221136482290962 
613	 0.221131049146404 
614	 0.221158397106991 
615	 0.221157743025025 
616	 0.221159606300486 
617	 0.221208396504313 
618	 0.221288515297563 
619	 0.221352185982194 
620	 0.221488861777763 
621	 0.221714849571378 
622	 0.221985132599212 
623	 0.222144690070045 
624	 0.222439461499108 
625	 0.222781113696279 
626	 0.223039950439832 
627	 0.223556852365164 
628	 0.224020953844776 
629	 0.224364778581702 
630	 0.224777680673318 
631	 0.225230866516131 
632	 0.225611127717921 
633	 0.225868957812725 
634	 0.226176457690362 
635	 0.226329554044811 
636	 0.226391097387712 
637	 0.226512315831736 
638	 0.226535206354196 
639	 0.226552090398247 
640	 0.226550818975399 
641	 0.226365124681844 
642	 0.226146441548031 
643	 0.225951322293839 
644	 0.225790703441046 
645	 0.225632186113576 
646	 0.225383746576468 
647	 0.225132104232835 
648	 0.225057999470947 
649	 0.225070689921235 
650	 0.225092696272879 
651	 0.225112745403053 
652	 0.225226059846915 
653	 0.225319889122261 
654	 0.225358604346039 
655	 0.225377497473667 
656	 0.225625867760983 
657	 0.225763199459102 
658	 0.225688531748948 
659	 0.225550975963937 
660	 0.225445591468755 
661	 0.225254341043773 
662	 0.224965491096695 
663	 0.224811414906562 
664	 0.22484955269679 
665	 0.224820520711409 
666	 0.224513371448552 
667	 0.224561197610825 
668	 0.224653418734893 
669	 0.224700217181432 
670	 0.224843938985233 
671	 0.224940183315267 
672	 0.225086369008051 
673	 0.225374477586283 
674	 0.225800507566212 
675	 0.226244991864675 
676	 0.226731431789002 
677	 0.22731741334796 
678	 0.227891437609824 
679	 0.228533385895643 
680	 0.229306687790237 
681	 0.23023630769525 
682	 0.23123809389524 
683	 0.232342236815739 
684	 0.233597881159616 
685	 0.235014818692537 
686	 0.236761519377699 
687	 0.23889936366864 
688	 0.241216617564273 
689	 0.243677437636039 
690	 0.246375525647496 
691	 0.249345996132805 
692	 0.252341554212021 
693	 0.255714360214397 
694	 0.25947533516255 
695	 0.263496533127485 
696	 0.2676095572315 
697	 0.271798427337447 
698	 0.276161799108919 
699	 0.280781127309202 
700	 0.285408688245661 
701	 0.290111446838789 
702	 0.294889306839841 
703	 0.299613067450827 
704	 0.304191946053171 
705	 0.308654010831835 
706	 0.313086950952624 
707	 0.317515304128265 
708	 0.321841154359063 
709	 0.326050037017124 
710	 0.330176008948614 
711	 0.334451313468035 
712	 0.338769981128166 
713	 0.343073944232945 
714	 0.347400174758521 
715	 0.351695161321253 
716	 0.355844729624848 
717	 0.359962284571189 
718	 0.364456036063641 
719	 0.369000628147913 
720	 0.373339119164319 
721	 0.377386759272242 
722	 0.381150991748155 
723	 0.38485319440122 
724	 0.388789628707689 
725	 0.392837035552173 
726	 0.396540690999785 
727	 0.40006737051013 
728	 0.403668693765087 
729	 0.407161754828735 
730	 0.410331965957805 
731	 0.413356183126607 
732	 0.416462458444369 
733	 0.419116629192367 
734	 0.421618827630403 
735	 0.424149934648845 
736	 0.426677456959392 
737	 0.429233837335866 
738	 0.431523583223168 
739	 0.433505755956808 
740	 0.435682595295796 
741	 0.437567498749247 
742	 0.439218735518254 
743	 0.440845040493177 
744	 0.442499437230832 
745	 0.444050592457818 
746	 0.44547089198857 
747	 0.446809896041641 
748	 0.447994117439594 
749	 0.449179688792772 
750	 0.450406630842575 
751	 0.451470608888827 
752	 0.452451295835407 
753	 0.453429577740403 
754	 0.454426120786593 
755	 0.45525164244984 
756	 0.456007020107245 
757	 0.45667196664266 
758	 0.457211111316239 
759	 0.457983192204683 
760	 0.459283568017434 
761	 0.461123170456383 
762	 0.462247544099181 
763	 0.462852347988815 
764	 0.463216799364201 
765	 0.463441354961108 
766	 0.463519375049662 
767	 0.46363864396791 
768	 0.46388212369708 
769	 0.464263341258241 
770	 0.464633161833978 
771	 0.465100655069954 
772	 0.465630560151336 
773	 0.466074837791291 
774	 0.466559016371098 
775	 0.467067298408109 
776	 0.467573987136503 
777	 0.468079974321381 
778	 0.468482946312528 
779	 0.468885566936584 
780	 0.46938976186242 
781	 0.469897609588327 
782	 0.47037389082352 
783	 0.470848310148448 
784	 0.471369765081047 
785	 0.47183353981226 
786	 0.472358472946421 
787	 0.47292321707656 
788	 0.47334939350883 
789	 0.473842411663292 
790	 0.474286222397828 
791	 0.474634488219476 
792	 0.475104937995831 
793	 0.475672322298932 
794	 0.476264558596056 
795	 0.476809734579937 
796	 0.47735889944667 
797	 0.477754163802399 
798	 0.478036841405442 
799	 0.478380103658877 
800	 0.478940174902493 
801	 0.479504736097988 
802	 0.479974075769178 
803	 0.480435445582199 
804	 0.480993260604413 
805	 0.481510853247258 
806	 0.481887706523029 
807	 0.482191755892868 
808	 0.48266061947065 
809	 0.483154886794926 
810	 0.483502979350091 
811	 0.483949503435179 
812	 0.484406706293997 
813	 0.484938908376784 
814	 0.485634260005051 
815	 0.486056411613369 
816	 0.486587326569645 
817	 0.487320932480764 
818	 0.48795121115106 
819	 0.488331643815922 
820	 0.488552023136939 
821	 0.488802848997341 
822	 0.489351817154191 
823	 0.489838113004749 
824	 0.490251785344088 
825	 0.490653744774154 
826	 0.491022589214549 
827	 0.491591192447507 
828	 0.492084990870539 
829	 0.492194334725993 
830	 0.492758977074683 
831	 0.493244650961898 
832	 0.493603561489593 
833	 0.494143766253668 
834	 0.494463916839393 
835	 0.49480525550984 
836	 0.49530017247397 
837	 0.4958592318026 
838	 0.496370738878806 
839	 0.49680478183512 
840	 0.49713334075745 
841	 0.497282336367759 
842	 0.497576652495631 
843	 0.49796148348426 
844	 0.498317846667862 
845	 0.498736779915081 
846	 0.499209424576791 
847	 0.49965062373227 
848	 0.499988642598314 
849	 0.500404640711695 
850	 0.500774193830268 
851	 0.501097911670289 
852	 0.501485791804931 
853	 0.502000127136307 
854	 0.502605342506205 
855	 0.503148111101733 
856	 0.503392276805694 
857	 0.503522853159299 
858	 0.503917827390998 
859	 0.504590700929457 
860	 0.504962848356625 
861	 0.50516506195521 
862	 0.505429909276537 
863	 0.5058866727284 
864	 0.506310711594445 
865	 0.506757174273204 
866	 0.50730992084438 
867	 0.50792766266424 
868	 0.508064426026065 
869	 0.508353417689187 
870	 0.508740324212971 
871	 0.508953234430753 
872	 0.509451465442733 
873	 0.51006954716801 
874	 0.510600465831109 
875	 0.510900168923211 
876	 0.511309667906081 
877	 0.511686207562698 
878	 0.512025660566875 
879	 0.512494401731814 
880	 0.513045850613151 
881	 0.513572523654159 
882	 0.514027517955682 
883	 0.514459338523858 
884	 0.514848350140389 
885	 0.515257280167487 
886	 0.515639045381931 
887	 0.515724128226136 
888	 0.516253471348419 
889	 0.516781780952025 
890	 0.516950160963025 
891	 0.517425794725312 
892	 0.517849704995701 
893	 0.518284790801086 
894	 0.518842460522647 
895	 0.519304418992976 
896	 0.52002330273651 
897	 0.520615590672222 
898	 0.520716649827462 
899	 0.521609963867731 
900	 0.52231368889965 
901	 0.522625729740752 
902	 0.522781611819358 
903	 0.522536483639423 
904	 0.522689983273752 
905	 0.523399133333982 
906	 0.524317377610587 
907	 0.525082664804531 
908	 0.525439463763454 
909	 0.525542906677387 
910	 0.525859988183334 
911	 0.526420544983528 
912	 0.526846596603031 
913	 0.527095879183184 
914	 0.527491269396984 
915	 0.528163166854082 
916	 0.528342421421512 
917	 0.528140501189347 
918	 0.528659185927175 
919	 0.529320475701954 
920	 0.529765107214539 
921	 0.529862863090883 
922	 0.529780386627664 
923	 0.530273442749261 
924	 0.530603125253314 
925	 0.530466024863208 
926	 0.530632376369658 
927	 0.530098512554536 
928	 0.530159835574712 
929	 0.531335559936248 
930	 0.531649370782658 
931	 0.531617283646344 
932	 0.531874527698499 
933	 0.532748074141386 
934	 0.533620387993211 
935	 0.533784999067937 
936	 0.53364123636342 
937	 0.533565523908188 
938	 0.533172661741195 
939	 0.53416401226398 
940	 0.533892196570613 
941	 0.531854615896212 
942	 0.533084273298195 
943	 0.535038954533208 
944	 0.536460345753245 
945	 0.536491672660415 
946	 0.534619986902378 
947	 0.534407556054647 
948	 0.53431981128997 
949	 0.533565909821362 
950	 0.535824181926254 
951	 0.534650408001917 
952	 0.533367936535602 
953	 0.534807680271493 
954	 0.535604095754392 
955	 0.535771232731439 
956	 0.536012086165243 
957	 0.536579547578616 
958	 0.536423370837663 
959	 0.53533333109187 
960	 0.535273202994306 
961	 0.536696357942296 
962	 0.536601681956587 
963	 0.537352552958833 
964	 0.537667163803311 
965	 0.537114637990602 
966	 0.537836210520663 
967	 0.538559605227194 
968	 0.538560876658671 
969	 0.537755346058911 
970	 0.536874987291261 
971	 0.537482207161535 
972	 0.538088268844549 
973	 0.538053480042973 
974	 0.538812641353457 
975	 0.539887527486285 
976	 0.541006147026114 
977	 0.541876960690802 
978	 0.542173466897266 
979	 0.540973112302983 
980	 0.540687590081066 
981	 0.541647175240377 
982	 0.541659273836303 
983	 0.542470893805215 
984	 0.542695371117234 
985	 0.542166268008673 
986	 0.542192333272893 
987	 0.54353580751448 
988	 0.544367523635682 
989	 0.543938331701761 
990	 0.542984453309776 
991	 0.543681394204747 
992	 0.544837946605585 
993	 0.545540588310707 
994	 0.545411894255768 
995	 0.544494435963613 
996	 0.54491606226594 
997	 0.545706773445053 
998	 0.544937935796924 
999	 0.543693100173984 
1000	 0.545048968620836 
1001	 0.54984280439025 
1002	 0.550358853545706 
1003	 0.550829488912027 
1004	 0.551348247910706 
1005	 0.551857842410301 
1006	 0.552359434869207 
1007	 0.552737331592554 
1008	 0.553014616063274 
1009	 0.55344586692182 
1010	 0.55393690046255 
1011	 0.554254409206229 
1012	 0.554617234422824 
1013	 0.55507907971426 
1014	 0.555180783196618 
1015	 0.55546771682679 
1016	 0.556028693258171 
1017	 0.556426257934559 
1018	 0.556875205022557 
1019	 0.557400936352014 
1020	 0.557863068192707 
1021	 0.558327554642169 
1022	 0.558722927308064 
1023	 0.559034842816083 
1024	 0.559447524504433 
1025	 0.55986320191317 
1026	 0.560281252031834 
1027	 0.56086287372275 
1028	 0.56126853860543 
1029	 0.561655889629696 
1030	 0.562157822647126 
1031	 0.562394677342992 
1032	 0.562811316593749 
1033	 0.563200827087747 
1034	 0.563418561308884 
1035	 0.563781063279808 
1036	 0.564369511417971 
1037	 0.564754553343103 
1038	 0.56507952736393 
1039	 0.565497956029947 
1040	 0.565668000566835 
1041	 0.56583443006077 
1042	 0.566047328351615 
1043	 0.566281348984016 
1044	 0.566728622551424 
1045	 0.567085102417693 
1046	 0.567444209590765 
1047	 0.56783211183317 
1048	 0.568049300216352 
1049	 0.568287633468505 
1050	 0.568507294547741 
1051	 0.568691519799292 
1052	 0.56882820498348 
1053	 0.568996126433121 
1054	 0.569275525550111 
1055	 0.569742265935777 
1056	 0.57009643382591 
1057	 0.570296324029676 
1058	 0.570564539508759 
1059	 0.570809828108076 
1060	 0.571062305789965 
1061	 0.571471063639402 
1062	 0.571733168028094 
1063	 0.571907904989574 
1064	 0.572217046998411 
1065	 0.572456985993378 
1066	 0.572691600014931 
1067	 0.573037235302125 
1068	 0.57332118509946 
1069	 0.573537546170989 
1070	 0.573943351875163 
1071	 0.57428560311682 
1072	 0.574654054923126 
1073	 0.575051839541575 
1074	 0.575289114656381 
1075	 0.575557315582119 
1076	 0.575958330934924 
1077	 0.576203033996425 
1078	 0.576421775591665 
1079	 0.576830018442097 
1080	 0.57711975226179 
1081	 0.577420662690787 
1082	 0.577742496399652 
1083	 0.578114677036111 
1084	 0.578366968537188 
1085	 0.578621289514786 
1086	 0.578810908077265 
1087	 0.578966624965952 
1088	 0.579168038959114 
1089	 0.579489533257775 
1090	 0.579822672468625 
1091	 0.580100660844704 
1092	 0.580416951395504 
1093	 0.580705769132685 
1094	 0.580955634384519 
1095	 0.581297424224618 
1096	 0.581607517842701 
1097	 0.58189357052307 
1098	 0.58215293503716 
1099	 0.582424819021691 
1100	 0.582631316226761 
1101	 0.582809380985002 
1102	 0.58311614491399 
1103	 0.583279343667561 
1104	 0.583435773002593 
1105	 0.583731042846933 
1106	 0.584025484608956 
1107	 0.584392806166168 
1108	 0.584702919217929 
1109	 0.584848891929062 
1110	 0.584921336711807 
1111	 0.584990017341343 
1112	 0.584896669175807 
1113	 0.585010162754425 
1114	 0.585207467673682 
1115	 0.585401302548335 
1116	 0.585677862569616 
1117	 0.586072042295828 
1118	 0.586356617568363 
1119	 0.586601769487904 
1120	 0.586834482790384 
1121	 0.587109417746489 
1122	 0.587490251726805 
1123	 0.588071327195739 
1124	 0.588341102953441 
1125	 0.588507474787424 
1126	 0.588713132159245 
1127	 0.588721619118783 
1128	 0.588690897815183 
1129	 0.588740130558184 
1130	 0.588737411083922 
1131	 0.588662611899543 
1132	 0.588531874835492 
1133	 0.58845683562163 
1134	 0.588234357068047 
1135	 0.587878641764757 
1136	 0.587441949241952 
1137	 0.587068208470982 
1138	 0.58674744190157 
1139	 0.586388014872942 
1140	 0.585951847156287 
1141	 0.585529280763732 
1142	 0.585105687906755 
1143	 0.584614671849242 
1144	 0.58403596050179 
1145	 0.583518551811116 
1146	 0.58293993016515 
1147	 0.582510146227727 
1148	 0.582145734185014 
1149	 0.581848806187712 
1150	 0.581656774555345 
1151	 0.581459486574884 
1152	 0.581344732475038 
1153	 0.58124025750721 
1154	 0.580972151410922 
1155	 0.580703615256141 
1156	 0.580462225682538 
1157	 0.580263914884905 
1158	 0.580157737456252 
1159	 0.58018312224588 
1160	 0.58011334068489 
1161	 0.579990820158975 
1162	 0.579927227048112 
1163	 0.579834940265867 
1164	 0.579813668927082 
1165	 0.579815409272483 
1166	 0.579858423927376 
1167	 0.579947103132265 
1168	 0.580079293827716 
1169	 0.580222006380207 
1170	 0.58048638350989 
1171	 0.580736866545839 
1172	 0.580941134756448 
1173	 0.581186042594897 
1174	 0.581347954346194 
1175	 0.58147298159211 
1176	 0.581672767254862 
1177	 0.581860988199517 
1178	 0.582017914511583 
1179	 0.582251686216294 
1180	 0.582594167607176 
1181	 0.582798802388467 
1182	 0.583005765557576 
1183	 0.583150024736833 
1184	 0.583088819024773 
1185	 0.583211333949667 
1186	 0.583463651069445 
1187	 0.583624075288011 
1188	 0.583758252243007 
1189	 0.583996142685901 
1190	 0.584194875473353 
1191	 0.584308590051192 
1192	 0.584580872229643 
1193	 0.584861240606468 
1194	 0.585056366996122 
1195	 0.585195524851576 
1196	 0.585386477143656 
1197	 0.585533608210758 
1198	 0.585743958905487 
1199	 0.586050537499554 
1200	 0.586274679998367 
1201	 0.586467155479336 
1202	 0.58666693808699 
1203	 0.586783759656868 
1204	 0.587016198589939 
1205	 0.587328919186096 
1206	 0.587620975133297 
1207	 0.58798164762171 
1208	 0.588293983530918 
1209	 0.58857815580476 
1210	 0.588804042251024 
1211	 0.589141670178751 
1212	 0.589513419445477 
1213	 0.589879295634998 
1214	 0.590336008706266 
1215	 0.590670917365099 
1216	 0.590935402015447 
1217	 0.591238788536536 
1218	 0.591487378175263 
1219	 0.591799290811045 
1220	 0.592150649458569 
1221	 0.592510723145876 
1222	 0.592892879130553 
1223	 0.593283807496471 
1224	 0.593665951747602 
1225	 0.594098173022778 
1226	 0.594640230099898 
1227	 0.595076837259031 
1228	 0.595484318618717 
1229	 0.595893697333833 
1230	 0.596266262263441 
1231	 0.596559060026756 
1232	 0.596949898581199 
1233	 0.597446481579929 
1234	 0.597772439812698 
1235	 0.598037735305013 
1236	 0.598332755870352 
1237	 0.59851607459791 
1238	 0.598824561069411 
1239	 0.599212215151668 
1240	 0.599602782471997 
1241	 0.600055394422441 
1242	 0.600449281287996 
1243	 0.600873011540644 
1244	 0.60123905642612 
1245	 0.601519523867046 
1246	 0.601847094076771 
1247	 0.602141828018879 
1248	 0.602491997571462 
1249	 0.602922445451542 
1250	 0.603305454488909 
1251	 0.603717658251853 
1252	 0.604102478058928 
1253	 0.604440835292905 
1254	 0.604716468108621 
1255	 0.605031031819647 
1256	 0.605311205975013 
1257	 0.605654953744715 
1258	 0.606109708829592 
1259	 0.606387644102705 
1260	 0.606565389993184 
1261	 0.606843893926414 
1262	 0.607050555633113 
1263	 0.607299861982721 
1264	 0.60770178271604 
1265	 0.607985469638446 
1266	 0.608164479135423 
1267	 0.608364184525548 
1268	 0.608560356364098 
1269	 0.608725445023543 
1270	 0.608816606725273 
1271	 0.608959465666146 
1272	 0.609076752074675 
1273	 0.609260549365745 
1274	 0.609437013891592 
1275	 0.609698836608495 
1276	 0.609796897960467 
1277	 0.609816646853127 
1278	 0.609886558506841 
1279	 0.609868205815686 
1280	 0.609943871055263 
1281	 0.610080085040036 
1282	 0.610232924136754 
1283	 0.610416997242873 
1284	 0.610588838172322 
1285	 0.610836604672372 
1286	 0.610991582382866 
1287	 0.611042488479992 
1288	 0.611182672802672 
1289	 0.611385911207288 
1290	 0.611494940879063 
1291	 0.611564619421853 
1292	 0.61168428824597 
1293	 0.611727555515763 
1294	 0.611826469302879 
1295	 0.612031802131526 
1296	 0.612240814725258 
1297	 0.612370998369057 
1298	 0.61249578648881 
1299	 0.612507640169767 
1300	 0.612413618816975 
1301	 0.612382031230024 
1302	 0.612268935404244 
1303	 0.612246156212348 
1304	 0.612296249162139 
1305	 0.61231986698015 
1306	 0.612395849526467 
1307	 0.61237241554202 
1308	 0.61232185183323 
1309	 0.612237316823199 
1310	 0.612090444660495 
1311	 0.611909533873452 
1312	 0.611714877551764 
1313	 0.611463109168196 
1314	 0.611062896578329 
1315	 0.610772847157152 
1316	 0.610539798842322 
1317	 0.610266099143335 
1318	 0.610119714873232 
1319	 0.609811651415166 
1320	 0.609302150301234 
1321	 0.608824827892737 
1322	 0.608487170332722 
1323	 0.608178012405052 
1324	 0.607765260082429 
1325	 0.607485742574552 
1326	 0.607016328120937 
1327	 0.606270828520796 
1328	 0.605707074251634 
1329	 0.605239458346341 
1330	 0.604641068472909 
1331	 0.60397603349069 
1332	 0.603338006555385 
1333	 0.60263695866851 
1334	 0.602005204642584 
1335	 0.601516644916158 
1336	 0.600864762721834 
1337	 0.60006730303131 
1338	 0.599362336047118 
1339	 0.598515450574794 
1340	 0.597773792341839 
1341	 0.597106881199622 
1342	 0.596448356058777 
1343	 0.595736095772006 
1344	 0.595052244610422 
1345	 0.594363272481143 
1346	 0.593686417377824 
1347	 0.592891441216895 
1348	 0.59183659736572 
1349	 0.591022595413053 
1350	 0.590231842185759 
1351	 0.589408977390392 
1352	 0.589027078089914 
1353	 0.588950447354867 
1354	 0.590110644551516 
1355	 0.590354920222415 
1356	 0.592186491472249 
1357	 0.592800894329091 
1358	 0.586522601845208 
1359	 0.584725281496508 
1360	 0.589826448450839 
1361	 0.593399252363755 
1362	 0.61260228755211 
1363	 0.618677373423552 
1364	 0.592684523075275 
1365	 0.584763818765378 
1366	 0.574675095886926 
1367	 0.567647166939758 
1368	 0.575877119627757 
1369	 0.575920167663657 
1370	 0.572280098063143 
1371	 0.568803675292365 
1372	 0.565115381814167 
1373	 0.562163259947957 
1374	 0.554670483717878 
1375	 0.553089214626494 
1376	 0.559890325844722 
1377	 0.563337876247942 
1378	 0.565063223531076 
1379	 0.571505089289035 
1380	 0.56893227081255 
1381	 0.558754783054073 
1382	 0.551254248923249 
1383	 0.541713198785584 
1384	 0.535203514753255 
1385	 0.530106050164123 
1386	 0.525517661192364 
1387	 0.52307927666101 
1388	 0.519452165724221 
1389	 0.515887587350527 
1390	 0.511993737552329 
1391	 0.506919918075702 
1392	 0.504409430737597 
1393	 0.504124085308209 
1394	 0.500913736344355 
1395	 0.49874034117954 
1396	 0.49409605606088 
1397	 0.484488790914106 
1398	 0.479514973688859 
1399	 0.476866207691876 
1400	 0.472876957446024 
1401	 0.470030628828827 
1402	 0.467336517590121 
1403	 0.464696421983363 
1404	 0.4608520879153 
1405	 0.458018910175469 
1406	 0.453796003340629 
1407	 0.4487848754588 
1408	 0.445280003771693 
1409	 0.442268573374156 
1410	 0.44099054771343 
1411	 0.439428613497515 
1412	 0.4385742535927 
1413	 0.43676644332925 
1414	 0.434911511099638 
1415	 0.433049835618415 
1416	 0.430873703308635 
1417	 0.429168465713839 
1418	 0.427724240884382 
1419	 0.426253714995177 
1420	 0.424744957891699 
1421	 0.423433429442825 
1422	 0.422239239121084 
1423	 0.421142999720768 
1424	 0.420251654050406 
1425	 0.41910801975727 
1426	 0.417392934219806 
1427	 0.416676915987657 
1428	 0.416487552687614 
1429	 0.415907993862365 
1430	 0.415878091071672 
1431	 0.415340453049611 
1432	 0.413748302690988 
1433	 0.413062735100503 
1434	 0.412828312198004 
1435	 0.412590200901062 
1436	 0.412870515459676 
1437	 0.412852835256402 
1438	 0.412659765620614 
1439	 0.412494423786991 
1440	 0.412176560775706 
1441	 0.412036463114663 
1442	 0.411949192806342 
1443	 0.411975071970629 
1444	 0.411920004240663 
1445	 0.412107723057615 
1446	 0.412485701360218 
1447	 0.412657885626174 
1448	 0.412778416282809 
1449	 0.412942081216063 
1450	 0.413029028892539 
1451	 0.412887673175503 
1452	 0.413051691318418 
1453	 0.413381251503085 
1454	 0.41359037391266 
1455	 0.413845968239457 
1456	 0.41407877945657 
1457	 0.414291902104206 
1458	 0.414472832260029 
1459	 0.414621820252797 
1460	 0.414865109413197 
1461	 0.415104822281036 
1462	 0.415423022824228 
1463	 0.415826817513883 
1464	 0.416378167450105 
1465	 0.417044385970725 
1466	 0.417767049864395 
1467	 0.41864913989567 
1468	 0.419578560319105 
1469	 0.420511332821525 
1470	 0.421532025878841 
1471	 0.422667503990772 
1472	 0.423752414511257 
1473	 0.424793329186417 
1474	 0.425783765298049 
1475	 0.426592463694829 
1476	 0.427600863872192 
1477	 0.428587712617368 
1478	 0.429690140501191 
1479	 0.431026186422557 
1480	 0.4322253025404 
1481	 0.433289860502058 
1482	 0.434510729248101 
1483	 0.435812561397405 
1484	 0.437004327581737 
1485	 0.438192571094077 
1486	 0.439398507446734 
1487	 0.440434422462838 
1488	 0.44160852559264 
1489	 0.442833195586099 
1490	 0.444046759509572 
1491	 0.445301714392983 
1492	 0.44637478816293 
1493	 0.447523382093637 
1494	 0.448686772158243 
1495	 0.449711727746449 
1496	 0.45065979251388 
1497	 0.451735125828093 
1498	 0.452765811100815 
1499	 0.453899045879458 
1500	 0.455192687600144 
1501	 0.456422434317809 
1502	 0.457640838742159 
1503	 0.458918845713751 
1504	 0.460248950389239 
1505	 0.461556111653765 
1506	 0.46287245154421 
1507	 0.464176983041201 
1508	 0.46553589445057 
1509	 0.466729170536216 
1510	 0.467844631103793 
1511	 0.46897893382925 
1512	 0.469938170159739 
1513	 0.47113660158204 
1514	 0.472474034860666 
1515	 0.47377880124887 
1516	 0.475267359519324 
1517	 0.476538208027072 
1518	 0.477709731146105 
1519	 0.47890196161181 
1520	 0.479979703800298 
1521	 0.481142175992288 
1522	 0.482372809538479 
1523	 0.483554967596643 
1524	 0.484740601003644 
1525	 0.485905454396709 
1526	 0.487062304852885 
1527	 0.488195260469579 
1528	 0.489339974153122 
1529	 0.490424676435502 
1530	 0.491430697773678 
1531	 0.492487706297182 
1532	 0.493513089596847 
1533	 0.494576938118651 
1534	 0.495731847765145 
1535	 0.496812362635987 
1536	 0.497878571949411 
1537	 0.498914186217206 
1538	 0.499876705577806 
1539	 0.500878776047182 
1540	 0.501921155613857 
1541	 0.502897627952246 
1542	 0.503873165914516 
1543	 0.504796762068302 
1544	 0.505584147546032 
1545	 0.506476545975033 
1546	 0.507429236039311 
1547	 0.50834528819416 
1548	 0.509308638096352 
1549	 0.510239892899374 
1550	 0.511085238516924 
1551	 0.512000323901046 
1552	 0.513019638451621 
1553	 0.51394347239044 
1554	 0.514838231969129 
1555	 0.515726274419054 
1556	 0.516561253555903 
1557	 0.517367934946054 
1558	 0.518100052119993 
1559	 0.518935235522712 
1560	 0.519793137726331 
1561	 0.520662980869393 
1562	 0.521741716061606 
1563	 0.522648722435048 
1564	 0.523446992072041 
1565	 0.524197570595516 
1566	 0.524893203594299 
1567	 0.525572330117216 
1568	 0.52637443382893 
1569	 0.527269835210203 
1570	 0.52808492435373 
1571	 0.528924925312082 
1572	 0.52976699455296 
1573	 0.53057702073689 
1574	 0.531369138909927 
1575	 0.532213047728118 
1576	 0.532913958778589 
1577	 0.533426825302179 
1578	 0.534223419253398 
1579	 0.535097710945868 
1580	 0.535884048297378 
1581	 0.536822380457191 
1582	 0.537532121904037 
1583	 0.538011236120764 
1584	 0.538703924143006 
1585	 0.539443028810119 
1586	 0.540160569423288 
1587	 0.54094083967436 
1588	 0.541668898684147 
1589	 0.542311462655 
1590	 0.543126945406899 
1591	 0.544052752809383 
1592	 0.544868926910979 
1593	 0.545785652460929 
1594	 0.546493878549523 
1595	 0.547037858178749 
1596	 0.547644444159389 
1597	 0.548132182920592 
1598	 0.548837159648588 
1599	 0.549659588179504 
1600	 0.550405528391587 
1601	 0.551231534959531 
1602	 0.552025457350946 
1603	 0.552751738068436 
1604	 0.553519641721005 
1605	 0.554399187168868 
1606	 0.555080870049123 
1607	 0.555621256148649 
1608	 0.556256461414325 
1609	 0.55687749855992 
1610	 0.557420447554955 
1611	 0.557899801226369 
1612	 0.558539337136002 
1613	 0.559193995705651 
1614	 0.559779082365913 
1615	 0.560495373978501 
1616	 0.561087560952132 
1617	 0.561462873966199 
1618	 0.562028098830775 
1619	 0.562712238750367 
1620	 0.563354317536602 
1621	 0.5640423651683 
1622	 0.564614082783233 
1623	 0.565197635854181 
1624	 0.565640305124617 
1625	 0.565903837412926 
1626	 0.56629319689742 
1627	 0.566660210199022 
1628	 0.567080163155244 
1629	 0.56755177160346 
1630	 0.568036317472004 
1631	 0.568565572774704 
1632	 0.569023660278028 
1633	 0.569550109162244 
1634	 0.569877072206031 
1635	 0.570021744793897 
1636	 0.570320927087808 
1637	 0.570574647107956 
1638	 0.570882251952102 
1639	 0.571303860582592 
1640	 0.571636374534194 
1641	 0.571909960329655 
1642	 0.572199068174845 
1643	 0.572497473212674 
1644	 0.572771892067835 
1645	 0.573044088951415 
1646	 0.573204270861143 
1647	 0.573269284499681 
1648	 0.573506080093481 
1649	 0.573715411682291 
1650	 0.574016086278623 
1651	 0.574518279749362 
1652	 0.574773940432875 
1653	 0.574935509418745 
1654	 0.57507439126876 
1655	 0.575200669528305 
1656	 0.575138733811815 
1657	 0.574914941550767 
1658	 0.574876674629576 
1659	 0.574719915271145 
1660	 0.574824672703882 
1661	 0.574857860675962 
1662	 0.574733009709582 
1663	 0.574908530784268 
1664	 0.575097208596177 
1665	 0.575240201436338 
1666	 0.575495276145074 
1667	 0.575481799786935 
1668	 0.575590422894984 
1669	 0.575816392846997 
1670	 0.575755636759056 
1671	 0.575775646296757 
1672	 0.575627258559376 
1673	 0.575281980322371 
1674	 0.575134082616985 
1675	 0.575005827374569 
1676	 0.574857052522933 
1677	 0.574928300037007 
1678	 0.575039755376406 
1679	 0.57504134582718 
1680	 0.575086029848609 
1681	 0.574970646798539 
1682	 0.574681655664644 
1683	 0.574471193379741 
1684	 0.574328192808587 
1685	 0.574113578343837 
1686	 0.573872158188091 
1687	 0.573772661770355 
1688	 0.573584997307357 
1689	 0.573334268313739 
1690	 0.57333910856237 
1691	 0.573172084357584 
1692	 0.57297892704095 
1693	 0.572668482501882 
1694	 0.572071530252387 
1695	 0.571686718129334 
1696	 0.571405251096906 
1697	 0.57104113667576 
1698	 0.570807678809513 
1699	 0.570413165984409 
1700	 0.569785576725769 
1701	 0.569276993774057 
1702	 0.568737805352055 
1703	 0.568301961658963 
1704	 0.567980976725074 
1705	 0.567586876934449 
1706	 0.567290243697707 
1707	 0.566862084645546 
1708	 0.566250363551675 
1709	 0.565809036007427 
1710	 0.565411450502805 
1711	 0.564946111686501 
1712	 0.564566261658769 
1713	 0.564109715177127 
1714	 0.563496410292051 
1715	 0.56302172655902 
1716	 0.562680983126765 
1717	 0.562199254383898 
1718	 0.561627770970818 
1719	 0.561151934821255 
1720	 0.560719213359501 
1721	 0.560158811435475 
1722	 0.559497969726834 
1723	 0.559110874920829 
1724	 0.558740715872497 
1725	 0.558376006422211 
1726	 0.558197281632505 
1727	 0.558083926367702 
1728	 0.557968514429481 
1729	 0.557828260066954 
1730	 0.557883600386509 
1731	 0.557671735128067 
1732	 0.557384195888142 
1733	 0.557229564923926 
1734	 0.557214837707637 
1735	 0.557257481609382 
1736	 0.557416492242914 
1737	 0.557579431547474 
1738	 0.557503004393373 
1739	 0.55713701608601 
1740	 0.556610917562617 
1741	 0.556125589210433 
1742	 0.555909415566874 
1743	 0.555818745209005 
1744	 0.555624816425775 
1745	 0.555387197910747 
1746	 0.554937405393901 
1747	 0.554377381233307 
1748	 0.553889025301199 
1749	 0.55336170580317 
1750	 0.552777189109048 
1751	 0.552276444613504 
1752	 0.551839739306837 
1753	 0.551148917806416 
1754	 0.55044490762724 
1755	 0.549560166476601 
1756	 0.548420437550314 
1757	 0.547612280222175 
1758	 0.546839502804143 
1759	 0.546339448309846 
1760	 0.545842074083546 
1761	 0.545274978630717 
1762	 0.544858921031821 
1763	 0.544591424988068 
1764	 0.544141454043437 
1765	 0.543619299881127 
1766	 0.543145985780479 
1767	 0.542723142394193 
1768	 0.542375224062712 
1769	 0.542016484198656 
1770	 0.541719647002524 
1771	 0.54144123644855 
1772	 0.541024854378001 
1773	 0.540631588307478 
1774	 0.540445955992829 
1775	 0.540385567626613 
1776	 0.540262292227206 
1777	 0.539923206752162 
1778	 0.539636899964399 
1779	 0.539095780770642 
1780	 0.53877821711423 
1781	 0.538907326488962 
1782	 0.538974257568972 
1783	 0.538997492209917 
1784	 0.538893190557826 
1785	 0.538712646961576 
1786	 0.538500179126159 
1787	 0.538090145940947 
1788	 0.537649577276734 
1789	 0.537280046496216 
1790	 0.53692699356222 
1791	 0.537071554664797 
1792	 0.537586810167573 
1793	 0.538181748457575 
1794	 0.538516259273734 
1795	 0.538053468583875 
1796	 0.537703752031339 
1797	 0.53737550139481 
1798	 0.537039218682625 
1799	 0.537441870686594 
1800	 0.539121379595272 
1801	 0.546376699508613 
1802	 0.544199319777332 
1803	 0.543966247214375 
1804	 0.544804546779678 
1805	 0.544830446733937 
1806	 0.545514575139529 
1807	 0.545738856330984 
1808	 0.544266659419268 
1809	 0.544494409032909 
1810	 0.544982590377761 
1811	 0.54616300429408 
1812	 0.547176274293747 
1813	 0.548978812643361 
1814	 0.550634019925997 
1815	 0.553291212041566 
1816	 0.554489252694958 
1817	 0.55453073950113 
1818	 0.555400203142243 
1819	 0.555905627208149 
1820	 0.554381627366381 
1821	 0.553780527683588 
1822	 0.554595115281986 
1823	 0.554295399359332 
1824	 0.554064521688351 
1825	 0.550739653651539 
1826	 0.538409338663732 
1827	 0.534515264747426 
1828	 0.533522619105782 
1829	 0.53462875787101 
1830	 0.532273600209949 
1831	 0.548529441997696 
1832	 0.549538133830148 
1833	 0.516431001533611 
1834	 0.496341740525379 
1835	 0.473241784901346 
1836	 0.462053334230321 
1837	 0.504694074524968 
1838	 0.510781426140269 
1839	 0.508114670401036 
1840	 0.514006825671342 
1841	 0.5052913310847 
1842	 0.436783968168914 
1843	 0.436220009143641 
1844	 0.493412076502592 
1845	 0.504557411813387 
1846	 0.501882260921859 
1847	 0.519273501546206 
1848	 0.537805631908623 
1849	 0.536292427943264 
1850	 0.55668597361214 
1851	 0.642346046647532 
1852	 0.630871163119437 
1853	 0.5498506634518 
1854	 0.525655781781082 
1855	 0.480227625055982 
1856	 0.457858876252495 
1857	 0.465067141778689 
1858	 0.487276597348456 
1859	 0.476193242660296 
1860	 0.439602138955831 
1861	 0.43867790578611 
1862	 0.431577074677085 
1863	 0.445487087312059 
1864	 0.511014210184542 
1865	 0.539419175826006 
1866	 0.563677904224602 
1867	 0.589399463031165 
1868	 0.568479831713248 
1869	 0.523143168750611 
1870	 0.511666542473638 
1871	 0.502657191232434 
1872	 0.494019773586534 
1873	 0.547413585458246 
1874	 0.518765687144867 
1875	 0.43150289333262 
1876	 0.412260826424504 
1877	 0.396689736775412 
1878	 0.392318222007095 
1879	 0.407998529805441 
1880	 0.426555041374198 
1881	 0.432482676848929 
1882	 0.437075267607913 
1883	 0.430246699237609 
1884	 0.411241658512401 
1885	 0.405881343061991 
1886	 0.398520384868751 
1887	 0.395234339419097 
1888	 0.39605365705496 
1889	 0.403609381248599 
1890	 0.404455223163248 
1891	 0.403619367644314 
1892	 0.397912145592571 
1893	 0.386764017831341 
1894	 0.378840534417454 
1895	 0.360919094848089 
1896	 0.351060389316223 
1897	 0.349454725433848 
1898	 0.345643157031993 
1899	 0.341393067364581 
1900	 0.333022257472099 
1901	 0.328060024049854 
1902	 0.329427635016656 
1903	 0.320442011493463 
1904	 0.29971241896856 
1905	 0.298024104072438 
1906	 0.307919452469125 
1907	 0.299290970549536 
1908	 0.296217356145315 
1909	 0.31786085399761 
1910	 0.313201303125474 
1911	 0.302315940818387 
1912	 0.295194887133227 
1913	 0.290799954590765 
1914	 0.285153734786825 
1915	 0.271982004167574 
1916	 0.273186005378631 
1917	 0.278691632064278 
1918	 0.284246115769464 
1919	 0.293231027319803 
1920	 0.302991473112935 
1921	 0.304622161124285 
1922	 0.300302823346693 
1923	 0.299552673150077 
1924	 0.296677231185997 
1925	 0.295995263450379 
1926	 0.297292476548913 
1927	 0.299378333732259 
1928	 0.303581038860682 
1929	 0.301423632910815 
1930	 0.30364582474792 
1931	 0.307237961498737 
1932	 0.307799080426016 
1933	 0.308796242893883 
1934	 0.308764198787184 
1935	 0.307351482030373 
1936	 0.306809456221345 
1937	 0.306683189530524 
1938	 0.306708478892688 
1939	 0.306967630173218 
1940	 0.306604515649909 
1941	 0.307184753031299 
1942	 0.306042836829809 
1943	 0.30619943131675 
1944	 0.307305908952913 
1945	 0.309434100317237 
1946	 0.312545512256483 
1947	 0.314264917229585 
1948	 0.315888808381738 
1949	 0.317587165126663 
1950	 0.318820348973164 
1951	 0.319508126059863 
1952	 0.321416916651225 
1953	 0.32121083278024 
1954	 0.320050000760631 
1955	 0.321175562930087 
1956	 0.322412244709968 
1957	 0.323603876372466 
1958	 0.324574796654375 
1959	 0.325283047288018 
1960	 0.326287849325653 
1961	 0.326665871399421 
1962	 0.328349953566727 
1963	 0.330596530892067 
1964	 0.331383846601083 
1965	 0.331916357101447 
1966	 0.333064996747232 
1967	 0.334347071750008 
1968	 0.335799287493799 
1969	 0.336816701253307 
1970	 0.337818799913906 
1971	 0.338609546503278 
1972	 0.338775145964939 
1973	 0.339694277054453 
1974	 0.341489532544065 
1975	 0.342984667768248 
1976	 0.344346605159935 
1977	 0.345668358639053 
1978	 0.346621278682933 
1979	 0.347496216700145 
1980	 0.348657285571038 
1981	 0.349719568166063 
1982	 0.350673669053808 
1983	 0.351421910420528 
1984	 0.35235772709855 
1985	 0.353235166398262 
1986	 0.354194753431583 
1987	 0.355445952850788 
1988	 0.35677418899484 
1989	 0.358063515007032 
1990	 0.35912148922094 
1991	 0.360284682165427 
1992	 0.361209039143933 
1993	 0.362029873842652 
1994	 0.363244669549042 
1995	 0.364339648373906 
1996	 0.365322006151096 
1997	 0.366474876234423 
1998	 0.367721094253652 
1999	 0.368950654924566 
2000	 0.370055991439769 
2001	 0.370780782248966 
2002	 0.371634326726964 
2003	 0.372165984351714 
2004	 0.372656975346121 
2005	 0.373209594278654 
2006	 0.374077654756123 
2007	 0.374947614960194 
2008	 0.376138748535396 
2009	 0.377448988733195 
2010	 0.379194254211658 
2011	 0.380194228687836 
2012	 0.380668934305027 
2013	 0.38135822687591 
2014	 0.381093897032844 
2015	 0.381159189300139 
2016	 0.381520485878564 
2017	 0.381154093128151 
2018	 0.38157459382417 
2019	 0.38245683723177 
2020	 0.383670682179836 
2021	 0.384757653055603 
2022	 0.385749715149483 
2023	 0.386296198204001 
2024	 0.386310764501328 
2025	 0.386147976503385 
2026	 0.386409239916057 
2027	 0.38692025843017 
2028	 0.387203583629486 
2029	 0.387462586706657 
2030	 0.387890163560511 
2031	 0.387802569886285 
2032	 0.388058481017319 
2033	 0.388380744259992 
2034	 0.389237442817132 
2035	 0.389760147366612 
2036	 0.390683169564318 
2037	 0.391347473447004 
2038	 0.391219352558634 
2039	 0.391380021590317 
2040	 0.391396101721912 
2041	 0.391504246930119 
2042	 0.39179962948728 
2043	 0.391692184560059 
2044	 0.391744314270561 
2045	 0.391666309793405 
2046	 0.391389151582283 
2047	 0.391174523787108 
2048	 0.391473380810266 
2049	 0.391384732611138 
2050	 0.39148663800471 
2051	 0.391683036928501 
2052	 0.391566325485876 
2053	 0.39203799347684 
2054	 0.39268346404786 
2055	 0.39305178975775 
2056	 0.393133525069032 
2057	 0.392981119776044 
2058	 0.392674620523761 
2059	 0.392609503677568 
2060	 0.392683542598015 
2061	 0.393127182615508 
2062	 0.393221844424658 
2063	 0.39349423710692 
2064	 0.393888201317097 
2065	 0.394205745542686 
2066	 0.394532069296668 
2067	 0.394414707097226 
2068	 0.394370635143083 
2069	 0.394336316431793 
2070	 0.394551626508939 
2071	 0.395137395835089 
2072	 0.395382082863482 
2073	 0.395504954318975 
2074	 0.395695310735442 
2075	 0.395872016349426 
2076	 0.395873614126579 
2077	 0.396282225305359 
2078	 0.396534658594594 
2079	 0.396641418865244 
2080	 0.397308480821648 
2081	 0.39794272254965 
2082	 0.398888448021208 
2083	 0.399728173656058 
2084	 0.399909388001008 
2085	 0.400514138968627 
2086	 0.400473772495427 
2087	 0.40072532681947 
2088	 0.400960334546251 
2089	 0.402001902273721 
2090	 0.402416164947609 
2091	 0.403210968074347 
2092	 0.404199266723596 
2093	 0.404674733519576 
2094	 0.405184062350548 
2095	 0.405709033622217 
2096	 0.40608671264449 
2097	 0.406229381451003 
2098	 0.406444827681081 
2099	 0.406820069154797 
2100	 0.407309112666929 
2101	 0.408127474627197 
2102	 0.408869815237259 
2103	 0.409756211968544 
2104	 0.410493075379141 
2105	 0.411375816957532 
2106	 0.411938144877592 
2107	 0.412043168536121 
2108	 0.412508036464246 
2109	 0.412891095612896 
2110	 0.413233938521182 
2111	 0.414322230140286 
2112	 0.415251938716281 
2113	 0.415367814645417 
2114	 0.415598584546963 
2115	 0.41594607905168 
2116	 0.416274353313723 
2117	 0.416910585665461 
2118	 0.418265171870944 
2119	 0.419057906775456 
2120	 0.419663314978565 
2121	 0.420320508472715 
2122	 0.421055939418904 
2123	 0.421924660101805 
2124	 0.422376026927611 
2125	 0.422855520454619 
2126	 0.423239142540928 
2127	 0.423184904608233 
2128	 0.423717961294294 
2129	 0.424287302426621 
2130	 0.424538144370565 
2131	 0.425314068430563 
2132	 0.426429646135125 
2133	 0.427631933561861 
2134	 0.42852200817113 
2135	 0.429413848113506 
2136	 0.430225706020453 
2137	 0.430906737045978 
2138	 0.431274326889315 
2139	 0.431965207223979 
2140	 0.432853033295926 
2141	 0.433529771711748 
2142	 0.433855998880359 
2143	 0.434176945595604 
2144	 0.434275178696447 
2145	 0.434065556075455 
2146	 0.434450825399722 
2147	 0.435075014289377 
2148	 0.435297385114329 
2149	 0.435597218650555 
2150	 0.436243301552578 
2151	 0.436578732312596 
2152	 0.436696056108457 
2153	 0.437098253161189 
2154	 0.437660053579105 
2155	 0.437643103248793 
2156	 0.438092652878557 
2157	 0.438570260111986 
2158	 0.438942269350341 
2159	 0.439339653870644 
2160	 0.439442551594803 
2161	 0.439479911314669 
2162	 0.43973259412391 
2163	 0.440360784840787 
2164	 0.440848307501712 
2165	 0.441437306770791 
2166	 0.442060183454391 
2167	 0.442237035182075 
2168	 0.442186930783533 
2169	 0.441659090098441 
2170	 0.44179690616969 
2171	 0.442076065342685 
2172	 0.442021600104105 
2173	 0.442428499753789 
2174	 0.442904204214641 
2175	 0.442575847105559 
2176	 0.442283618572006 
2177	 0.442344099751488 
2178	 0.442480449374253 
2179	 0.442770696207788 
2180	 0.443297949242438 
2181	 0.444199619695073 
2182	 0.444825332384785 
2183	 0.445159857737163 
2184	 0.445367427030358 
2185	 0.445057289303812 
2186	 0.44525948384794 
2187	 0.445545349470287 
2188	 0.446224613819133 
2189	 0.446601121782264 
2190	 0.447079408271941 
2191	 0.447079265155138 
2192	 0.447132798079312 
2193	 0.446968016786905 
2194	 0.447261851767702 
2195	 0.447640052452953 
2196	 0.447953922396288 
2197	 0.448500835140322 
2198	 0.448496678389759 
2199	 0.448543374675414 
2200	 0.448728684342184 
2201	 0.448645110694958 
2202	 0.448853836232837 
2203	 0.448828136916222 
2204	 0.44863216685327 
2205	 0.448730331083787 
2206	 0.448986982504791 
2207	 0.449130418727793 
2208	 0.44911077999226 
2209	 0.449200369438075 
2210	 0.448962578691785 
2211	 0.448306652136397 
2212	 0.44771258316937 
2213	 0.447524854874004 
2214	 0.446937925970996 
2215	 0.447494453103388 
2216	 0.448796994999246 
2217	 0.449536553663199 
2218	 0.450236936485134 
2219	 0.450585650540027 
2220	 0.450575510771539 
2221	 0.450088737393183 
2222	 0.449443350734058 
2223	 0.44883145998776 
2224	 0.447532664181542 
2225	 0.44705198911942 
2226	 0.447345605829993 
2227	 0.447287996634997 
2228	 0.447136762709825 
2229	 0.446018567539605 
2230	 0.444428305548911 
2231	 0.443401643537955 
2232	 0.442330564155288 
2233	 0.441300712844406 
2234	 0.440638359930815 
2235	 0.440309649255723 
2236	 0.439457247617848 
2237	 0.438414113349432 
2238	 0.437641238535145 
2239	 0.436345884377574 
2240	 0.43435290808791 
2241	 0.432284786615649 
2242	 0.431050276434572 
2243	 0.430835744882628 
2244	 0.430758912731785 
2245	 0.430412883429589 
2246	 0.429837547620062 
2247	 0.428590072355098 
2248	 0.426849345775781 
2249	 0.425467819664157 
2250	 0.423927080954447 
2251	 0.422069119044665 
2252	 0.421474842236317 
2253	 0.421226109622855 
2254	 0.420194972468989 
2255	 0.419537886979465 
2256	 0.418412903121943 
2257	 0.416509502178513 
2258	 0.414323971514829 
2259	 0.41316092333661 
2260	 0.411655303321078 
2261	 0.410688645368984 
2262	 0.410859641130138 
2263	 0.410799188791325 
2264	 0.410300630279868 
2265	 0.409191299236649 
2266	 0.407861405610958 
2267	 0.40657472982837 
2268	 0.405902951060205 
2269	 0.40620982697844 
2270	 0.405989971385596 
2271	 0.405007320886647 
2272	 0.404049062058235 
2273	 0.402847850459785 
2274	 0.401348114417081 
2275	 0.400820820746098 
2276	 0.400768670828304 
2277	 0.400371894658808 
2278	 0.399989814762892 
2279	 0.399874174038793 
2280	 0.400388220840486 
2281	 0.400413387870877 
2282	 0.400594721388198 
2283	 0.401006049054493 
2284	 0.399589003784764 
2285	 0.398312082776116 
2286	 0.397735411190273 
2287	 0.397635286718734 
2288	 0.396552627351711 
2289	 0.396034746948928 
2290	 0.395186950608691 
2291	 0.393312133479915 
2292	 0.392474038223388 
2293	 0.391152014162908 
2294	 0.38964708958588 
2295	 0.389011214208838 
2296	 0.387822792020457 
2297	 0.387683666950853 
2298	 0.388723093051513 
2299	 0.389130799259678 
2300	 0.388722411994209 
2301	 0.386974401876781 
2302	 0.384334196908708 
2303	 0.382149273526007 
2304	 0.380468992616451 
2305	 0.379371269979796 
2306	 0.379357295360255 
2307	 0.378578492003146 
2308	 0.377033436098925 
2309	 0.37728280670226 
2310	 0.37663864175811 
2311	 0.375622637732538 
2312	 0.376036744384431 
2313	 0.375306085901251 
2314	 0.375061377104394 
2315	 0.375746117098281 
2316	 0.376086979160647 
2317	 0.376649627849736 
2318	 0.377230644003713 
2319	 0.376536801239058 
2320	 0.375059446271453 
2321	 0.374444012326323 
2322	 0.373212783601285 
2323	 0.372648842600816 
2324	 0.373115382789049 
2325	 0.373950978157958 
2326	 0.37288175661092 
2327	 0.372161161442969 
2328	 0.371391024580906 
2329	 0.371128928254649 
2330	 0.371292158933165 
2331	 0.370246823728363 
2332	 0.369291482954695 
2333	 0.367216011316867 
2334	 0.365827372214597 
2335	 0.36475105359682 
2336	 0.363992506219663 
2337	 0.366233180828428 
2338	 0.367083805278352 
2339	 0.367327005159525 
2340	 0.367601931300036 
2341	 0.365451179024597 
2342	 0.364447740247619 
2343	 0.364977562273267 
2344	 0.365414232567191 
2345	 0.365557550541381 
2346	 0.365618009221698 
2347	 0.36549675821337 
2348	 0.364750239333946 
2349	 0.364514461269707 
2350	 0.363634463128445 
2351	 0.363735844527476 
2352	 0.363175483130656 
2353	 0.361851537531874 
2354	 0.36233767087761 
2355	 0.359911393802008 
2356	 0.359504017819122 
2357	 0.361276154373742 
2358	 0.360651980459959 
2359	 0.361509285864407 
2360	 0.362588988562785 
2361	 0.362844956144984 
2362	 0.363627427340088 
2363	 0.364662594752143 
2364	 0.363893913873144 
2365	 0.362099857755527 
2366	 0.359657333078405 
2367	 0.357077967047754 
2368	 0.356480750511519 
2369	 0.355300929328861 
2370	 0.35558260550799 
2371	 0.354380033410067 
2372	 0.353358533590494 
2373	 0.352480978208054 
2374	 0.352580659831907 
2375	 0.352089904671499 
2376	 0.352851878978161 
2377	 0.356365264969351 
2378	 0.356172609322922 
2379	 0.354616185571683 
2380	 0.354378337389695 
2381	 0.350510743896705 
2382	 0.348726846663706 
2383	 0.349965089634223 
2384	 0.349937696238934 
2385	 0.350569085280802 
2386	 0.351642933527993 
2387	 0.352949923229178 
2388	 0.352922880538045 
2389	 0.352311855922674 
2390	 0.351137909472912 
2391	 0.348051667377737 
2392	 0.346215852098899 
2393	 0.346306197566935 
2394	 0.344498715320467 
2395	 0.340197473647358 
2396	 0.33961376854511 
2397	 0.339751430330072 
2398	 0.338807374838598 
2399	 0.341420156322455 
2400	 0.342662990530241 
2401	 0.341959325565815 
2402	 0.340605985098524 
2403	 0.34243744375646 
2404	 0.340263417096693 
2405	 0.337536470725878 
2406	 0.337152764126606 
2407	 0.333502145995888 
2408	 0.332493378966266 
2409	 0.337330536275871 
2410	 0.33952673996465 
2411	 0.339551422993087 
2412	 0.341359661502795 
2413	 0.335025141934297 
2414	 0.326119457878243 
2415	 0.325142581825212 
2416	 0.324711955574593 
2417	 0.32724077115557 
2418	 0.331195873969458 
2419	 0.331510048288803 
2420	 0.329549881446965 
2421	 0.323620072651213 
2422	 0.318319976839093 
2423	 0.318038479740618 
2424	 0.318704460846357 
2425	 0.320316305038904 
2426	 0.320712100234173 
2427	 0.315243308187449 
2428	 0.312297936793183 
2429	 0.313038445930738 
2430	 0.315090923378089 
2431	 0.321108010369773 
2432	 0.320230288126344 
2433	 0.31303841676067 
2434	 0.310030367808278 
2435	 0.306102612156815 
2436	 0.306607161257362 
2437	 0.312530688732125 
2438	 0.310347078848849 
2439	 0.306964992251654 
2440	 0.304602403755718 
2441	 0.294801573352741 
2442	 0.29337469942258 
2443	 0.300688806612762 
2444	 0.301508960677049 
2445	 0.303520824719474 
2446	 0.30468189254812 
2447	 0.300588269121708 
2448	 0.297549610980077 
2449	 0.293320160303762 
2450	 0.291819206564718 
2451	 0.295209157032586 
2452	 0.294255957490663 
2453	 0.294276262364685 
2454	 0.28943748974903 
2455	 0.276257529973095 
2456	 0.272485603084095 
2457	 0.271077097195061 
2458	 0.270102477151686 
2459	 0.272852138590256 
2460	 0.27382191429592 
2461	 0.272553813398869 
2462	 0.275451259232714 
2463	 0.286277616631944 
2464	 0.290719309311574 
2465	 0.293531022095221 
2466	 0.294604173156461 
2467	 0.289987747801946 
2468	 0.284351667577499 
2469	 0.276582400715509 
2470	 0.270930987917041 
2471	 0.262244970548392 
2472	 0.258457564455242 
2473	 0.255569736830784 
2474	 0.258410202493286 
2475	 0.270332089359914 
2476	 0.27720589877851 
2477	 0.293831184567199 
2478	 0.30227410240994 
2479	 0.303064948018208 
2480	 0.297002432226565 
2481	 0.276063361360797 
2482	 0.270759352658982 
2483	 0.256758798939596 
2484	 0.26075295614985 
2485	 0.294919251407345 
2486	 0.308903906689514 
2487	 0.357809330587503 
2488	 0.344600215059488 
2489	 0.310838087107568 
2490	 0.318189744469059 
2491	 0.256028228139816 
2492	 0.195587897297039 
2493	 0.202637101051353 
2494	 0.223091416918292 
2495	 0.251463289941631 
2496	 0.295876182491285 
2497	 0.32818020165001 
2498	 0.277745056565112 
2499	 0.232395047929222 
2500	 0.206250350087164 
