Wavelength	ref00037.asd
350	 2.79529803551298E-02 
351	 2.90822914541562E-02 
352	 2.92113389523664E-02 
353	 2.87273236250424E-02 
354	 2.82913696791527E-02 
355	 2.83829860808346E-02 
356	 2.89016183219145E-02 
357	 2.87308830007215E-02 
358	 2.85167816517235E-02 
359	 2.87491572497355E-02 
360	 2.94986768043998E-02 
361	 2.94288683825045E-02 
362	 2.91107125310577E-02 
363	 2.89624841658874E-02 
364	 2.91834732177392E-02 
365	 2.95171314159303E-02 
366	 2.96900459807032E-02 
367	 2.96466481496823E-02 
368	 2.96147723282356E-02 
369	 2.97043345819714E-02 
370	 2.96630108553512E-02 
371	 2.94735162680178E-02 
372	 3.02071222566712E-02 
373	 3.02970171045133E-02 
374	 2.99634908748999E-02 
375	 3.02222838744953E-02 
376	 3.04054693301314E-02 
377	 3.05595188486397E-02 
378	 3.06932952547596E-02 
379	 3.07052287572194E-02 
380	 3.10149917021482E-02 
381	 3.12402641059026E-02 
382	 3.11843742496118E-02 
383	 3.16726028757622E-02 
384	 3.17833027691103E-02 
385	 3.17615773906068E-02 
386	 3.22674355829249E-02 
387	 3.29675985345197E-02 
388	 3.37509110902484E-02 
389	 3.43485879841811E-02 
390	 3.43679874101635E-02 
391	 3.42889941962682E-02 
392	 3.46068846385233E-02 
393	 3.53802244186637E-02 
394	 0.035737428473344 
395	 0.036280705857349 
396	 3.66915920906247E-02 
397	 3.66507284709853E-02 
398	 0.037502070822402 
399	 3.78762147683575E-02 
400	 3.78360240370308E-02 
401	 3.86263924162155E-02 
402	 0.039421695296138 
403	 3.97228751053596E-02 
404	 3.96140504335028E-02 
405	 4.02289325864754E-02 
406	 4.08105211512329E-02 
407	 4.12696345748592E-02 
408	 4.17390012438142E-02 
409	 4.23348554909624E-02 
410	 4.27438650958402E-02 
411	 4.31356594706935E-02 
412	 4.40240939146105E-02 
413	 4.42642539875635E-02 
414	 4.44373545818784E-02 
415	 4.50062459073858E-02 
416	 4.56409161954274E-02 
417	 4.59707015038552E-02 
418	 4.61093931772207E-02 
419	 4.63377081193391E-02 
420	 4.67063369245574E-02 
421	 4.71444809685167E-02 
422	 4.75392077392384E-02 
423	 4.77763416152465E-02 
424	 4.81902351643917E-02 
425	 4.84588488671613E-02 
426	 4.84644474174429E-02 
427	 0.048753422036539 
428	 4.91912373502083E-02 
429	 4.94837369294779E-02 
430	 4.94393462362006E-02 
431	 4.97006270860803E-02 
432	 5.00532275702169E-02 
433	 5.03425282757568E-02 
434	 5.05134375953335E-02 
435	 5.04755385131495E-02 
436	 5.05371904287915E-02 
437	 0.050825966927955 
438	 5.10010693780297E-02 
439	 5.10271413152855E-02 
440	 5.10885304955847E-02 
441	 5.13793862776357E-02 
442	 5.16594253496605E-02 
443	 5.18940811227188E-02 
444	 0.052072116547001 
445	 5.21982468393291E-02 
446	 0.052374207828552 
447	 5.26125080916929E-02 
448	 5.28875391729772E-02 
449	 5.31362187262693E-02 
450	 5.33556169117361E-02 
451	 5.35333437754092E-02 
452	 5.36849204400545E-02 
453	 5.40173675513616E-02 
454	 5.42919391545545E-02 
455	 5.44348970617752E-02 
456	 5.46046096407593E-02 
457	 5.47703510066291E-02 
458	 5.48893879047156E-02 
459	 5.49586307691518E-02 
460	 5.51040840424109E-02 
461	 5.52582550342728E-02 
462	 0.055370278042466 
463	 5.54087113059447E-02 
464	 5.54119011208845E-02 
465	 5.55108189239448E-02 
466	 5.56919541081859E-02 
467	 5.57156136276267E-02 
468	 5.58461101201729E-02 
469	 5.59837529387004E-02 
470	 5.60035507127841E-02 
471	 5.60898560491674E-02 
472	 5.61525318460039E-02 
473	 0.05623953787872 
474	 5.64696755532961E-02 
475	 5.65709087272462E-02 
476	 5.66954904145467E-02 
477	 5.69220261233403E-02 
478	 5.70778336902175E-02 
479	 5.72576812165913E-02 
480	 0.057409762517587 
481	 5.74753578289211E-02 
482	 5.75988293264297E-02 
483	 0.057736730208101 
484	 5.79323953256174E-02 
485	 5.83023203526352E-02 
486	 5.85049940206553E-02 
487	 5.87250115284828E-02 
488	 5.90930555005558E-02 
489	 5.93193086456625E-02 
490	 5.95471434405056E-02 
491	 0.059805688061309 
492	 6.00864221295901E-02 
493	 6.04333769408004E-02 
494	 0.060774818382842 
495	 6.11395095249438E-02 
496	 6.16858376673642E-02 
497	 6.22618411161249E-02 
498	 6.29328483585597E-02 
499	 0.063710182605047 
500	 6.42353662886468E-02 
501	 6.49125341570853E-02 
502	 6.58222325279571E-02 
503	 6.68170856362097E-02 
504	 6.77552767176045E-02 
505	 6.87001970677871E-02 
506	 0.069732714607388 
507	 7.09051651100427E-02 
508	 7.23455698710389E-02 
509	 7.38509946670908E-02 
510	 7.52295368585518E-02 
511	 7.68205620087172E-02 
512	 7.86437730438935E-02 
513	 8.05960569365478E-02 
514	 8.25020729562617E-02 
515	 8.46508763273245E-02 
516	 0.08690359463515 
517	 8.91739046225922E-02 
518	 9.17191006656158E-02 
519	 9.44230226761363E-02 
520	 9.70811811038061E-02 
521	 0.099556842222054 
522	 0.102301949327304 
523	 0.104939985810664 
524	 0.107391075431409 
525	 0.10993219610369 
526	 0.112446611418913 
527	 0.114970744913886 
528	 0.117479815727643 
529	 0.119659041510282 
530	 0.121691860304821 
531	 0.123623556217688 
532	 0.12542759792111 
533	 0.127096438620558 
534	 0.128728394973545 
535	 0.130274045373488 
536	 0.131430525809647 
537	 0.132596538139075 
538	 0.133687495523442 
539	 0.134560966732505 
540	 0.135543375850412 
541	 0.136463626127951 
542	 0.137251626660774 
543	 0.137948480593966 
544	 0.138701587127336 
545	 0.139435804188006 
546	 0.140081025357723 
547	 0.14064489361636 
548	 0.141349828654962 
549	 0.142033708499118 
550	 0.142430831193883 
551	 0.142760531487246 
552	 0.143116812974192 
553	 0.143410559674018 
554	 0.143352572337152 
555	 0.143225372198426 
556	 0.143072528719241 
557	 0.142818966933776 
558	 0.142185905949059 
559	 0.141546413176604 
560	 0.140868987281436 
561	 0.13989569014168 
562	 0.139047987177568 
563	 0.138051269962923 
564	 0.136781779710221 
565	 0.135550616148364 
566	 0.134177692082869 
567	 0.132694629370619 
568	 0.131190482807757 
569	 0.129687755586232 
570	 0.128110465850796 
571	 0.126511720664961 
572	 0.125056005973477 
573	 0.123697138318083 
574	 0.122385619132802 
575	 0.121103624498485 
576	 0.119955830897458 
577	 0.118848664879615 
578	 0.117814020548979 
579	 0.116900497220959 
580	 0.11586044255449 
581	 0.114882451549647 
582	 0.114057500577589 
583	 0.113294313524062 
584	 0.112595959960193 
585	 0.111998187668294 
586	 0.111494571304109 
587	 0.110865495540991 
588	 0.110347048914551 
589	 0.109880876509944 
590	 0.109234755870943 
591	 0.108774728859418 
592	 0.108471255689496 
593	 0.10821824838054 
594	 0.107911020062777 
595	 0.10762037716567 
596	 0.107338530523866 
597	 0.10705023188192 
598	 0.106837961901931 
599	 0.106659939304554 
600	 0.106459009062839 
601	 0.10617441719125 
602	 0.105881813459178 
603	 0.105525827245932 
604	 0.105080949918275 
605	 0.104668915758395 
606	 0.104165890534021 
607	 0.103547498621595 
608	 0.102858549976422 
609	 0.102231626962109 
610	 0.101542620991763 
611	 0.100777972957392 
612	 0.100106440964198 
613	 0.099374723799344 
614	 9.86134213199472E-02 
615	 9.78909613854834E-02 
616	 9.72138572394073E-02 
617	 9.65419115234243E-02 
618	 9.59073143597596E-02 
619	 9.53713946771886E-02 
620	 0.094834608707128 
621	 9.44364201130189E-02 
622	 9.42028262753344E-02 
623	 9.38750818522354E-02 
624	 9.36555876692031E-02 
625	 9.35326445261307E-02 
626	 9.34308476552414E-02 
627	 9.33694678071525E-02 
628	 9.33043936710171E-02 
629	 9.32645353361628E-02 
630	 9.33384918906234E-02 
631	 0.093286831969798 
632	 9.31543326468389E-02 
633	 9.30053711254374E-02 
634	 9.28024954257255E-02 
635	 9.24963046395888E-02 
636	 9.21238905042088E-02 
637	 9.17307341837957E-02 
638	 9.11033583167776E-02 
639	 9.03894096036436E-02 
640	 8.96696255562068E-02 
641	 8.89214330383278E-02 
642	 8.80439851301991E-02 
643	 8.71517848016218E-02 
644	 8.63518879563164E-02 
645	 8.55830709208922E-02 
646	 8.47685198610653E-02 
647	 8.39598995262113E-02 
648	 8.32857556622659E-02 
649	 0.082765935619925 
650	 8.22419064772101E-02 
651	 8.16947388610894E-02 
652	 8.13323460727634E-02 
653	 8.10708450242164E-02 
654	 8.07427800683896E-02 
655	 8.02358600578962E-02 
656	 7.98758071554079E-02 
657	 7.93964790757939E-02 
658	 7.88050685680157E-02 
659	 7.82258217605323E-02 
660	 0.077414638349917 
661	 7.66473886662041E-02 
662	 7.60775794643332E-02 
663	 7.54452231103849E-02 
664	 7.48245750425966E-02 
665	 7.42574844597968E-02 
666	 7.37765006682568E-02 
667	 7.34334381704909E-02 
668	 0.073039647807721 
669	 7.26933174863591E-02 
670	 7.27204941366768E-02 
671	 7.26477640769146E-02 
672	 7.26577631588869E-02 
673	 7.28612332800418E-02 
674	 7.29073525103915E-02 
675	 0.073105777790542 
676	 7.34381021129891E-02 
677	 7.37833232271362E-02 
678	 7.42186810068123E-02 
679	 7.47698904627821E-02 
680	 7.54337170634718E-02 
681	 7.61787969048497E-02 
682	 7.70260375406418E-02 
683	 7.80231624879115E-02 
684	 7.92169013128683E-02 
685	 8.06269552421983E-02 
686	 8.22944211459334E-02 
687	 8.44700546395316E-02 
688	 8.71686267759399E-02 
689	 8.95637377718931E-02 
690	 9.22063638446568E-02 
691	 9.54679226324005E-02 
692	 0.099191211201638 
693	 0.103619687102321 
694	 0.108622569697733 
695	 0.1140140298092 
696	 0.119813012396225 
697	 0.126113996758121 
698	 0.132820789809665 
699	 0.139747061975724 
700	 0.147018698646888 
701	 0.154695775901321 
702	 0.162570718400825 
703	 0.170125830372366 
704	 0.177768719772818 
705	 0.185396204876841 
706	 0.192956510316114 
707	 0.200552390686571 
708	 0.2083895657127 
709	 0.21630412413576 
710	 0.223991779753804 
711	 0.231894475261268 
712	 0.240039869845293 
713	 0.248322204390403 
714	 0.256542183213495 
715	 0.264737640562483 
716	 0.273166090953163 
717	 0.282201303989753 
718	 0.291531248816534 
719	 0.300765092994807 
720	 0.30962563752641 
721	 0.318153483622112 
722	 0.326336488026638 
723	 0.334765247529267 
724	 0.34382508278626 
725	 0.352558116625703 
726	 0.360953934796068 
727	 0.369006619053984 
728	 0.376946132590829 
729	 0.384782899692576 
730	 0.392323256330106 
731	 0.39951258330911 
732	 0.40636639218717 
733	 0.412607805196054 
734	 0.418554899835335 
735	 0.42448635338688 
736	 0.430426585071528 
737	 0.435885161243663 
738	 0.440864283565762 
739	 0.445556725141343 
740	 0.450113223098978 
741	 0.454303466357889 
742	 0.458181465631525 
743	 0.46182825982295 
744	 0.465127735506221 
745	 0.468234299067937 
746	 0.471115046659089 
747	 0.473608611533702 
748	 0.475924172807124 
749	 0.478150935595838 
750	 0.480268929574776 
751	 0.482109434810001 
752	 0.483689324163138 
753	 0.48511711794516 
754	 0.486494347234606 
755	 0.48778838160926 
756	 0.488945578065374 
757	 0.490081048747811 
758	 0.491431346367243 
759	 0.493136689915935 
760	 0.4954864468474 
761	 0.498061123911092 
762	 0.498603630612302 
763	 0.498253887006222 
764	 0.497859807098556 
765	 0.497639577698038 
766	 0.497130316548013 
767	 0.496924405739569 
768	 0.496929224064188 
769	 0.49694472510759 
770	 0.497166431012729 
771	 0.497515907920218 
772	 0.497848466815047 
773	 0.498007604257079 
774	 0.49829813073901 
775	 0.498563178309761 
776	 0.498725740465346 
777	 0.498964065459534 
778	 0.499230265976268 
779	 0.499477879702379 
780	 0.499699071876479 
781	 0.500042083731713 
782	 0.500308762876054 
783	 0.500530414052157 
784	 0.500843378342077 
785	 0.501158009090513 
786	 0.501460118492607 
787	 0.501700511902611 
788	 0.50180708300231 
789	 0.502154740610703 
790	 0.50253591987109 
791	 0.502764029256361 
792	 0.502928844236669 
793	 0.503251797508005 
794	 0.503657854705302 
795	 0.50399356508182 
796	 0.504258110468745 
797	 0.504554470585086 
798	 0.504864983135607 
799	 0.505104091186532 
800	 0.505283736250444 
801	 0.505437514041306 
802	 0.505663322697629 
803	 0.506103854546685 
804	 0.506411363635903 
805	 0.506669680967132 
806	 0.506960278100469 
807	 0.50717499125693 
808	 0.507435618957059 
809	 0.507717461292701 
810	 0.507985922449727 
811	 0.508387224860455 
812	 0.508640198334835 
813	 0.508847706590322 
814	 0.509293156027848 
815	 0.509726463565986 
816	 0.510051803667557 
817	 0.510276895047247 
818	 0.510512778568993 
819	 0.51077271426486 
820	 0.511030028243032 
821	 0.511243550347343 
822	 0.511357024912165 
823	 0.511652135834524 
824	 0.512075729999948 
825	 0.512474102635765 
826	 0.512797712179775 
827	 0.512847163882381 
828	 0.512853550715573 
829	 0.5131479769591 
830	 0.513521480213039 
831	 0.513775303758121 
832	 0.513839373596349 
833	 0.513806164112391 
834	 0.514212118864616 
835	 0.514498415438404 
836	 0.514566592439711 
837	 0.514979701498155 
838	 0.515248206773423 
839	 0.515444385972764 
840	 0.515694021889688 
841	 0.516016583329021 
842	 0.51626099075966 
843	 0.516425779225261 
844	 0.516572184861333 
845	 0.516788947840252 
846	 0.517061091972832 
847	 0.517278104215917 
848	 0.517380774337862 
849	 0.517799895502917 
850	 0.518175049619434 
851	 0.518387823946169 
852	 0.518531104537752 
853	 0.518510479159405 
854	 0.518462561974863 
855	 0.518725945271753 
856	 0.519690524618142 
857	 0.519986786758622 
858	 0.520204813126959 
859	 0.520598073465948 
860	 0.520366968513277 
861	 0.520748341703088 
862	 0.521183945769518 
863	 0.521112839387081 
864	 0.521119036526166 
865	 0.521587699657636 
866	 0.521928582319595 
867	 0.52165237111673 
868	 0.522113992536383 
869	 0.522545046139871 
870	 0.522734083662689 
871	 0.522850675001779 
872	 0.523396213043738 
873	 0.523730607014762 
874	 0.523888431509079 
875	 0.524335992249439 
876	 0.524597240138837 
877	 0.524701005194808 
878	 0.524888375471037 
879	 0.525465429511272 
880	 0.525643638413329 
881	 0.525916191675362 
882	 0.526292915337484 
883	 0.52595325912957 
884	 0.526076599600447 
885	 0.526601207385199 
886	 0.527176518053731 
887	 0.527443615585068 
888	 0.52766443467154 
889	 0.527709661942288 
890	 0.52764395489722 
891	 0.528263975710164 
892	 0.528551628526381 
893	 0.528823683496236 
894	 0.529463683614405 
895	 0.529402170461127 
896	 0.529808883126271 
897	 0.530248146622035 
898	 0.529982105196575 
899	 0.530413612301765 
900	 0.530704952018297 
901	 0.531005263821377 
902	 0.531742944039371 
903	 0.531756897478909 
904	 0.532172514738547 
905	 0.532805428276854 
906	 0.532730422428342 
907	 0.532337056894528 
908	 0.532433288895294 
909	 0.533060621508692 
910	 0.533551761482967 
911	 0.533649913868746 
912	 0.533730107274979 
913	 0.534133816642446 
914	 0.534959561558336 
915	 0.535374091330514 
916	 0.535353746966987 
917	 0.53520473248329 
918	 0.535382838177371 
919	 0.535398630192435 
920	 0.535686932541237 
921	 0.536106504249209 
922	 0.535755146265213 
923	 0.536164157863479 
924	 0.536068725226879 
925	 0.535397686591523 
926	 0.536527026123702 
927	 0.536600870612971 
928	 0.536047992756495 
929	 0.535605506386463 
930	 0.53512864739238 
931	 0.534170489748222 
932	 0.533581201390551 
933	 0.533856966019708 
934	 0.533775378595227 
935	 0.533671125977288 
936	 0.533970191811393 
937	 0.534476874654966 
938	 0.533900048400764 
939	 0.534549635470685 
940	 0.534316830770532 
941	 0.5326753500995 
942	 0.533730747626441 
943	 0.533361671594907 
944	 0.532421086736052 
945	 0.532001303561381 
946	 0.530940985803968 
947	 0.530878015872195 
948	 0.531109189251563 
949	 0.53092059635323 
950	 0.530989175917927 
951	 0.529065715845173 
952	 0.527756226072871 
953	 0.52862987394304 
954	 0.528699176153377 
955	 0.528237785457476 
956	 0.52836404191162 
957	 0.529106868742311 
958	 0.528046237901454 
959	 0.524896059753614 
960	 0.524407156306616 
961	 0.527498691416337 
962	 0.526572262693741 
963	 0.525942610611248 
964	 0.525922422323871 
965	 0.525924316817403 
966	 0.525378613918033 
967	 0.525898040894627 
968	 0.52635332086409 
969	 0.52595066349073 
970	 0.525374275123989 
971	 0.525685536074767 
972	 0.526548246459433 
973	 0.527146561535164 
974	 0.526594743709711 
975	 0.525638541288042 
976	 0.525738685553169 
977	 0.526990550011347 
978	 0.527655160500661 
979	 0.527217903103108 
980	 0.527262529582956 
981	 0.528076359961435 
982	 0.52819034810128 
983	 0.527063380951059 
984	 0.526631667607203 
985	 0.526985477438906 
986	 0.526703138234304 
987	 0.529262589579533 
988	 0.529629970728091 
989	 0.528130433916214 
990	 0.529123980603502 
991	 0.53005295487372 
992	 0.530556533520199 
993	 0.530685592627565 
994	 0.530516027084716 
995	 0.528753014909512 
996	 0.530347408309762 
997	 0.532652495973518 
998	 0.531244266136084 
999	 0.53178299075172 
1000	 0.531818333600695 
1001	 0.533803800671448 
1002	 0.534589019054042 
1003	 0.535190321017937 
1004	 0.53585791888689 
1005	 0.536427358189816 
1006	 0.536879990521798 
1007	 0.537284498798451 
1008	 0.537598190011341 
1009	 0.537976871020546 
1010	 0.538309633554473 
1011	 0.538660864265025 
1012	 0.539139520015339 
1013	 0.539714180065512 
1014	 0.540180335080844 
1015	 0.540682285103879 
1016	 0.541099942018881 
1017	 0.541508211562695 
1018	 0.541958880253272 
1019	 0.542403795235877 
1020	 0.542864572791733 
1021	 0.543397307167358 
1022	 0.543851972906634 
1023	 0.54427113396323 
1024	 0.544765443632957 
1025	 0.545070328680485 
1026	 0.545394790575455 
1027	 0.545932157212874 
1028	 0.546255259821761 
1029	 0.546737965058729 
1030	 0.547498101156763 
1031	 0.547929513998689 
1032	 0.548421548598543 
1033	 0.548859475802331 
1034	 0.549123413623676 
1035	 0.54951397812155 
1036	 0.549983766717906 
1037	 0.550386233699376 
1038	 0.550838600627407 
1039	 0.551263650380715 
1040	 0.55153625780097 
1041	 0.551905150354981 
1042	 0.552310596816007 
1043	 0.552718087677093 
1044	 0.553114399928507 
1045	 0.553468711792578 
1046	 0.553892860995245 
1047	 0.554203205695456 
1048	 0.554287135585868 
1049	 0.554503111710022 
1050	 0.554762597874785 
1051	 0.555013355544535 
1052	 0.555144867272572 
1053	 0.555431407074198 
1054	 0.555687445797375 
1055	 0.555811451867258 
1056	 0.556038904481082 
1057	 0.556288455471881 
1058	 0.556377312865191 
1059	 0.556291917470378 
1060	 0.556353680725941 
1061	 0.556531288850297 
1062	 0.556647749169329 
1063	 0.556922419249897 
1064	 0.557116153810224 
1065	 0.557160166530542 
1066	 0.557038908013062 
1067	 0.557064415425152 
1068	 0.557054027426307 
1069	 0.557033092491798 
1070	 0.557199299407982 
1071	 0.557250612785713 
1072	 0.55731486113277 
1073	 0.557473636630233 
1074	 0.557406672489618 
1075	 0.557375999591918 
1076	 0.557509006911264 
1077	 0.557467463811695 
1078	 0.557447261895409 
1079	 0.557540431079637 
1080	 0.557458610914169 
1081	 0.557463599903462 
1082	 0.557475257031304 
1083	 0.557585878459046 
1084	 0.557563491396447 
1085	 0.557554501341301 
1086	 0.557439038359922 
1087	 0.557291470017732 
1088	 0.557321874376666 
1089	 0.557295531956419 
1090	 0.557325394916634 
1091	 0.557401965234923 
1092	 0.557338606700834 
1093	 0.5573305613735 
1094	 0.557344457358754 
1095	 0.557326031595825 
1096	 0.557246075148964 
1097	 0.557075795733098 
1098	 0.55702753630153 
1099	 0.556990090721029 
1100	 0.556922552375493 
1101	 0.557001859106826 
1102	 0.557090063530922 
1103	 0.557027812826975 
1104	 0.556981226412693 
1105	 0.556994470677893 
1106	 0.557027399847829 
1107	 0.55702095395913 
1108	 0.556984329209104 
1109	 0.556892945573791 
1110	 0.556635291484607 
1111	 0.556497841016883 
1112	 0.556494671330303 
1113	 0.556419562875972 
1114	 0.55628925323033 
1115	 0.556184332183046 
1116	 0.556159337988553 
1117	 0.555837289505866 
1118	 0.555498758248624 
1119	 0.555550911775573 
1120	 0.555589454845671 
1121	 0.555648148913764 
1122	 0.555906749267517 
1123	 0.555997216777649 
1124	 0.555518749574807 
1125	 0.554884018657802 
1126	 0.55432955086786 
1127	 0.553473118138397 
1128	 0.552799898152836 
1129	 0.552581249597471 
1130	 0.55185711872795 
1131	 0.550859090638446 
1132	 0.549899761094915 
1133	 0.548880290259215 
1134	 0.547731606459156 
1135	 0.546481202159207 
1136	 0.545286193315887 
1137	 0.543955723410871 
1138	 0.542555243763246 
1139	 0.541170983409106 
1140	 0.539735975774346 
1141	 0.53841834154696 
1142	 0.537050451581118 
1143	 0.535606690357684 
1144	 0.534148478625841 
1145	 0.532734297572919 
1146	 0.531203290443357 
1147	 0.529729353804247 
1148	 0.528398792833527 
1149	 0.527049683325968 
1150	 0.525658479972294 
1151	 0.524463756918601 
1152	 0.523477984012774 
1153	 0.522420076812721 
1154	 0.521439970737672 
1155	 0.520802686249178 
1156	 0.520176054408147 
1157	 0.519605479419281 
1158	 0.519235829198963 
1159	 0.518869740952159 
1160	 0.518514148575143 
1161	 0.518164354777903 
1162	 0.517936190655528 
1163	 0.517726110281174 
1164	 0.517554768140506 
1165	 0.51750929027994 
1166	 0.517402749300603 
1167	 0.517248384358473 
1168	 0.51718013830501 
1169	 0.517152000536324 
1170	 0.517086726060636 
1171	 0.517144095448201 
1172	 0.517248235940946 
1173	 0.517373615540054 
1174	 0.517501982455233 
1175	 0.517534419453647 
1176	 0.517496015353993 
1177	 0.517546885769245 
1178	 0.517606452298896 
1179	 0.517633246812461 
1180	 0.517714696289475 
1181	 0.517744615227146 
1182	 0.517680502171156 
1183	 0.517679030778808 
1184	 0.517723535481855 
1185	 0.517746729316107 
1186	 0.517753260756953 
1187	 0.51776929444713 
1188	 0.517760489499841 
1189	 0.517811934773309 
1190	 0.517936524114664 
1191	 0.517980352671257 
1192	 0.518007989974011 
1193	 0.518029855217485 
1194	 0.518083204418099 
1195	 0.518107453031433 
1196	 0.518164160727815 
1197	 0.518258561501996 
1198	 0.518388130274331 
1199	 0.518499835785012 
1200	 0.518668331376903 
1201	 0.518946299890255 
1202	 0.519162804349176 
1203	 0.519342917018345 
1204	 0.519566927233384 
1205	 0.51985413842518 
1206	 0.520054906208186 
1207	 0.52018488431597 
1208	 0.520385546442509 
1209	 0.520587111646154 
1210	 0.520730350260458 
1211	 0.520986228647282 
1212	 0.521359849384384 
1213	 0.521693606998914 
1214	 0.522082914232326 
1215	 0.522368327115411 
1216	 0.522628595172892 
1217	 0.52287990099086 
1218	 0.523075065939269 
1219	 0.523267925472226 
1220	 0.52342499082042 
1221	 0.523662905134539 
1222	 0.52389813550018 
1223	 0.524158157137644 
1224	 0.524524166005185 
1225	 0.524827752962485 
1226	 0.525070137808204 
1227	 0.525360462244502 
1228	 0.525647902496821 
1229	 0.525976231211292 
1230	 0.526388704296115 
1231	 0.526758648711569 
1232	 0.527060747200645 
1233	 0.527353456291806 
1234	 0.527617888332371 
1235	 0.527779508733605 
1236	 0.528023974326407 
1237	 0.528314782671348 
1238	 0.52857032315807 
1239	 0.528792198154206 
1240	 0.529085497617375 
1241	 0.529424367750176 
1242	 0.529722964884162 
1243	 0.530047655262192 
1244	 0.530368886913428 
1245	 0.530672002727826 
1246	 0.530962963509643 
1247	 0.531314857600561 
1248	 0.531578817233239 
1249	 0.531709160101753 
1250	 0.531918119017126 
1251	 0.532129203569394 
1252	 0.532341896663597 
1253	 0.532597483387357 
1254	 0.53293416476377 
1255	 0.533208471206992 
1256	 0.533453852132911 
1257	 0.53375060602894 
1258	 0.534118835954878 
1259	 0.534357909647 
1260	 0.534605198640137 
1261	 0.534754242450154 
1262	 0.53465510932863 
1263	 0.534787223439357 
1264	 0.535046059099964 
1265	 0.535203579105903 
1266	 0.535485321884085 
1267	 0.535614143806633 
1268	 0.535502796910086 
1269	 0.535524066992659 
1270	 0.535609689802642 
1271	 0.535620261528105 
1272	 0.535631058073454 
1273	 0.535650570397784 
1274	 0.535610877695915 
1275	 0.535503383288724 
1276	 0.5353692820138 
1277	 0.535233448058003 
1278	 0.535035005911159 
1279	 0.534720408075134 
1280	 0.534500584901991 
1281	 0.534322176006051 
1282	 0.534080045060754 
1283	 0.53388606282151 
1284	 0.533570286178361 
1285	 0.533107415752232 
1286	 0.532742590715525 
1287	 0.532348511265805 
1288	 0.531990673277471 
1289	 0.531742449807609 
1290	 0.53139574328554 
1291	 0.531030949957712 
1292	 0.530604470066759 
1293	 0.530115913351096 
1294	 0.52958914874549 
1295	 0.52906956827325 
1296	 0.528398050082389 
1297	 0.527698802735567 
1298	 0.526903723212187 
1299	 0.526167503241022 
1300	 0.525361499039449 
1301	 0.524630515193565 
1302	 0.523985463792417 
1303	 0.523235974198001 
1304	 0.52245825554918 
1305	 0.521652665839919 
1306	 0.520794340489769 
1307	 0.519924426926693 
1308	 0.519059225831955 
1309	 0.518120784325135 
1310	 0.517118102212911 
1311	 0.516102753207397 
1312	 0.515013020510771 
1313	 0.513952258704011 
1314	 0.512974742347148 
1315	 0.511847984671738 
1316	 0.510718252604617 
1317	 0.509444384206244 
1318	 0.507829416902525 
1319	 0.506431502153528 
1320	 0.505005944286654 
1321	 0.503672880987607 
1322	 0.502434688690215 
1323	 0.501440413069625 
1324	 0.500146364917968 
1325	 0.49876062271821 
1326	 0.497340550841945 
1327	 0.495723951434059 
1328	 0.494203530953824 
1329	 0.492768721196116 
1330	 0.491139334923804 
1331	 0.489382984814022 
1332	 0.487683080852014 
1333	 0.485844130740315 
1334	 0.484188648186949 
1335	 0.482677969337212 
1336	 0.481166712207867 
1337	 0.479641486675413 
1338	 0.478245411895361 
1339	 0.476784457127201 
1340	 0.475529280424382 
1341	 0.474425902074593 
1342	 0.473332172105584 
1343	 0.47232391583541 
1344	 0.471288501411666 
1345	 0.470285383879882 
1346	 0.468989902685341 
1347	 0.467840439451947 
1348	 0.466512317768924 
1349	 0.465429048771352 
1350	 0.464669168344871 
1351	 0.463729317654278 
1352	 0.463491790459877 
1353	 0.462802527783406 
1354	 0.462128927083423 
1355	 0.461204454404998 
1356	 0.460613804283561 
1357	 0.459952269570993 
1358	 0.460726853432352 
1359	 0.460735920229921 
1360	 0.462835333978926 
1361	 0.463053411856949 
1362	 0.458867471107311 
1363	 0.451711260317384 
1364	 0.438034141179285 
1365	 0.43255706383959 
1366	 0.437638553137652 
1367	 0.435587159918454 
1368	 0.44497241070285 
1369	 0.439077231090927 
1370	 0.417307554808418 
1371	 0.411943850536145 
1372	 0.411143731655995 
1373	 0.408112398227627 
1374	 0.404402332335864 
1375	 0.409956151204502 
1376	 0.412942793297421 
1377	 0.410986372296123 
1378	 0.409662395990181 
1379	 0.41350276342874 
1380	 0.405458396520167 
1381	 0.387138941969232 
1382	 0.377616573589862 
1383	 0.368849604204302 
1384	 0.358367489709142 
1385	 0.352202035684114 
1386	 0.343244795707951 
1387	 0.330417731878427 
1388	 0.323533191016329 
1389	 0.320950485823778 
1390	 0.31579018155607 
1391	 0.310464008933351 
1392	 0.305910587403341 
1393	 0.301724634796013 
1394	 0.2959351291584 
1395	 0.291654464660944 
1396	 0.284552795148833 
1397	 0.273413515317894 
1398	 0.26590503746068 
1399	 0.257937758119991 
1400	 0.251778785212873 
1401	 0.249300638041566 
1402	 0.244706993520528 
1403	 0.240227236988125 
1404	 0.23567481027815 
1405	 0.231341202910745 
1406	 0.225934043002171 
1407	 0.220959984856174 
1408	 0.216976700470684 
1409	 0.213730385706565 
1410	 0.211219747649236 
1411	 0.208864207162026 
1412	 0.20727099089509 
1413	 0.205498108867641 
1414	 0.203884017390574 
1415	 0.201861593669913 
1416	 0.19984155825944 
1417	 0.198233759082578 
1418	 0.196383651130541 
1419	 0.194961044248497 
1420	 0.194046313581272 
1421	 0.192908590546504 
1422	 0.191637439853395 
1423	 0.190548075858549 
1424	 0.189483144149541 
1425	 0.188607280199983 
1426	 0.187675886139289 
1427	 0.187069526327934 
1428	 0.186827240355176 
1429	 0.186294641643595 
1430	 0.185796484784122 
1431	 0.185183548845973 
1432	 0.184194140884414 
1433	 0.183594873794198 
1434	 0.183237082750516 
1435	 0.182777515428848 
1436	 0.182426115841482 
1437	 0.18205259818037 
1438	 0.181568369402082 
1439	 0.181199894108162 
1440	 0.180984342376781 
1441	 0.180737071768835 
1442	 0.180477396635935 
1443	 0.18020328387404 
1444	 0.180255352202384 
1445	 0.180182262536522 
1446	 0.180234190595964 
1447	 0.180498660187032 
1448	 0.180546466199724 
1449	 0.180511886424671 
1450	 0.180500316161361 
1451	 0.180454964093919 
1452	 0.180449898493952 
1453	 0.180421523754496 
1454	 0.180493398904223 
1455	 0.180558627421962 
1456	 0.180739652419241 
1457	 0.181059547651953 
1458	 0.181290793144495 
1459	 0.181558228507657 
1460	 0.181853219886336 
1461	 0.182045472857749 
1462	 0.18248782438898 
1463	 0.183146607346996 
1464	 0.18377427667413 
1465	 0.184530917850865 
1466	 0.185378060853553 
1467	 0.186247021336614 
1468	 0.187240543131786 
1469	 0.18838880995495 
1470	 0.189525383921278 
1471	 0.190712081338621 
1472	 0.191781858663395 
1473	 0.192654622865793 
1474	 0.193727989013964 
1475	 0.194736983586912 
1476	 0.195818547124875 
1477	 0.1970421175072 
1478	 0.198252762658254 
1479	 0.199340405094754 
1480	 0.200597611329619 
1481	 0.202018557044069 
1482	 0.203338060999342 
1483	 0.20457026581182 
1484	 0.205961550888183 
1485	 0.207371520208605 
1486	 0.208786349114667 
1487	 0.210301024610794 
1488	 0.211782534648206 
1489	 0.213160048016314 
1490	 0.214453830649184 
1491	 0.215902857124747 
1492	 0.217403101757671 
1493	 0.218764142513234 
1494	 0.220136156115867 
1495	 0.221544849108663 
1496	 0.222908080364473 
1497	 0.224303597919145 
1498	 0.225834020634488 
1499	 0.227246682607259 
1500	 0.228583586128485 
1501	 0.230005757595428 
1502	 0.231440351931867 
1503	 0.232983632604799 
1504	 0.2346013935527 
1505	 0.236189268011865 
1506	 0.237846312784345 
1507	 0.239457400823331 
1508	 0.241025751874096 
1509	 0.24260392955291 
1510	 0.244197123445889 
1511	 0.245777447817382 
1512	 0.247352964726346 
1513	 0.248916756962851 
1514	 0.250463391769294 
1515	 0.252065541665433 
1516	 0.253732180970429 
1517	 0.255307463663483 
1518	 0.256909100012046 
1519	 0.258470240862945 
1520	 0.259904021077263 
1521	 0.261456301250869 
1522	 0.263092082110757 
1523	 0.264681150625955 
1524	 0.266283169175877 
1525	 0.26789342215897 
1526	 0.269541113254374 
1527	 0.271108938728058 
1528	 0.272707876418149 
1529	 0.274203250813563 
1530	 0.275490136135826 
1531	 0.276961121254004 
1532	 0.278480729144114 
1533	 0.280010800307932 
1534	 0.281727904694916 
1535	 0.283274807662427 
1536	 0.28467381789011 
1537	 0.286167268558031 
1538	 0.287633810132702 
1539	 0.289124712556284 
1540	 0.290734034676052 
1541	 0.29223157868588 
1542	 0.29367732690039 
1543	 0.295082132060574 
1544	 0.29637241797895 
1545	 0.297744476631039 
1546	 0.299154742491155 
1547	 0.300521728866537 
1548	 0.301893052997718 
1549	 0.303283204185846 
1550	 0.30462456040698 
1551	 0.306012246155667 
1552	 0.307484616454336 
1553	 0.308927072659875 
1554	 0.31044802839105 
1555	 0.311831044084746 
1556	 0.313150119846625 
1557	 0.314407971942776 
1558	 0.315407784767562 
1559	 0.316591298675289 
1560	 0.317874490837281 
1561	 0.319143918435819 
1562	 0.320619116504377 
1563	 0.321933747529399 
1564	 0.323100833233715 
1565	 0.324304254045367 
1566	 0.325475824782539 
1567	 0.32655426707216 
1568	 0.327714947067565 
1569	 0.328902912279131 
1570	 0.330121342141306 
1571	 0.331384125645242 
1572	 0.332553789048909 
1573	 0.333711207610204 
1574	 0.334862236957622 
1575	 0.33591804807251 
1576	 0.337059437564 
1577	 0.338277599752718 
1578	 0.33934538557732 
1579	 0.340304680999737 
1580	 0.341411040014679 
1581	 0.342526489133655 
1582	 0.343571349323359 
1583	 0.344695357773146 
1584	 0.3457101891241 
1585	 0.346562808656652 
1586	 0.347554786109924 
1587	 0.348639784587058 
1588	 0.349614721252023 
1589	 0.350534960768877 
1590	 0.351549347004317 
1591	 0.352587149783285 
1592	 0.353555865401044 
1593	 0.354602254196055 
1594	 0.355493620181325 
1595	 0.356213485158867 
1596	 0.3570781083542 
1597	 0.357927446355755 
1598	 0.358883605884652 
1599	 0.36001112313961 
1600	 0.360879433513688 
1601	 0.361679792779261 
1602	 0.362506873680002 
1603	 0.363164602390809 
1604	 0.363975782452086 
1605	 0.364958077480601 
1606	 0.365724228959433 
1607	 0.366351645890859 
1608	 0.367136561572232 
1609	 0.367927103622642 
1610	 0.36867716434945 
1611	 0.369510032568376 
1612	 0.370244924752402 
1613	 0.37084964641318 
1614	 0.371526309069629 
1615	 0.372229826800431 
1616	 0.372942816978985 
1617	 0.373652960832205 
1618	 0.374351373838905 
1619	 0.375109982603513 
1620	 0.375756721276432 
1621	 0.37630097861168 
1622	 0.376938383980958 
1623	 0.377628629995747 
1624	 0.378139430787155 
1625	 0.37856681741877 
1626	 0.379111389098732 
1627	 0.379566417157061 
1628	 0.380115762163298 
1629	 0.380876121064024 
1630	 0.381430984984849 
1631	 0.381839006705407 
1632	 0.38236249165604 
1633	 0.382928950492978 
1634	 0.383400011468145 
1635	 0.383880998287046 
1636	 0.384288831138095 
1637	 0.384516511857926 
1638	 0.385013937101028 
1639	 0.385674943010533 
1640	 0.386129055419511 
1641	 0.386644688725203 
1642	 0.387058930890731 
1643	 0.387248208991396 
1644	 0.387605625041453 
1645	 0.388049924326447 
1646	 0.388435657801581 
1647	 0.388834170839262 
1648	 0.389131619424317 
1649	 0.389370416560894 
1650	 0.38970019170933 
1651	 0.390007279385645 
1652	 0.390275268658376 
1653	 0.39057255979556 
1654	 0.390893677716756 
1655	 0.391196346050822 
1656	 0.391384947631527 
1657	 0.391605423585987 
1658	 0.391804328050036 
1659	 0.391847822829811 
1660	 0.392086890389147 
1661	 0.392313395001052 
1662	 0.39244021389468 
1663	 0.392620974597233 
1664	 0.392851548102988 
1665	 0.39299630715239 
1666	 0.393026481861435 
1667	 0.39316445296717 
1668	 0.393318527352691 
1669	 0.393484616528411 
1670	 0.393710732385745 
1671	 0.393809108939999 
1672	 0.393743014374449 
1673	 0.393630903312198 
1674	 0.393605387067021 
1675	 0.393548038615829 
1676	 0.393643088141951 
1677	 0.393928098579657 
1678	 0.393956885922021 
1679	 0.393871568015659 
1680	 0.393778009740386 
1681	 0.393568413058059 
1682	 0.393466359548211 
1683	 0.393467852375569 
1684	 0.39333300073148 
1685	 0.393086027512634 
1686	 0.393022160953935 
1687	 0.392991179123639 
1688	 0.392883101365994 
1689	 0.392773462789638 
1690	 0.392385662659609 
1691	 0.392076034911907 
1692	 0.391781383714721 
1693	 0.391467922989836 
1694	 0.39108568540954 
1695	 0.390780312020362 
1696	 0.390547715771442 
1697	 0.390273719297514 
1698	 0.390042580549395 
1699	 0.389795123984589 
1700	 0.389608897484715 
1701	 0.389255563611545 
1702	 0.388743986286854 
1703	 0.388358798347957 
1704	 0.387889271395643 
1705	 0.387410967956921 
1706	 0.387159349806839 
1707	 0.386644397583658 
1708	 0.385783830471302 
1709	 0.385235561308941 
1710	 0.384714862606824 
1711	 0.384263096299826 
1712	 0.384074269456179 
1713	 0.383672033984529 
1714	 0.383187171450577 
1715	 0.382731114907472 
1716	 0.382193394370694 
1717	 0.381737160322864 
1718	 0.381412727246274 
1719	 0.380812300894195 
1720	 0.380069522205641 
1721	 0.379422563560711 
1722	 0.378521095663838 
1723	 0.377959543432596 
1724	 0.377788500219928 
1725	 0.377268090328236 
1726	 0.376703080299835 
1727	 0.376110116433579 
1728	 0.375246932797808 
1729	 0.374665907781546 
1730	 0.374326033993902 
1731	 0.373708131022143 
1732	 0.373103956170771 
1733	 0.372435773424083 
1734	 0.371794404037763 
1735	 0.371308742479608 
1736	 0.370755000679778 
1737	 0.36998939693502 
1738	 0.369159707468547 
1739	 0.368418630984457 
1740	 0.367506055597039 
1741	 0.366520363754401 
1742	 0.365700631202378 
1743	 0.364828525316435 
1744	 0.363986453837614 
1745	 0.363321602990042 
1746	 0.362477067607635 
1747	 0.361395808031545 
1748	 0.360474906168532 
1749	 0.359584172055795 
1750	 0.358585509382648 
1751	 0.35768595112929 
1752	 0.356925400155374 
1753	 0.356031409939325 
1754	 0.355060641119234 
1755	 0.354148330098655 
1756	 0.352828885950914 
1757	 0.351342653814184 
1758	 0.350257320121058 
1759	 0.349425546313224 
1760	 0.348447595717533 
1761	 0.347634533925421 
1762	 0.346720146292892 
1763	 0.34563723215195 
1764	 0.344610014031413 
1765	 0.343575623225343 
1766	 0.34266567343506 
1767	 0.341579961148273 
1768	 0.340718383132451 
1769	 0.340210183853159 
1770	 0.339678061414177 
1771	 0.339396836173006 
1772	 0.338896143066201 
1773	 0.338118080098207 
1774	 0.337428888318758 
1775	 0.337091337817787 
1776	 0.336495060310054 
1777	 0.335742172411384 
1778	 0.335038994272346 
1779	 0.334175843194471 
1780	 0.333866559177604 
1781	 0.334165762507645 
1782	 0.334051563912738 
1783	 0.333782983969841 
1784	 0.333429209027234 
1785	 0.332985871214883 
1786	 0.332932767865425 
1787	 0.332642711333531 
1788	 0.332157930384283 
1789	 0.33190346939503 
1790	 0.331565273579146 
1791	 0.331674671672549 
1792	 0.331981778970696 
1793	 0.332202198904784 
1794	 0.332427168709777 
1795	 0.332194478454814 
1796	 0.332255016304742 
1797	 0.331830399908115 
1798	 0.330899442345445 
1799	 0.331184572082891 
1800	 0.331505357994097 
1801	 0.331023067521801 
1802	 0.330273451845542 
1803	 0.330676814024718 
1804	 0.33191687378966 
1805	 0.332077549314457 
1806	 0.332657681236837 
1807	 0.333002394517792 
1808	 0.332168575283398 
1809	 0.330855769953892 
1810	 0.330139814479726 
1811	 0.330285229203698 
1812	 0.329708848085202 
1813	 0.327943876517766 
1814	 0.32746225524231 
1815	 0.327337113048949 
1816	 0.328213841260256 
1817	 0.332367552346929 
1818	 0.334207016063753 
1819	 0.335522301606805 
1820	 0.337350480746844 
1821	 0.337293775604301 
1822	 0.332868325154828 
1823	 0.331152392943395 
1824	 0.330538644491771 
1825	 0.328103426061081 
1826	 0.322845857094956 
1827	 0.319820559437385 
1828	 0.317133357954611 
1829	 0.312248149624385 
1830	 0.310388233499781 
1831	 0.318934180233997 
1832	 0.320429967733497 
1833	 0.314275520997667 
1834	 0.316865638661043 
1835	 0.329134767252904 
1836	 0.336535567831584 
1837	 0.339535167083541 
1838	 0.358989527964904 
1839	 0.38377246542335 
1840	 0.414481308951805 
1841	 0.405230521926846 
1842	 0.373337543176048 
1843	 0.376336374330008 
1844	 0.365771878604699 
1845	 0.359354817672572 
1846	 0.378751158712954 
1847	 0.396093740329524 
1848	 0.411240624133492 
1849	 0.413069166021953 
1850	 0.406357437556746 
1851	 0.42067081223418 
1852	 0.405595476070475 
1853	 0.354178452742475 
1854	 0.318999070230379 
1855	 0.274559847182348 
1856	 0.251943819682939 
1857	 0.215827552146755 
1858	 0.220386089497757 
1859	 0.231653664340167 
1860	 0.2781685361624 
1861	 0.285959584958683 
1862	 0.28370710786805 
1863	 0.292004227821548 
1864	 0.298535877324585 
1865	 0.294569313961969 
1866	 0.30711249080501 
1867	 0.295232174719915 
1868	 0.247790046935139 
1869	 0.225933398887678 
1870	 0.203576528946593 
1871	 0.185937939467812 
1872	 0.181076879200505 
1873	 0.191471136001045 
1874	 0.191277829434391 
1875	 0.202269023494955 
1876	 0.199957761983059 
1877	 0.197451896333076 
1878	 0.18982683245798 
1879	 0.172362012593968 
1880	 0.15256810729976 
1881	 0.143149272135383 
1882	 0.124426748171888 
1883	 0.124583342503672 
1884	 0.142516133519657 
1885	 0.147642810007302 
1886	 0.154728783331016 
1887	 0.160384002635041 
1888	 0.154326648487764 
1889	 0.132101136763688 
1890	 0.124708288129596 
1891	 0.114238043120225 
1892	 0.110175137047684 
1893	 0.120577715693097 
1894	 0.121270653237991 
1895	 0.116755905880738 
1896	 0.115257201552689 
1897	 0.116151622819627 
1898	 0.105423003288303 
1899	 9.28298669605214E-02 
1900	 8.87740978013792E-02 
1901	 8.79208642353801E-02 
1902	 8.72125668238077E-02 
1903	 9.29958675426944E-02 
1904	 0.122779142776259 
1905	 0.126058389311783 
1906	 0.108794378491737 
1907	 0.107320045746368 
1908	 9.88793156924359E-02 
1909	 0.118340856549339 
1910	 0.124773290713829 
1911	 0.112207955015514 
1912	 0.100533399743193 
1913	 7.66436449072118E-02 
1914	 7.01203483770014E-02 
1915	 7.17209595588633E-02 
1916	 6.87978703638913E-02 
1917	 6.71480523603678E-02 
1918	 6.50465185443407E-02 
1919	 6.03574379369678E-02 
1920	 5.90704153608208E-02 
1921	 6.31000467034713E-02 
1922	 6.66495324111367E-02 
1923	 6.92610475017525E-02 
1924	 7.35235168815172E-02 
1925	 7.47634761682649E-02 
1926	 0.074082377887447 
1927	 7.45988550325669E-02 
1928	 7.35732310095484E-02 
1929	 7.51662768391307E-02 
1930	 7.93175108949593E-02 
1931	 8.16023480093784E-02 
1932	 8.24855639820206E-02 
1933	 8.03413875653577E-02 
1934	 7.81295374211936E-02 
1935	 7.27520965275715E-02 
1936	 7.03196652940006E-02 
1937	 6.89465345119067E-02 
1938	 6.80148648765709E-02 
1939	 6.73245928064618E-02 
1940	 6.67614765060473E-02 
1941	 6.75029741507026E-02 
1942	 6.98870187549884E-02 
1943	 7.21436935858132E-02 
1944	 7.42711727005603E-02 
1945	 7.59250433332421E-02 
1946	 7.55130924812579E-02 
1947	 7.56534855773052E-02 
1948	 7.54288969926964E-02 
1949	 7.55918018269507E-02 
1950	 7.55966290229868E-02 
1951	 7.62050774059293E-02 
1952	 7.72053148124789E-02 
1953	 7.75709430833917E-02 
1954	 7.70829929899819E-02 
1955	 7.74336991736767E-02 
1956	 7.78939459963826E-02 
1957	 0.077602102172537 
1958	 7.80560440974613E-02 
1959	 7.90795125217238E-02 
1960	 7.99479637752016E-02 
1961	 8.06716789475609E-02 
1962	 0.081881048031396 
1963	 8.26991064662615E-02 
1964	 8.34762267844512E-02 
1965	 8.44494991493566E-02 
1966	 0.08466731592391 
1967	 8.48775384790044E-02 
1968	 8.53011195725472E-02 
1969	 0.085523994732096 
1970	 8.53783275847233E-02 
1971	 8.58211916107145E-02 
1972	 8.65192349714576E-02 
1973	 8.68892333442357E-02 
1974	 8.81916550866255E-02 
1975	 8.86733362831076E-02 
1976	 8.88379905656472E-02 
1977	 8.99455646033502E-02 
1978	 9.04294506589358E-02 
1979	 9.10481098557632E-02 
1980	 9.18658324017692E-02 
1981	 9.18709438466435E-02 
1982	 9.22454145014719E-02 
1983	 9.24893246098916E-02 
1984	 9.30058711648545E-02 
1985	 9.35013717439996E-02 
1986	 9.43421769693282E-02 
1987	 9.50288488782697E-02 
1988	 9.53963523657965E-02 
1989	 0.096117853208984 
1990	 9.67969769057102E-02 
1991	 0.097456186528313 
1992	 9.84102092499909E-02 
1993	 9.92237866833636E-02 
1994	 0.100080709125467 
1995	 0.100766994396427 
1996	 0.101368795871653 
1997	 0.101830293522718 
1998	 0.102038197698231 
1999	 0.101971135877062 
2000	 0.102641651535168 
2001	 0.103419930964184 
2002	 0.104521853580639 
2003	 0.10639025186766 
2004	 0.107884629640638 
2005	 0.108477007745151 
2006	 0.109303746629833 
2007	 0.109739683026252 
2008	 0.110619600663008 
2009	 0.111396492755088 
2010	 0.112164339086063 
2011	 0.113169194283436 
2012	 0.114079072573881 
2013	 0.114513466413998 
2014	 0.11517571571199 
2015	 0.116228623680602 
2016	 0.11674950093665 
2017	 0.117154941404736 
2018	 0.118158368425604 
2019	 0.119109031704631 
2020	 0.120054300191087 
2021	 0.120558649829864 
2022	 0.121754409556641 
2023	 0.123082113748976 
2024	 0.123435994725336 
2025	 0.124012989679695 
2026	 0.124519336682359 
2027	 0.124789745087815 
2028	 0.125311801337254 
2029	 0.125848696051753 
2030	 0.126552469727118 
2031	 0.127067078270015 
2032	 0.127739909227903 
2033	 0.128587875479261 
2034	 0.129564952582775 
2035	 0.130136439360163 
2036	 0.130782691086157 
2037	 0.131310458985249 
2038	 0.131706996586555 
2039	 0.13264542789342 
2040	 0.133534755101239 
2041	 0.13413032841853 
2042	 0.13523310528911 
2043	 0.135926363298855 
2044	 0.136295541035247 
2045	 0.136794404558108 
2046	 0.137386656550143 
2047	 0.137484889478393 
2048	 0.137794875427532 
2049	 0.138487368870537 
2050	 0.139242792584226 
2051	 0.140285698759164 
2052	 0.141135731207094 
2053	 0.141877243190158 
2054	 0.142661292214893 
2055	 0.143385689248136 
2056	 0.144283621798747 
2057	 0.144877860463081 
2058	 0.14572586685079 
2059	 0.146676070855403 
2060	 0.14779591824772 
2061	 0.148310717355516 
2062	 0.148911255135056 
2063	 0.149632473271375 
2064	 0.149932628239898 
2065	 0.150787127351902 
2066	 0.15227027598461 
2067	 0.153185939396548 
2068	 0.154120634935875 
2069	 0.155054155994246 
2070	 0.155187098409276 
2071	 0.155501777633362 
2072	 0.155965586473287 
2073	 0.156299861480403 
2074	 0.156515010751921 
2075	 0.157406260706285 
2076	 0.158238551616685 
2077	 0.158678207852644 
2078	 0.15938729854477 
2079	 0.160075470713252 
2080	 0.160770200944125 
2081	 0.162023622671158 
2082	 0.163281309385863 
2083	 0.164678453413643 
2084	 0.165867899786338 
2085	 0.166189346695894 
2086	 0.166635589594109 
2087	 0.167170255763214 
2088	 0.167408496778897 
2089	 0.167932848142549 
2090	 0.169276358279052 
2091	 0.170317842704141 
2092	 0.171017360379066 
2093	 0.171668766942652 
2094	 0.172302345756745 
2095	 0.172867652355487 
2096	 0.173558218365027 
2097	 0.174512493218889 
2098	 0.175201357403612 
2099	 0.175848520575632 
2100	 0.176498860653409 
2101	 0.177155724704448 
2102	 0.17787339777779 
2103	 0.178605960032478 
2104	 0.179252116720898 
2105	 0.180159310592927 
2106	 0.18098839570688 
2107	 0.181727468766825 
2108	 0.182608951887711 
2109	 0.183349412294674 
2110	 0.183647587741329 
2111	 0.184076663202334 
2112	 0.184791455126458 
2113	 0.185302016694613 
2114	 0.186253315810707 
2115	 0.187230340834504 
2116	 0.188218151526715 
2117	 0.189185154267993 
2118	 0.190218251325449 
2119	 0.19091303798694 
2120	 0.191565091505312 
2121	 0.191972026729363 
2122	 0.192043563652443 
2123	 0.19292017394126 
2124	 0.193742201185523 
2125	 0.194550055858518 
2126	 0.195692783071283 
2127	 0.196225929991938 
2128	 0.196829453744845 
2129	 0.197439880065267 
2130	 0.197667860226248 
2131	 0.198553983613273 
2132	 0.199593211151635 
2133	 0.200171545725088 
2134	 0.200706674017995 
2135	 0.201186226208094 
2136	 0.201449416703331 
2137	 0.201715662161102 
2138	 0.202357955079278 
2139	 0.202983537768722 
2140	 0.203452864915474 
2141	 0.20399912174997 
2142	 0.204273120789014 
2143	 0.204633252412142 
2144	 0.205069414868127 
2145	 0.205353874247632 
2146	 0.205892512590271 
2147	 0.206654218691635 
2148	 0.20767595504183 
2149	 0.208187839320518 
2150	 0.208437006451938 
2151	 0.20863272517957 
2152	 0.208089725883728 
2153	 0.208163091973508 
2154	 0.208547852384115 
2155	 0.208983430908335 
2156	 0.209533689507889 
2157	 0.210218049205058 
2158	 0.210653865271829 
2159	 0.211306895505037 
2160	 0.211723298728332 
2161	 0.211431498797096 
2162	 0.211434286037772 
2163	 0.211587425535024 
2164	 0.211476995163529 
2165	 0.211952030928326 
2166	 0.212460591224698 
2167	 0.212927707358121 
2168	 0.213254569830734 
2169	 0.213785465905075 
2170	 0.213930399468818 
2171	 0.21382980990017 
2172	 0.213295426675969 
2173	 0.213387973779785 
2174	 0.213601932631541 
2175	 0.213969980632789 
2176	 0.214902953926986 
2177	 0.215546689167775 
2178	 0.215805868878933 
2179	 0.215932338489722 
2180	 0.215970889127736 
2181	 0.215995680767682 
2182	 0.215656353179538 
2183	 0.215423289026793 
2184	 0.215754597970146 
2185	 0.215801167164484 
2186	 0.216294348439939 
2187	 0.216718469074372 
2188	 0.217338706302033 
2189	 0.217535635949331 
2190	 0.217521859970855 
2191	 0.217490067336038 
2192	 0.217781875221351 
2193	 0.218346438217772 
2194	 0.218557400806809 
2195	 0.219070862221276 
2196	 0.218942935386794 
2197	 0.21877733952807 
2198	 0.219207748922129 
2199	 0.219176795692226 
2200	 0.219389111761397 
2201	 0.219892692033979 
2202	 0.220130192493029 
2203	 0.220207736386119 
2204	 0.220246413733889 
2205	 0.220158534195949 
2206	 0.220047490135646 
2207	 0.219892139109754 
2208	 0.219713481091781 
2209	 0.219519468559836 
2210	 0.219508902319579 
2211	 0.219442332930811 
2212	 0.219490934018554 
2213	 0.220154668771973 
2214	 0.220107142185837 
2215	 0.219443302807297 
2216	 0.219442023314822 
2217	 0.218734760694787 
2218	 0.21875837911025 
2219	 0.219635062247233 
2220	 0.219712472901659 
2221	 0.22029495148039 
2222	 0.219881542468503 
2223	 0.21899661574553 
2224	 0.218641196442869 
2225	 0.217688104994009 
2226	 0.217308425159914 
2227	 0.217494930144361 
2228	 0.217728684918273 
2229	 0.217805624881659 
2230	 0.217712670843122 
2231	 0.21756070968272 
2232	 0.216685024755808 
2233	 0.216355940701128 
2234	 0.216313506514132 
2235	 0.216642405192466 
2236	 0.216342063468776 
2237	 0.216388150080764 
2238	 0.216142232135011 
2239	 0.215205835043822 
2240	 0.214484889237743 
2241	 0.213536142543353 
2242	 0.212663748116182 
2243	 0.212021238682344 
2244	 0.211840875243103 
2245	 0.211703814061774 
2246	 0.211539383067431 
2247	 0.21090304935644 
2248	 0.208861522059723 
2249	 0.207570767485632 
2250	 0.206837747619838 
2251	 0.206109233897774 
2252	 0.206763306004142 
2253	 0.207203936074397 
2254	 0.206827991838632 
2255	 0.206504508005853 
2256	 0.205881131024009 
2257	 0.204919378028678 
2258	 0.20392893977567 
2259	 0.202760381014987 
2260	 0.201477469156714 
2261	 0.201011703986084 
2262	 0.200702467209196 
2263	 0.200229526291076 
2264	 0.200257337575793 
2265	 0.19998185715422 
2266	 0.198721434611323 
2267	 0.197575293466266 
2268	 0.196971144167321 
2269	 0.196335549599348 
2270	 0.196084502164422 
2271	 0.196380742989342 
2272	 0.196312163962773 
2273	 0.195044393023539 
2274	 0.193497407647811 
2275	 0.193129916612969 
2276	 0.192513830015786 
2277	 0.192087826465532 
2278	 0.19313873155809 
2279	 0.192927818380336 
2280	 0.191646580855465 
2281	 0.191186786105927 
2282	 0.190806301767543 
2283	 0.189791832909656 
2284	 0.189291117662857 
2285	 0.189769903906271 
2286	 0.189532843636978 
2287	 0.188713119753309 
2288	 0.187912774771614 
2289	 0.187033514198344 
2290	 0.185302154853263 
2291	 0.183585984589276 
2292	 0.183320024958485 
2293	 0.183438762457737 
2294	 0.182874906656124 
2295	 0.183023877271471 
2296	 0.182106594833777 
2297	 0.180791387276766 
2298	 0.180564763809799 
2299	 0.180466645921633 
2300	 0.180063937605917 
2301	 0.179354687720381 
2302	 0.178352979649957 
2303	 0.176062635081271 
2304	 0.17418726016121 
2305	 0.173334736036879 
2306	 0.172308603317428 
2307	 0.172504217996478 
2308	 0.173206583711863 
2309	 0.172951157447401 
2310	 0.173111932625834 
2311	 0.172969949672703 
2312	 0.171739938527434 
2313	 0.170666718796019 
2314	 0.170339449689742 
2315	 0.169059935298643 
2316	 0.16717421794698 
2317	 0.167605812972902 
2318	 0.167670522961319 
2319	 0.166705481140596 
2320	 0.166674723258904 
2321	 0.166147561814758 
2322	 0.163393423557469 
2323	 0.162453130989345 
2324	 0.162483356586209 
2325	 0.16378853329716 
2326	 0.163503237713037 
2327	 0.163466143470174 
2328	 0.163718848355826 
2329	 0.162760186688952 
2330	 0.162386891982462 
2331	 0.162593908076899 
2332	 0.16126779607257 
2333	 0.158785128740837 
2334	 0.157128752126835 
2335	 0.156418471015009 
2336	 0.156593566223149 
2337	 0.157073382895363 
2338	 0.156666027784824 
2339	 0.156034073545585 
2340	 0.155807880319699 
2341	 0.155182070944523 
2342	 0.154942675283368 
2343	 0.154736836379699 
2344	 0.152562734748435 
2345	 0.151604844435411 
2346	 0.151927313196658 
2347	 0.150972650802061 
2348	 0.151522979097825 
2349	 0.15167737095382 
2350	 0.150035229666005 
2351	 0.149048290653538 
2352	 0.147799496378179 
2353	 0.14726647049362 
2354	 0.146715746629288 
2355	 0.145043145777172 
2356	 0.143513414588839 
2357	 0.142330336921144 
2358	 0.143509769494355 
2359	 0.146219587819432 
2360	 0.146919658039056 
2361	 0.146675548481128 
2362	 0.144693200208537 
2363	 0.14036185332469 
2364	 0.138006419596871 
2365	 0.13631650900411 
2366	 0.134444634147203 
2367	 0.13412297219566 
2368	 0.134485753737033 
2369	 0.135797356090275 
2370	 0.137509815664296 
2371	 0.138281234266603 
2372	 0.137870966997722 
2373	 0.135965903178734 
2374	 0.134389846438319 
2375	 0.130878811187882 
2376	 0.128831534526402 
2377	 0.128018094347914 
2378	 0.126717041287876 
2379	 0.125986367311257 
2380	 0.126475478978106 
2381	 0.127608502327328 
2382	 0.126414618561044 
2383	 0.123746487300146 
2384	 0.122731679487806 
2385	 0.122248980725863 
2386	 0.121359111006421 
2387	 0.121843664049858 
2388	 0.120672366178487 
2389	 0.116203065635041 
2390	 0.11421676263897 
2391	 0.114066057206138 
2392	 0.114262207494702 
2393	 0.114777885358947 
2394	 0.115422063472514 
2395	 0.117518906843003 
2396	 0.118781243330462 
2397	 0.119826543008891 
2398	 0.121292130953915 
2399	 0.122027297687981 
2400	 0.122861889042476 
2401	 0.124365133020085 
2402	 0.125165220899214 
2403	 0.125665594706933 
2404	 0.124457690436279 
2405	 0.120660509602915 
2406	 0.115514855502942 
2407	 0.110931266088582 
2408	 0.1075252124114 
2409	 0.10666783927081 
2410	 0.109343404602154 
2411	 0.111492245769313 
2412	 0.114470220663036 
2413	 0.114821973936128 
2414	 0.11463509417219 
2415	 0.114401925796863 
2416	 0.108669331870236 
2417	 0.106614528732479 
2418	 0.109644974526232 
2419	 0.111722961007643 
2420	 0.110616658382204 
2421	 0.10485999246339 
2422	 0.094722605375894 
2423	 8.88665884873591E-02 
2424	 9.17076554043348E-02 
2425	 9.30230163736339E-02 
2426	 9.57683767845426E-02 
2427	 9.71945740086672E-02 
2428	 0.090046921640538 
2429	 9.00478348756806E-02 
2430	 9.47391513954549E-02 
2431	 9.57810442196256E-02 
2432	 0.101430518554857 
2433	 0.099626123799363 
2434	 9.90241882268932E-02 
2435	 9.86728229032788E-02 
2436	 9.73622464921455E-02 
2437	 9.87771082820441E-02 
2438	 9.78083081887632E-02 
2439	 8.86685729428107E-02 
2440	 8.52539991961687E-02 
2441	 8.26416496192564E-02 
2442	 8.48437573612382E-02 
2443	 9.98379176638931E-02 
2444	 0.106530348341439 
2445	 0.115671853978492 
2446	 0.115751567243517 
2447	 9.85018740778158E-02 
2448	 9.16340375346086E-02 
2449	 8.21224194783807E-02 
2450	 0.077752075460356 
2451	 8.51193715250889E-02 
2452	 8.55277824379802E-02 
2453	 0.08676182277194 
2454	 8.44280149111855E-02 
2455	 7.43410540693962E-02 
2456	 7.38219887614186E-02 
2457	 7.78726390924431E-02 
2458	 7.83450053921398E-02 
2459	 0.082156586533437 
2460	 8.29618358751342E-02 
2461	 7.74089029776184E-02 
2462	 0.077454935959525 
2463	 0.081602910484417 
2464	 8.59879106140794E-02 
2465	 9.48739338059931E-02 
2466	 9.62675318176289E-02 
2467	 9.53762616096316E-02 
2468	 0.093831632345533 
2469	 8.08447262955535E-02 
2470	 8.17466002574398E-02 
2471	 9.58134713457151E-02 
2472	 0.095941450187184 
2473	 9.78845380769021E-02 
2474	 9.43098227468832E-02 
2475	 6.91693900986971E-02 
2476	 6.50398907242606E-02 
2477	 0.073325694545222 
2478	 8.88696675391069E-02 
2479	 0.130980799252709 
2480	 0.134852137813909 
2481	 0.12709417241375 
2482	 0.106725719453095 
2483	 3.08506606987655E-02 
2484	 1.30368652910382E-02 
2485	 2.11608641551481E-02 
2486	 6.34380952522209E-02 
2487	 0.109393778524628 
2488	 0.126186843093819 
2489	 0.10616683507184 
2490	 8.30761923401671E-02 
2491	 9.10156819532455E-02 
2492	 0.126447270837214 
2493	 0.151069388518282 
2494	 0.120209523673384 
2495	 4.98230100362117E-02 
2496	-6.89692828041782E-03 
2497	-3.13726192266476E-02 
2498	-6.99747092334804E-02 
2499	-8.49357350935607E-02 
2500	-4.96616255902073E-02 
