Wavelength	ref00026.asd
350	 0.018993548445807 
351	 1.90346401142294E-02 
352	 1.86739876632175E-02 
353	 1.94832668773057E-02 
354	 0.019110986872161 
355	 0.018636782913586 
356	 1.89045503472338E-02 
357	 1.89927685420115E-02 
358	 0.019050992574267 
359	 1.90594358555176E-02 
360	 0.018986436482344 
361	 1.88801172120769E-02 
362	 1.86682638519019E-02 
363	 1.86862476430263E-02 
364	 1.93333301993323E-02 
365	 0.018932359263815 
366	 0.018606112240859 
367	 1.88534522765042E-02 
368	 1.88368837526743E-02 
369	 1.89242252297257E-02 
370	 1.91049745703554E-02 
371	 1.93064993973797E-02 
372	 1.95242124290028E-02 
373	 1.98121232282782E-02 
374	 2.01656531044583E-02 
375	 2.05604269253834E-02 
376	 2.10907836058815E-02 
377	 2.16164743999995E-02 
378	 2.21905006196565E-02 
379	 2.31035634451789E-02 
380	 0.023981776285987 
381	 2.50920914179331E-02 
382	 2.65546409792442E-02 
383	 2.76906558919397E-02 
384	 2.93253988478003E-02 
385	 3.11935880307317E-02 
386	 3.27866013718454E-02 
387	 3.54353120093906E-02 
388	 3.83065814263869E-02 
389	 4.10953528917809E-02 
390	 4.41960169105657E-02 
391	 4.76929863155779E-02 
392	 0.051769082309525 
393	 5.65134492589823E-02 
394	 6.17547295881488E-02 
395	 6.75931906009823E-02 
396	 7.39941577047117E-02 
397	 8.08258557429653E-02 
398	 8.77470645747301E-02 
399	 9.48817829367518E-02 
400	 0.102266068666047 
401	 0.109876784902257 
402	 0.117937126361509 
403	 0.126879736563956 
404	 0.136879969458814 
405	 0.147626693589644 
406	 0.159393638990409 
407	 0.172092288590003 
408	 0.185455134912528 
409	 0.19929621259221 
410	 0.213185274718431 
411	 0.227081944810046 
412	 0.241281470066785 
413	 0.255291964474764 
414	 0.269158833862459 
415	 0.283004079626082 
416	 0.296945910144284 
417	 0.310496672115068 
418	 0.323689073516849 
419	 0.336696220626195 
420	 0.349195756543803 
421	 0.361024917937968 
422	 0.372176019895642 
423	 0.382812014870366 
424	 0.392803476104952 
425	 0.402433404241271 
426	 0.411804322749756 
427	 0.420469680691133 
428	 0.429112238615481 
429	 0.437405234572494 
430	 0.444787109005472 
431	 0.4514845379536 
432	 0.457352031959583 
433	 0.462425866313059 
434	 0.466933990140964 
435	 0.471290404081806 
436	 0.475413777175023 
437	 0.479175768005383 
438	 0.482516306159823 
439	 0.485696359108105 
440	 0.488517314259117 
441	 0.490735380779784 
442	 0.492815997078658 
443	 0.494673760395689 
444	 0.496389663163475 
445	 0.498212855705583 
446	 0.499658536041408 
447	 0.500783713523458 
448	 0.501743433226292 
449	 0.502643408650826 
450	 0.503541210358459 
451	 0.504486933887712 
452	 0.505498730161748 
453	 0.506489607433973 
454	 0.50732848085636 
455	 0.507965902198321 
456	 0.508453187724533 
457	 0.509076081444108 
458	 0.509706274100668 
459	 0.510213384615651 
460	 0.510787829437249 
461	 0.511201080638855 
462	 0.511535121826841 
463	 0.512011200161496 
464	 0.512435224038213 
465	 0.512947229953562 
466	 0.513536650298497 
467	 0.513923739319165 
468	 0.51417953769214 
469	 0.51442775098593 
470	 0.51472879813582 
471	 0.514824803797876 
472	 0.514876609167626 
473	 0.514971373002578 
474	 0.515123521086245 
475	 0.515227798569425 
476	 0.515334145879541 
477	 0.515461876821259 
478	 0.515522108222573 
479	 0.515677057498844 
480	 0.515896755326807 
481	 0.516085029608579 
482	 0.516162291751462 
483	 0.516395133587628 
484	 0.516895918338141 
485	 0.51758408835085 
486	 0.518136648737791 
487	 0.518546324972231 
488	 0.51883543613005 
489	 0.518851201481487 
490	 0.519172982182083 
491	 0.519776752944604 
492	 0.520373672483397 
493	 0.520919260289903 
494	 0.52139984648875 
495	 0.521828260238579 
496	 0.522244253718305 
497	 0.522882072394378 
498	 0.523584474260719 
499	 0.524184488122099 
500	 0.524850294721539 
501	 0.525445686636403 
502	 0.525922905164976 
503	 0.526313472273866 
504	 0.526759344901603 
505	 0.527249912878188 
506	 0.527767637387036 
507	 0.528317779654092 
508	 0.528954211643462 
509	 0.529618561694933 
510	 0.530215602105913 
511	 0.530645402217345 
512	 0.531178703183186 
513	 0.531860878642123 
514	 0.532535341571631 
515	 0.533245476356336 
516	 0.53396545932292 
517	 0.534691808526557 
518	 0.535549592805773 
519	 0.53605826344273 
520	 0.536434981758597 
521	 0.53708171142518 
522	 0.53764684748341 
523	 0.538121615372234 
524	 0.538568573494935 
525	 0.539098918700365 
526	 0.539904052751192 
527	 0.540668969212976 
528	 0.541130176845251 
529	 0.541528134699361 
530	 0.541991190799205 
531	 0.542565929003225 
532	 0.543225466449129 
533	 0.54379425619617 
534	 0.544251299781451 
535	 0.544647834497148 
536	 0.545117154429561 
537	 0.545596433643277 
538	 0.545995433750222 
539	 0.546278359302215 
540	 0.546696840467702 
541	 0.547136265526343 
542	 0.547519929116169 
543	 0.547821836902172 
544	 0.548063855214078 
545	 0.548385337758907 
546	 0.548813084647565 
547	 0.549075340758843 
548	 0.549320027104388 
549	 0.54961203063539 
550	 0.549965395602801 
551	 0.550276711193086 
552	 0.550611245381129 
553	 0.550959096973296 
554	 0.551206272159255 
555	 0.551367072686191 
556	 0.551570177766315 
557	 0.551902889600734 
558	 0.552228566493797 
559	 0.552482836222094 
560	 0.552640228039372 
561	 0.552725701452764 
562	 0.552903394721252 
563	 0.553067202334211 
564	 0.553187681812412 
565	 0.553446164904727 
566	 0.553570618938214 
567	 0.553573369276081 
568	 0.553561565050111 
569	 0.553576904803629 
570	 0.553595598174976 
571	 0.553593371039935 
572	 0.553555289643342 
573	 0.553568516919458 
574	 0.553681216181377 
575	 0.553862001034702 
576	 0.553908866672671 
577	 0.553855742626382 
578	 0.55382713251967 
579	 0.553950854953386 
580	 0.553995303874408 
581	 0.554004334663882 
582	 0.554027422489755 
583	 0.554088240556041 
584	 0.553968596975644 
585	 0.553752163627786 
586	 0.553558223995844 
587	 0.553266913963448 
588	 0.553183729981132 
589	 0.553301887234107 
590	 0.553376143815977 
591	 0.553422061535894 
592	 0.553547160246209 
593	 0.553760046250836 
594	 0.553856766396162 
595	 0.554011422476956 
596	 0.554187337187892 
597	 0.554318759888143 
598	 0.554567997655715 
599	 0.554783455811972 
600	 0.554937000692795 
601	 0.555135146414407 
602	 0.555357872898511 
603	 0.555560700446675 
604	 0.555717904146558 
605	 0.555864374603691 
606	 0.556036791760121 
607	 0.556203297592329 
608	 0.556300289629821 
609	 0.556332565963884 
610	 0.556343305986127 
611	 0.556373446214373 
612	 0.556454874859764 
613	 0.556458398388066 
614	 0.556432450045502 
615	 0.556451593907618 
616	 0.556496585064668 
617	 0.556476492136842 
618	 0.556438236740509 
619	 0.556505639663533 
620	 0.556506817847468 
621	 0.556458110519546 
622	 0.556420501444701 
623	 0.556495134716821 
624	 0.556562294172543 
625	 0.556621253082306 
626	 0.556707928513004 
627	 0.556813275508796 
628	 0.556929460227662 
629	 0.557024543353646 
630	 0.557050499311553 
631	 0.557162703948071 
632	 0.557173782008749 
633	 0.557013061473052 
634	 0.557079201094063 
635	 0.557130133036991 
636	 0.557096793800698 
637	 0.556990021450279 
638	 0.556826320286077 
639	 0.556635073560476 
640	 0.556449670319761 
641	 0.556311909486026 
642	 0.556196904778064 
643	 0.556015003145935 
644	 0.555721127057313 
645	 0.555463960937564 
646	 0.555166531316458 
647	 0.554870757537079 
648	 0.554690913174127 
649	 0.554679692116106 
650	 0.554707991415042 
651	 0.554673650055119 
652	 0.554553578927449 
653	 0.554556032363316 
654	 0.55461858687834 
655	 0.554657360589981 
656	 0.554897870954493 
657	 0.555040735504439 
658	 0.555061625852396 
659	 0.555166187251287 
660	 0.555094611143659 
661	 0.554953684948785 
662	 0.554836728415809 
663	 0.554705384414045 
664	 0.554712840785958 
665	 0.554722389684867 
666	 0.554577439673552 
667	 0.554566253027788 
668	 0.554624629620225 
669	 0.554668520220422 
670	 0.554626445212073 
671	 0.554693630996579 
672	 0.554865945163689 
673	 0.555090286762586 
674	 0.555297636067062 
675	 0.555574984136817 
676	 0.555814965234327 
677	 0.555920237630624 
678	 0.556306223363195 
679	 0.556728818657398 
680	 0.557083877946033 
681	 0.557461932451611 
682	 0.558018437427063 
683	 0.558624843311493 
684	 0.559210914134544 
685	 0.560009650704241 
686	 0.560990620921858 
687	 0.562220646607869 
688	 0.563615197474974 
689	 0.564767251414488 
690	 0.565740904914424 
691	 0.566744492312259 
692	 0.567962046044043 
693	 0.569141110857276 
694	 0.57044638832043 
695	 0.57203539840592 
696	 0.573845448052769 
697	 0.575838929152526 
698	 0.577794922262051 
699	 0.579491122707393 
700	 0.581385153781353 
701	 0.583419260577546 
702	 0.585499820579623 
703	 0.587541665697026 
704	 0.589542836371637 
705	 0.591506528507183 
706	 0.593450704523321 
707	 0.595344792320598 
708	 0.59740699032993 
709	 0.59943829148913 
710	 0.60113000628967 
711	 0.603000618401509 
712	 0.604931217975415 
713	 0.606794288953116 
714	 0.60851583997624 
715	 0.609980870302098 
716	 0.6110713406133 
717	 0.611857785117666 
718	 0.612794196368731 
719	 0.614279718216391 
720	 0.616406586895495 
721	 0.618860102486246 
722	 0.620802238059554 
723	 0.622185393664295 
724	 0.623307845291469 
725	 0.624628744233292 
726	 0.626010001362857 
727	 0.627404800599318 
728	 0.628809598082863 
729	 0.630195112656852 
730	 0.631398801766326 
731	 0.632592477448586 
732	 0.633996808219164 
733	 0.635324293478825 
734	 0.636430593374588 
735	 0.637330931285911 
736	 0.638152228137913 
737	 0.639099271631103 
738	 0.639972720144309 
739	 0.640679890564674 
740	 0.641475644076952 
741	 0.642143045924602 
742	 0.642719460781572 
743	 0.643313366874232 
744	 0.643981305834878 
745	 0.64446920032272 
746	 0.644760986979484 
747	 0.645037207855738 
748	 0.645405898988241 
749	 0.64571585414919 
750	 0.645929897744077 
751	 0.646266179846242 
752	 0.646569567637362 
753	 0.646792287983485 
754	 0.646937810470193 
755	 0.647064676349777 
756	 0.647230298556905 
757	 0.647262717519154 
758	 0.647017574962174 
759	 0.647911335114184 
760	 0.649553393206269 
761	 0.651039937250387 
762	 0.650920427968726 
763	 0.650958806009561 
764	 0.650865797045948 
765	 0.650305516364615 
766	 0.649695363556822 
767	 0.649337067024172 
768	 0.649227184104454 
769	 0.649259485654391 
770	 0.649273349234436 
771	 0.649316735287063 
772	 0.649385033569727 
773	 0.649424812257518 
774	 0.649458695086944 
775	 0.649455134196601 
776	 0.649457362901672 
777	 0.649645074435311 
778	 0.649843274408824 
779	 0.64998480179899 
780	 0.650064326203926 
781	 0.650177453119596 
782	 0.650240101360885 
783	 0.65027846938401 
784	 0.650365711126648 
785	 0.65045531060494 
786	 0.650513565577016 
787	 0.650474917682097 
788	 0.650267264338284 
789	 0.650379506572145 
790	 0.650547973854872 
791	 0.650574677069474 
792	 0.650708688154803 
793	 0.651000856467209 
794	 0.651231065650702 
795	 0.651217859582092 
796	 0.65130624875745 
797	 0.651443199505703 
798	 0.651584298774265 
799	 0.651691570152394 
800	 0.651737265885277 
801	 0.651720364859159 
802	 0.651747564779833 
803	 0.652014896886582 
804	 0.652172287444598 
805	 0.652320373569956 
806	 0.652524852015681 
807	 0.652594675553822 
808	 0.652653994510646 
809	 0.652664168070189 
810	 0.652517566271337 
811	 0.652030928476826 
812	 0.651609025484723 
813	 0.651236703609201 
814	 0.650690975828753 
815	 0.650234045609591 
816	 0.650072135797624 
817	 0.650226543669457 
818	 0.650503986015171 
819	 0.650724309385848 
820	 0.651007087205789 
821	 0.651373868892973 
822	 0.65159785146324 
823	 0.651451931438931 
824	 0.65127930611047 
825	 0.651450787004529 
826	 0.651933047554753 
827	 0.652113153118561 
828	 0.652009294608319 
829	 0.651898813325069 
830	 0.651746094437337 
831	 0.651846308300021 
832	 0.652137006991438 
833	 0.65232101809697 
834	 0.652657253900742 
835	 0.652827544407232 
836	 0.652858612851323 
837	 0.653216293483907 
838	 0.653397075340699 
839	 0.653502485664516 
840	 0.653692062170536 
841	 0.654016042956274 
842	 0.654030451948216 
843	 0.653967030648399 
844	 0.654143733659467 
845	 0.654485934808385 
846	 0.654414405955117 
847	 0.654248014897416 
848	 0.654544805720563 
849	 0.654744019960154 
850	 0.654828519397555 
851	 0.654820293396493 
852	 0.654812033123507 
853	 0.655300551338032 
854	 0.655619538033967 
855	 0.655535519899915 
856	 0.655453911049874 
857	 0.655284456125092 
858	 0.655366895908483 
859	 0.655732267723901 
860	 0.655865144464334 
861	 0.655819086176061 
862	 0.655724377763657 
863	 0.655715232734342 
864	 0.655829614573434 
865	 0.656258302610188 
866	 0.65666502011765 
867	 0.656662254105751 
868	 0.656449726782919 
869	 0.65629926743794 
870	 0.6562858987802 
871	 0.656372333247012 
872	 0.656578066543198 
873	 0.656885128520131 
874	 0.657029735835391 
875	 0.656723680493252 
876	 0.656756425888509 
877	 0.656781478609546 
878	 0.656695388206625 
879	 0.656743474527519 
880	 0.656983050076916 
881	 0.657048091322502 
882	 0.656855028776948 
883	 0.656775736448327 
884	 0.656687946727876 
885	 0.656729393242012 
886	 0.656893732757773 
887	 0.656851548172318 
888	 0.656565962921727 
889	 0.656249328934455 
890	 0.656135918881077 
891	 0.656371589848263 
892	 0.65599631566529 
893	 0.655307108858686 
894	 0.654859706489157 
895	 0.654478849160349 
896	 0.653820281727797 
897	 0.653229433889895 
898	 0.653154176875681 
899	 0.652970965008914 
900	 0.652750519225796 
901	 0.652652547266261 
902	 0.652769063128093 
903	 0.652641222870644 
904	 0.652776179141213 
905	 0.653098875230412 
906	 0.653150895002922 
907	 0.65275216960066 
908	 0.652360660559261 
909	 0.652030127300994 
910	 0.651471452004418 
911	 0.650902126105724 
912	 0.650737969472405 
913	 0.651079629254075 
914	 0.651639290455949 
915	 0.651798321179246 
916	 0.651443405462734 
917	 0.6509593396146 
918	 0.65107138334886 
919	 0.651235735609155 
920	 0.651122319624626 
921	 0.650831376145265 
922	 0.650893021981362 
923	 0.650629501243401 
924	 0.64987346685972 
925	 0.648763711098056 
926	 0.647722367748749 
927	 0.646257497894616 
928	 0.644784382955918 
929	 0.643438158621252 
930	 0.641475103345321 
931	 0.639487781517557 
932	 0.637763205740955 
933	 0.636331402537915 
934	 0.63478527082175 
935	 0.633019270138352 
936	 0.630978547238433 
937	 0.629256382944554 
938	 0.629377792561376 
939	 0.629089925408128 
940	 0.628234943142698 
941	 0.627483859533825 
942	 0.627997658392164 
943	 0.628199553494416 
944	 0.627132160721958 
945	 0.624826831474492 
946	 0.623001961883407 
947	 0.621543385223751 
948	 0.620253002234498 
949	 0.619034578236733 
950	 0.618155721052636 
951	 0.616144591109109 
952	 0.614236778626582 
953	 0.613257644989947 
954	 0.611755392069861 
955	 0.61051725028782 
956	 0.60928589554916 
957	 0.608014806291968 
958	 0.607509272645471 
959	 0.60666651827689 
960	 0.606504178564954 
961	 0.607087652171579 
962	 0.606028604059163 
963	 0.606037016150825 
964	 0.606357808376045 
965	 0.606363167367999 
966	 0.60692194251679 
967	 0.60684700913405 
968	 0.606913136242548 
969	 0.607343272954499 
970	 0.606979661322435 
971	 0.607767305465858 
972	 0.608776644638981 
973	 0.609040943983501 
974	 0.608522388738984 
975	 0.608369919076407 
976	 0.60866065804432 
977	 0.60913474932418 
978	 0.609404798925237 
979	 0.609040011804817 
980	 0.60890581528597 
981	 0.609328995554606 
982	 0.609818502353311 
983	 0.610325567316901 
984	 0.611105896431635 
985	 0.611865987392225 
986	 0.612053864186938 
987	 0.613430942056654 
988	 0.614228240476306 
989	 0.614302776045817 
990	 0.614968595799639 
991	 0.616129275258173 
992	 0.618152427626481 
993	 0.619292912928787 
994	 0.617749526525478 
995	 0.617716853870104 
996	 0.619795975885438 
997	 0.62091663663434 
998	 0.618710248729683 
999	 0.620751364747893 
1000	 0.622196007196207 
1001	 0.617729125624569 
1002	 0.618287652736988 
1003	 0.618870111835698 
1004	 0.619365385085868 
1005	 0.620022267457659 
1006	 0.620749801994205 
1007	 0.621447144250751 
1008	 0.622267940403006 
1009	 0.623042366547012 
1010	 0.623767364133938 
1011	 0.624520266591849 
1012	 0.625251910093268 
1013	 0.625851850436762 
1014	 0.626367913501916 
1015	 0.626931931594534 
1016	 0.627629524195209 
1017	 0.628396898324204 
1018	 0.629100709302624 
1019	 0.629829302281442 
1020	 0.630526656568969 
1021	 0.63119104936202 
1022	 0.631803887355319 
1023	 0.632313483338724 
1024	 0.63308665431687 
1025	 0.633815204405093 
1026	 0.634369653476326 
1027	 0.635191286902639 
1028	 0.635850229363427 
1029	 0.63620633477687 
1030	 0.636859716347821 
1031	 0.637434477335515 
1032	 0.63789280201784 
1033	 0.638446714217461 
1034	 0.639099198235966 
1035	 0.639659845093881 
1036	 0.640218880601168 
1037	 0.640735965042787 
1038	 0.641232523058738 
1039	 0.641688875168527 
1040	 0.642146497175452 
1041	 0.642585110370645 
1042	 0.642972429996805 
1043	 0.643451193235118 
1044	 0.643828770634755 
1045	 0.644173662190688 
1046	 0.644498842953827 
1047	 0.644762974844191 
1048	 0.6450566061955 
1049	 0.645290189689758 
1050	 0.645600155403698 
1051	 0.645994429335254 
1052	 0.646348398996084 
1053	 0.646567015652856 
1054	 0.646818328770907 
1055	 0.647016293339099 
1056	 0.647161409029262 
1057	 0.647314561923965 
1058	 0.64755605591103 
1059	 0.647736809168259 
1060	 0.647759100267678 
1061	 0.64787983980437 
1062	 0.648016744231365 
1063	 0.648018664360035 
1064	 0.648054516463488 
1065	 0.648157542551255 
1066	 0.648295274909655 
1067	 0.648377258559255 
1068	 0.648513998298722 
1069	 0.648685045023967 
1070	 0.648664647559099 
1071	 0.648547378163932 
1072	 0.648455600028524 
1073	 0.648324753727756 
1074	 0.64831119225799 
1075	 0.648384542014817 
1076	 0.648407777125407 
1077	 0.64832955909496 
1078	 0.648069069431755 
1079	 0.647851347595843 
1080	 0.647636115770048 
1081	 0.647425143543316 
1082	 0.647248176387079 
1083	 0.647193829386287 
1084	 0.646922615300914 
1085	 0.646689639110355 
1086	 0.646557638607903 
1087	 0.646252108207197 
1088	 0.645940807041056 
1089	 0.645712173091379 
1090	 0.645499116067714 
1091	 0.645233559169149 
1092	 0.644957974409426 
1093	 0.644552730117034 
1094	 0.644005722391537 
1095	 0.643472549405663 
1096	 0.642937304409305 
1097	 0.642428020950315 
1098	 0.641941543466618 
1099	 0.641462687054967 
1100	 0.640898755248326 
1101	 0.640410152692339 
1102	 0.639854928355289 
1103	 0.639161261713782 
1104	 0.638501460789757 
1105	 0.637790419985615 
1106	 0.636928494623791 
1107	 0.63610522228842 
1108	 0.635259641762099 
1109	 0.634230175361536 
1110	 0.633207033076339 
1111	 0.632140245411843 
1112	 0.630932503154936 
1113	 0.62960906808257 
1114	 0.628156846251588 
1115	 0.626661997074265 
1116	 0.624949521189474 
1117	 0.623218080973306 
1118	 0.62163884771202 
1119	 0.620027429928701 
1120	 0.618177218087545 
1121	 0.616333598463696 
1122	 0.614574363503192 
1123	 0.613017353787434 
1124	 0.611839839642011 
1125	 0.610672114722194 
1126	 0.609393529597262 
1127	 0.60826430530852 
1128	 0.606919569738837 
1129	 0.605642530284834 
1130	 0.604092159843121 
1131	 0.602502632502693 
1132	 0.600705075113935 
1133	 0.598723577935907 
1134	 0.596653189551432 
1135	 0.594531484474081 
1136	 0.592371423134942 
1137	 0.590092690048616 
1138	 0.587608162732004 
1139	 0.5847902969597 
1140	 0.581776610248097 
1141	 0.578583799902123 
1142	 0.575270772473558 
1143	 0.572121995270037 
1144	 0.569000341676649 
1145	 0.56587584748274 
1146	 0.562713465171041 
1147	 0.559794907101766 
1148	 0.556960588235567 
1149	 0.554440001681733 
1150	 0.552073029175609 
1151	 0.550227396283782 
1152	 0.548770698826329 
1153	 0.547616721596253 
1154	 0.546860230482512 
1155	 0.546276190116351 
1156	 0.545704359796288 
1157	 0.545224086164553 
1158	 0.544803137608292 
1159	 0.544440900438259 
1160	 0.544127548247865 
1161	 0.543871895894157 
1162	 0.543638995825009 
1163	 0.543440036785491 
1164	 0.543261957260398 
1165	 0.543164410228877 
1166	 0.542967790873813 
1167	 0.542692800585625 
1168	 0.542505520655248 
1169	 0.542312615763348 
1170	 0.542129630272657 
1171	 0.541978934286301 
1172	 0.541824342677769 
1173	 0.54162894583657 
1174	 0.541393453275585 
1175	 0.541216326641579 
1176	 0.540995958562055 
1177	 0.540754440638493 
1178	 0.540479378614629 
1179	 0.540219170542911 
1180	 0.53991797632398 
1181	 0.539690108418174 
1182	 0.539492140411895 
1183	 0.539274303717099 
1184	 0.539104413158303 
1185	 0.53889787784254 
1186	 0.538665288931571 
1187	 0.538448320422853 
1188	 0.538218654999303 
1189	 0.537993843353633 
1190	 0.53785668138563 
1191	 0.537727504755462 
1192	 0.537609850159272 
1193	 0.537536261819956 
1194	 0.53741463997363 
1195	 0.537205370190065 
1196	 0.537126771747208 
1197	 0.53707875272605 
1198	 0.537098214009991 
1199	 0.537237761305006 
1200	 0.537325242448935 
1201	 0.537378650021345 
1202	 0.537539138921221 
1203	 0.537748792848061 
1204	 0.537964610790113 
1205	 0.538268384816313 
1206	 0.538553500958074 
1207	 0.538794169053594 
1208	 0.539088611635478 
1209	 0.539400460579119 
1210	 0.539775942308172 
1211	 0.540225161392859 
1212	 0.5407011995909 
1213	 0.541087435488622 
1214	 0.541468966819957 
1215	 0.541867221790383 
1216	 0.54218770999016 
1217	 0.542573372175818 
1218	 0.543031410195082 
1219	 0.543472154790679 
1220	 0.543905546962485 
1221	 0.544335753375406 
1222	 0.544847863458274 
1223	 0.545245887738779 
1224	 0.545511590307997 
1225	 0.545877410112089 
1226	 0.546216153547778 
1227	 0.546601933172936 
1228	 0.547050681513759 
1229	 0.547561555542463 
1230	 0.547980901258597 
1231	 0.548389710444189 
1232	 0.548769212458571 
1233	 0.54907587933383 
1234	 0.549485299047524 
1235	 0.549945215922425 
1236	 0.55034496201585 
1237	 0.550806151277593 
1238	 0.55116810609472 
1239	 0.551389715636182 
1240	 0.551734803199699 
1241	 0.552127302762851 
1242	 0.552477444457559 
1243	 0.55288290989875 
1244	 0.553228624549998 
1245	 0.553487349005413 
1246	 0.553793448213474 
1247	 0.554126647406206 
1248	 0.554431072138868 
1249	 0.554714189935126 
1250	 0.555019391863064 
1251	 0.555332331424633 
1252	 0.555656494189462 
1253	 0.555892379471417 
1254	 0.556118482538797 
1255	 0.55631272599981 
1256	 0.556397403738684 
1257	 0.556563619501917 
1258	 0.556793753875099 
1259	 0.556949337754773 
1260	 0.557092475632972 
1261	 0.557194806807708 
1262	 0.557256655366019 
1263	 0.557295487777813 
1264	 0.557260721487164 
1265	 0.55728072515023 
1266	 0.557325564292572 
1267	 0.557321278370328 
1268	 0.557405509340222 
1269	 0.557332155923891 
1270	 0.557132872562666 
1271	 0.556910165388612 
1272	 0.556587050342088 
1273	 0.556227973942887 
1274	 0.555929535483662 
1275	 0.555633783293837 
1276	 0.555343670950334 
1277	 0.555100373802762 
1278	 0.554782754956307 
1279	 0.554441225177551 
1280	 0.554068398194736 
1281	 0.553691768427904 
1282	 0.553216729724488 
1283	 0.552683411321808 
1284	 0.552118842957611 
1285	 0.551466614949334 
1286	 0.550820263463928 
1287	 0.550154163042445 
1288	 0.549475774812025 
1289	 0.548795483127436 
1290	 0.548055425714918 
1291	 0.547278753632685 
1292	 0.546481476051744 
1293	 0.545633235267432 
1294	 0.544753346612363 
1295	 0.543845767324305 
1296	 0.542925935367789 
1297	 0.541917380477975 
1298	 0.540847543384268 
1299	 0.539714299508981 
1300	 0.538521531961684 
1301	 0.537248999164134 
1302	 0.535876402906044 
1303	 0.534497599305416 
1304	 0.533064940574822 
1305	 0.531567338998725 
1306	 0.530029759515229 
1307	 0.528427966349756 
1308	 0.526745595795763 
1309	 0.52501082070647 
1310	 0.523216154286206 
1311	 0.521377554116404 
1312	 0.519470677711858 
1313	 0.517512881123827 
1314	 0.515524687133043 
1315	 0.513474504369936 
1316	 0.511370784977804 
1317	 0.509204111881834 
1318	 0.506962479153959 
1319	 0.504685890145886 
1320	 0.502294484114714 
1321	 0.499900047717117 
1322	 0.497485127038981 
1323	 0.495007563273304 
1324	 0.492508438243267 
1325	 0.489942418506244 
1326	 0.487339659895988 
1327	 0.48467084715535 
1328	 0.481890514531376 
1329	 0.478974286341492 
1330	 0.476098654913188 
1331	 0.473157773906119 
1332	 0.470235157301827 
1333	 0.467352978341967 
1334	 0.464534385465137 
1335	 0.461604572672322 
1336	 0.458981584640491 
1337	 0.4565537579856 
1338	 0.454148923311426 
1339	 0.451848051386398 
1340	 0.449544268512162 
1341	 0.447032587885615 
1342	 0.444614575836104 
1343	 0.441962569682105 
1344	 0.439373070590946 
1345	 0.436496971016536 
1346	 0.433683910600837 
1347	 0.430871320308108 
1348	 0.42779569229958 
1349	 0.424647292141787 
1350	 0.421489121569666 
1351	 0.417909225096109 
1352	 0.414463038001832 
1353	 0.410162272554232 
1354	 0.406308033591115 
1355	 0.400883988384203 
1356	 0.396388376197468 
1357	 0.389392250195153 
1358	 0.384068797038344 
1359	 0.375869941456373 
1360	 0.3756219759538 
1361	 0.368921531418281 
1362	 0.369522275379536 
1363	 0.365102527739363 
1364	 0.361410737681656 
1365	 0.353705846264685 
1366	 0.354930060006686 
1367	 0.344022899663896 
1368	 0.323333034713449 
1369	 0.315230127259458 
1370	 0.309884516228589 
1371	 0.306863966277174 
1372	 0.309681580639633 
1373	 0.309617263940749 
1374	 0.308099501891832 
1375	 0.306790409917287 
1376	 0.305085532098451 
1377	 0.301048655045394 
1378	 0.297976728414399 
1379	 0.29487902636132 
1380	 0.288365404664777 
1381	 0.281939544240516 
1382	 0.272180537773803 
1383	 0.258781478849733 
1384	 0.24789715821481 
1385	 0.236311231340576 
1386	 0.228761894775287 
1387	 0.225001966413917 
1388	 0.218926422743559 
1389	 0.213554554352083 
1390	 0.209238606724779 
1391	 0.205019977893898 
1392	 0.200072191267438 
1393	 0.196422831256434 
1394	 0.19109731808294 
1395	 0.182848766692852 
1396	 0.177392024275307 
1397	 0.17326149146534 
1398	 0.168651324490564 
1399	 0.164668618158456 
1400	 0.160698684660086 
1401	 0.156860762949005 
1402	 0.152548728027699 
1403	 0.148609814415716 
1404	 0.144805279144281 
1405	 0.140990422003598 
1406	 0.137190437037137 
1407	 0.133876411421562 
1408	 0.130147476186343 
1409	 0.127387164537379 
1410	 0.12561050595064 
1411	 0.123968822541599 
1412	 0.123294099747501 
1413	 0.1218302900901 
1414	 0.120273292763868 
1415	 0.118683657520047 
1416	 0.116828940776632 
1417	 0.115623012760888 
1418	 0.114608160289233 
1419	 0.113499472641217 
1420	 0.112651635230401 
1421	 0.111757753594085 
1422	 0.110681926092935 
1423	 0.109820115214357 
1424	 0.109116032029609 
1425	 0.108416172851282 
1426	 0.107705634016958 
1427	 0.107029686121146 
1428	 0.106283422208286 
1429	 0.105757807250563 
1430	 0.105336007389546 
1431	 0.104870172799658 
1432	 0.104561793266596 
1433	 0.104154178276387 
1434	 0.103587282737723 
1435	 0.103131779792215 
1436	 0.102819965990219 
1437	 0.10239133104549 
1438	 0.101851577466344 
1439	 0.101454270039006 
1440	 0.100979957856322 
1441	 0.100704202018691 
1442	 0.100659924728341 
1443	 0.10059613016633 
1444	 0.100511360172219 
1445	 0.100415444378413 
1446	 0.10050045868397 
1447	 0.100679387238896 
1448	 0.100775787457823 
1449	 0.100977059758195 
1450	 0.101118990554604 
1451	 0.101127588879391 
1452	 0.101285892524541 
1453	 0.101558508488786 
1454	 0.101748027303497 
1455	 0.101921199936888 
1456	 0.102110951079939 
1457	 0.102321767027607 
1458	 0.102492837208497 
1459	 0.10266482102163 
1460	 0.102842700230093 
1461	 0.102961446865343 
1462	 0.103221325917028 
1463	 0.103534310610258 
1464	 0.103952637421919 
1465	 0.104501003808591 
1466	 0.105118756691301 
1467	 0.105857324286554 
1468	 0.106635114216756 
1469	 0.107428373608649 
1470	 0.108356456260065 
1471	 0.10936899327722 
1472	 0.110355838125406 
1473	 0.111302676445724 
1474	 0.112377185448403 
1475	 0.113457527844378 
1476	 0.11454185581367 
1477	 0.115678599717855 
1478	 0.11685371765274 
1479	 0.117981728041183 
1480	 0.119149304446852 
1481	 0.120296722646578 
1482	 0.121588742743435 
1483	 0.122914027399452 
1484	 0.124298159019593 
1485	 0.125821658952626 
1486	 0.127302947347486 
1487	 0.128743416163697 
1488	 0.130172129212358 
1489	 0.131664721081192 
1490	 0.133087513346752 
1491	 0.134558871622824 
1492	 0.136019299113656 
1493	 0.137425035246674 
1494	 0.1388171829126 
1495	 0.140182040377248 
1496	 0.14151496583761 
1497	 0.14291828678545 
1498	 0.144343351927463 
1499	 0.145830694019654 
1500	 0.147401709236513 
1501	 0.148966882543487 
1502	 0.150600491755428 
1503	 0.152195480505095 
1504	 0.153808581204758 
1505	 0.155378295682634 
1506	 0.156891055022664 
1507	 0.15847185087768 
1508	 0.160048252742038 
1509	 0.16164978166137 
1510	 0.163315406446081 
1511	 0.164924403385859 
1512	 0.166536953443298 
1513	 0.168104489765718 
1514	 0.169607949420212 
1515	 0.171208509687004 
1516	 0.172850084294005 
1517	 0.174473651669575 
1518	 0.176161475162233 
1519	 0.177837183556545 
1520	 0.179493898464233 
1521	 0.181152213752395 
1522	 0.182868435696741 
1523	 0.184509766053396 
1524	 0.186069939877418 
1525	 0.187695955523347 
1526	 0.18932689520109 
1527	 0.190989472629091 
1528	 0.192742728244298 
1529	 0.194406652661258 
1530	 0.196024435789145 
1531	 0.197670941553005 
1532	 0.19928225426723 
1533	 0.200923774525801 
1534	 0.202640930575373 
1535	 0.20429089391918 
1536	 0.205896522025283 
1537	 0.207517817847645 
1538	 0.209094407931377 
1539	 0.210721955215542 
1540	 0.212409090626382 
1541	 0.214057973786958 
1542	 0.215714276929085 
1543	 0.217354579729285 
1544	 0.218996155411931 
1545	 0.220587296981121 
1546	 0.222126455385104 
1547	 0.22370232645983 
1548	 0.22523680776022 
1549	 0.226811933324136 
1550	 0.228507295197354 
1551	 0.230101460979139 
1552	 0.231647239179022 
1553	 0.233186505039969 
1554	 0.234678857569344 
1555	 0.236145167978327 
1556	 0.237576234926951 
1557	 0.239029403933809 
1558	 0.240483102452355 
1559	 0.241899953401456 
1560	 0.24331675729586 
1561	 0.244737025733834 
1562	 0.246142589989616 
1563	 0.247518739682382 
1564	 0.248893623920671 
1565	 0.250263974978007 
1566	 0.25169153208089 
1567	 0.253066598518407 
1568	 0.254474192128002 
1569	 0.255963430798826 
1570	 0.257319317112171 
1571	 0.258593028200307 
1572	 0.259905487282942 
1573	 0.261151252768929 
1574	 0.262499984366356 
1575	 0.26388143642535 
1576	 0.265258495394457 
1577	 0.26669819835187 
1578	 0.267979187853234 
1579	 0.269170162692393 
1580	 0.270402858664696 
1581	 0.271572209438127 
1582	 0.272732343633704 
1583	 0.273936653453769 
1584	 0.275035039806594 
1585	 0.275997590520118 
1586	 0.277120292771346 
1587	 0.278303451199359 
1588	 0.279414702017139 
1589	 0.280593404931174 
1590	 0.28165194416229 
1591	 0.282598182448115 
1592	 0.283599832761872 
1593	 0.284587844332289 
1594	 0.285599734757312 
1595	 0.286628649353247 
1596	 0.287636825335027 
1597	 0.288665243053976 
1598	 0.289648854429559 
1599	 0.290614812882981 
1600	 0.291545595665088 
1601	 0.292421567264585 
1602	 0.293368284992911 
1603	 0.294309008240923 
1604	 0.295273362812945 
1605	 0.296314928137913 
1606	 0.29724566794231 
1607	 0.298117966373399 
1608	 0.299001934146671 
1609	 0.299841574777227 
1610	 0.300678175723481 
1611	 0.301512448495551 
1612	 0.302333484298933 
1613	 0.303114854134723 
1614	 0.303929119216103 
1615	 0.304758994461453 
1616	 0.305572773848554 
1617	 0.306408100857554 
1618	 0.307167077198634 
1619	 0.307872678474487 
1620	 0.308620617551277 
1621	 0.309363263965603 
1622	 0.310058494088463 
1623	 0.310759145424223 
1624	 0.311451100301293 
1625	 0.312089328209875 
1626	 0.312732951796578 
1627	 0.313400374848315 
1628	 0.31405696253897 
1629	 0.314676068982763 
1630	 0.315320107698939 
1631	 0.316041859957645 
1632	 0.316635784131042 
1633	 0.317137919785109 
1634	 0.317715141412669 
1635	 0.318251090010328 
1636	 0.318869259771325 
1637	 0.31959365257807 
1638	 0.320198336781598 
1639	 0.320756809993069 
1640	 0.321365928237115 
1641	 0.321968220031777 
1642	 0.322516834448216 
1643	 0.323089000159766 
1644	 0.323595995410134 
1645	 0.324003797772278 
1646	 0.324436900870792 
1647	 0.324895467017852 
1648	 0.325283020908358 
1649	 0.325573664410908 
1650	 0.325981835194537 
1651	 0.32642746883446 
1652	 0.326798458657487 
1653	 0.327237516749608 
1654	 0.327525685215251 
1655	 0.32764129415537 
1656	 0.327964437110506 
1657	 0.328310623875957 
1658	 0.328685676397931 
1659	 0.329113204392211 
1660	 0.329458208076203 
1661	 0.329806863637581 
1662	 0.330056658670348 
1663	 0.330320574455166 
1664	 0.330543114325048 
1665	 0.330722022195762 
1666	 0.331016237337688 
1667	 0.331298361539127 
1668	 0.331532197060438 
1669	 0.33171736068492 
1670	 0.331867207755867 
1671	 0.332051461650473 
1672	 0.332164830780028 
1673	 0.332225547408825 
1674	 0.332279815887333 
1675	 0.332315334534728 
1676	 0.332485430468274 
1677	 0.332638193166284 
1678	 0.332775990130693 
1679	 0.332948346995165 
1680	 0.332869332595498 
1681	 0.332769563422599 
1682	 0.332703661610737 
1683	 0.332507363336499 
1684	 0.332441151223231 
1685	 0.332395913773849 
1686	 0.332213295363912 
1687	 0.331944549077343 
1688	 0.331655903132718 
1689	 0.331490148750777 
1690	 0.3313304375474 
1691	 0.331151653382716 
1692	 0.330935919025257 
1693	 0.330699642318323 
1694	 0.330474615254397 
1695	 0.330248285809484 
1696	 0.330051028396562 
1697	 0.329776374426851 
1698	 0.329470047641822 
1699	 0.329109056506623 
1700	 0.328572977601135 
1701	 0.328170092150592 
1702	 0.327843735169175 
1703	 0.327485148364152 
1704	 0.327239574600701 
1705	 0.326878815498189 
1706	 0.326354541909412 
1707	 0.325931508621983 
1708	 0.325526628282745 
1709	 0.3250995072538 
1710	 0.324805353239212 
1711	 0.324323750298539 
1712	 0.323709899683823 
1713	 0.323091906320678 
1714	 0.322350634301016 
1715	 0.321670689502866 
1716	 0.320958195177382 
1717	 0.320332985592584 
1718	 0.319786415267613 
1719	 0.319158908894609 
1720	 0.318566596742876 
1721	 0.317903233607996 
1722	 0.317148644664832 
1723	 0.316420117564633 
1724	 0.315699055067688 
1725	 0.314927434506901 
1726	 0.314126079624309 
1727	 0.313312738897083 
1728	 0.312477060864658 
1729	 0.311619948164627 
1730	 0.3107359852905 
1731	 0.309769479430005 
1732	 0.308767301588984 
1733	 0.307741987246682 
1734	 0.306823851582886 
1735	 0.305907443203417 
1736	 0.304879303769281 
1737	 0.303826383160096 
1738	 0.302695600429554 
1739	 0.301483136792105 
1740	 0.300473291071575 
1741	 0.299431765808589 
1742	 0.298245784300909 
1743	 0.297084976343662 
1744	 0.295889465620891 
1745	 0.2948218789729 
1746	 0.293717815084836 
1747	 0.292623953783481 
1748	 0.291535679481066 
1749	 0.290239090283217 
1750	 0.288983523173045 
1751	 0.287632593481303 
1752	 0.286299256585083 
1753	 0.285143007125307 
1754	 0.283908932367289 
1755	 0.282772423180448 
1756	 0.281584841834805 
1757	 0.280215488033923 
1758	 0.278999680307891 
1759	 0.277799368912352 
1760	 0.276642617378607 
1761	 0.275638196025996 
1762	 0.274434521164596 
1763	 0.273172260989202 
1764	 0.272008032883163 
1765	 0.270687437356689 
1766	 0.269565399030672 
1767	 0.26858192755952 
1768	 0.267543174001449 
1769	 0.266563600019435 
1770	 0.265706606156531 
1771	 0.265017069931947 
1772	 0.264047921364032 
1773	 0.262960135494272 
1774	 0.261687902265821 
1775	 0.260690377456763 
1776	 0.260093353238006 
1777	 0.259584746655622 
1778	 0.25917516997312 
1779	 0.258611071788322 
1780	 0.257935182129035 
1781	 0.257332516352001 
1782	 0.256866875184905 
1783	 0.256420050929796 
1784	 0.255903252447321 
1785	 0.255430048132649 
1786	 0.254867883079989 
1787	 0.254272874769351 
1788	 0.253730175074852 
1789	 0.253142288628822 
1790	 0.252494833326099 
1791	 0.25184391426555 
1792	 0.251101435050005 
1793	 0.25044832519689 
1794	 0.249967320889436 
1795	 0.249359429696891 
1796	 0.248767157539271 
1797	 0.248158438984115 
1798	 0.247593611885605 
1799	 0.247338598187529 
1800	 0.247799500247373 
1801	 0.248173095669525 
1802	 0.247962568144193 
1803	 0.24762043005921 
1804	 0.246442145035601 
1805	 0.245387628773188 
1806	 0.244145174652892 
1807	 0.24360229843742 
1808	 0.243283484448868 
1809	 0.242784984660796 
1810	 0.242415937624677 
1811	 0.2430695322684 
1812	 0.243053460980413 
1813	 0.242451163950859 
1814	 0.241873976557019 
1815	 0.242083124131295 
1816	 0.241199344362984 
1817	 0.23819745958521 
1818	 0.236162384320978 
1819	 0.234188152778967 
1820	 0.231626124094968 
1821	 0.230169236490757 
1822	 0.230296461225813 
1823	 0.230018757466178 
1824	 0.231229519324096 
1825	 0.231046269818921 
1826	 0.230793666501939 
1827	 0.229568628309563 
1828	 0.227072217930342 
1829	 0.219459149598385 
1830	 0.217955921751366 
1831	 0.22072496565186 
1832	 0.221415200992821 
1833	 0.23406906626837 
1834	 0.239387375825529 
1835	 0.23004296194286 
1836	 0.224050145646873 
1837	 0.212456591081147 
1838	 0.201415640467006 
1839	 0.19106347897405 
1840	 0.1766791034771 
1841	 0.182469300604247 
1842	 0.213788699280888 
1843	 0.218056205437481 
1844	 0.225295474886482 
1845	 0.225109253346045 
1846	 0.209903677592016 
1847	 0.19135522572592 
1848	 0.169607416840991 
1849	 0.13691538100676 
1850	 0.128785005961454 
1851	 0.110296906622216 
1852	 0.12367155800849 
1853	 0.201930783785064 
1854	 0.214596751216467 
1855	 0.192788900201413 
1856	 0.196439368220946 
1857	 0.196022692570046 
1858	 0.174392956269535 
1859	 0.17482974662075 
1860	 0.205726232069258 
1861	 0.212989913449861 
1862	 0.210052250620561 
1863	 0.202352740573502 
1864	 0.193741715520288 
1865	 0.179510442249242 
1866	 0.132515508610365 
1867	 0.115806779111816 
1868	 0.14518332117854 
1869	 0.137054739129325 
1870	 0.133978564514957 
1871	 0.159090965593861 
1872	 0.154074102979595 
1873	 0.112390053336334 
1874	 9.98214114697526E-02 
1875	 0.102501268688091 
1876	 9.87185770485655E-02 
1877	 0.096279216533962 
1878	 9.17227863977451E-02 
1879	 9.18695920784647E-02 
1880	 8.74711128476814E-02 
1881	 8.23684364532495E-02 
1882	 7.53376246644778E-02 
1883	 6.94538929938658E-02 
1884	 6.20681443726986E-02 
1885	 5.64748286032936E-02 
1886	 4.85176496548374E-02 
1887	 4.56738395175376E-02 
1888	 4.52681167939929E-02 
1889	 4.85978014082616E-02 
1890	 5.08909408395449E-02 
1891	 5.69540126556857E-02 
1892	 6.03775695657848E-02 
1893	 6.59067039094131E-02 
1894	 0.063528022811557 
1895	 5.14855152123137E-02 
1896	 4.81801503575346E-02 
1897	 4.35410411517631E-02 
1898	 3.84262726653355E-02 
1899	 3.59302411868403E-02 
1900	 4.17504205898225E-02 
1901	 4.43744260086695E-02 
1902	 3.94891088343101E-02 
1903	 0.035030072827544 
1904	 3.73309595226653E-02 
1905	 3.71632668203519E-02 
1906	 0.032263884294884 
1907	 2.55923064997706E-02 
1908	 0.02476109698424 
1909	 3.10509527478565E-02 
1910	 1.82146426209118E-02 
1911	 1.14021963604778E-02 
1912	 1.28463173666987E-02 
1913	 1.60534069553757E-02 
1914	 1.59434896203794E-02 
1915	 2.16812390271351E-02 
1916	 2.20589488348613E-02 
1917	 1.95543698798061E-02 
1918	 1.74731359407039E-02 
1919	 0.015163096114238 
1920	 8.47169143908439E-03 
1921	 6.70421529297868E-03 
1922	 6.88380410272913E-03 
1923	 9.40747529065605E-03 
1924	 1.78221841529443E-02 
1925	 2.08693804383401E-02 
1926	 0.023568660366941 
1927	 2.45891698899849E-02 
1928	 2.42431348211915E-02 
1929	 2.15313751542307E-02 
1930	 0.018832349973304 
1931	 1.79434302551788E-02 
1932	 1.62743805242829E-02 
1933	 1.46445832200048E-02 
1934	 1.41408991303935E-02 
1935	 1.42216211708351E-02 
1936	 1.43294353421455E-02 
1937	 1.51860904107292E-02 
1938	 1.56854588729893E-02 
1939	 1.62052616259813E-02 
1940	 1.64155628049526E-02 
1941	 1.76231188701898E-02 
1942	 1.80847346105172E-02 
1943	 1.83827973841292E-02 
1944	 1.97655765784404E-02 
1945	 1.99426660575304E-02 
1946	 1.99229759564103E-02 
1947	 2.03251930870784E-02 
1948	 2.10552852221754E-02 
1949	 2.13181996566907E-02 
1950	 2.15224710564701E-02 
1951	 2.19646524867953E-02 
1952	 2.17555379857437E-02 
1953	 2.18577022834626E-02 
1954	 0.022298554862434 
1955	 2.23110253726721E-02 
1956	 2.16980525457834E-02 
1957	 2.12019453217743E-02 
1958	 2.15171919596199E-02 
1959	 2.20993448596823E-02 
1960	 2.25111687029392E-02 
1961	 2.35248101897518E-02 
1962	 0.024150115511773 
1963	 2.40497608215388E-02 
1964	 2.41190673163742E-02 
1965	 2.43961380980545E-02 
1966	 2.45735219011247E-02 
1967	 0.024614030329281 
1968	 2.47186116577029E-02 
1969	 2.50882653887525E-02 
1970	 2.56293321499232E-02 
1971	 2.62144148161441E-02 
1972	 2.70162640748981E-02 
1973	 2.76608155811584E-02 
1974	 2.82848149280597E-02 
1975	 2.88366376878254E-02 
1976	 2.91427495750256E-02 
1977	 2.94641616224149E-02 
1978	 3.00253051033946E-02 
1979	 3.02033554470278E-02 
1980	 0.030139918311077 
1981	 3.03907117919607E-02 
1982	 3.07193108181553E-02 
1983	 3.10143241246832E-02 
1984	 3.11921951646991E-02 
1985	 3.17627928966458E-02 
1986	 3.23126478106912E-02 
1987	 0.032480971935279 
1988	 3.28631659649173E-02 
1989	 3.33211821160154E-02 
1990	 3.39397279352439E-02 
1991	 3.46139147415936E-02 
1992	 3.52295213507438E-02 
1993	 3.60420871703376E-02 
1994	 3.67001024426019E-02 
1995	 3.72311701114224E-02 
1996	 3.77630618750567E-02 
1997	 3.79221978916596E-02 
1998	 3.78755513692725E-02 
1999	 3.80054850048785E-02 
2000	 3.75676335113305E-02 
2001	 3.81246107936966E-02 
2002	 3.96634140407231E-02 
2003	 0.040631745017372 
2004	 4.19022948216292E-02 
2005	 4.28343994259795E-02 
2006	 4.35125212888618E-02 
2007	 4.32718994554467E-02 
2008	 4.37426871082531E-02 
2009	 4.44248944683343E-02 
2010	 4.56406453854214E-02 
2011	 4.68775067759153E-02 
2012	 0.047259940031484 
2013	 4.78928374663675E-02 
2014	 4.78844298258808E-02 
2015	 4.79371832488431E-02 
2016	 4.85759127624777E-02 
2017	 0.049146696315117 
2018	 5.02716011080491E-02 
2019	 5.09791262853348E-02 
2020	 0.051686537365996 
2021	 0.051906348045312 
2022	 5.22733255338181E-02 
2023	 5.24336368706477E-02 
2024	 5.23764822650128E-02 
2025	 5.29003982287795E-02 
2026	 0.053712114151542 
2027	 5.43644040460843E-02 
2028	 5.53377622588398E-02 
2029	 5.62101531860877E-02 
2030	 5.68930886183737E-02 
2031	 5.77737289753757E-02 
2032	 5.84314333881681E-02 
2033	 0.059083584868942 
2034	 5.95502606653793E-02 
2035	 5.97487464655231E-02 
2036	 5.99759459296702E-02 
2037	 6.04930246752209E-02 
2038	 6.12315201363829E-02 
2039	 6.20309095312051E-02 
2040	 6.27532238212638E-02 
2041	 6.35653343232438E-02 
2042	 6.42004230621338E-02 
2043	 6.49001255545655E-02 
2044	 6.55408678205648E-02 
2045	 6.61421700462043E-02 
2046	 6.64464744584388E-02 
2047	 6.72478216510542E-02 
2048	 6.81779772607459E-02 
2049	 0.068850937742473 
2050	 6.93397727327942E-02 
2051	 6.93132143368251E-02 
2052	 0.069102727319093 
2053	 6.96633765594673E-02 
2054	 0.070562203545396 
2055	 7.13180131257195E-02 
2056	 7.26144796087222E-02 
2057	 7.37052592965364E-02 
2058	 7.44665857404974E-02 
2059	 7.52057965193628E-02 
2060	 7.60620204121352E-02 
2061	 7.64071394632106E-02 
2062	 7.68149513330755E-02 
2063	 7.75730018649601E-02 
2064	 7.85348594158891E-02 
2065	 7.97402523181649E-02 
2066	 8.06083369512264E-02 
2067	 0.081142512257296 
2068	 8.16486078404142E-02 
2069	 8.22918939773557E-02 
2070	 8.30702948965403E-02 
2071	 8.40199597628885E-02 
2072	 8.49548699350437E-02 
2073	 8.60181068296062E-02 
2074	 8.68146543144532E-02 
2075	 8.75364068081856E-02 
2076	 8.82532448023573E-02 
2077	 8.87217973247487E-02 
2078	 8.91516260600938E-02 
2079	 8.97103494722747E-02 
2080	 9.03492959943552E-02 
2081	 9.13567134824337E-02 
2082	 9.23457412418138E-02 
2083	 0.093196526050197 
2084	 9.39864044235409E-02 
2085	 9.46088596908524E-02 
2086	 9.54011186841633E-02 
2087	 9.61369667371322E-02 
2088	 0.09692609970373 
2089	 9.77221901373568E-02 
2090	 9.84568019732748E-02 
2091	 9.91635214929818E-02 
2092	 0.100038805946772 
2093	 0.100859148557548 
2094	 0.101763084346132 
2095	 0.102615560341033 
2096	 0.1032359217639 
2097	 0.104108369268561 
2098	 0.104896961154447 
2099	 0.10538496166122 
2100	 0.105821587801851 
2101	 0.106024286227629 
2102	 0.106584926156562 
2103	 0.107232111561258 
2104	 0.107954105808366 
2105	 0.109027057455022 
2106	 0.110424575412094 
2107	 0.11123411302252 
2108	 0.112242702026458 
2109	 0.113035409886106 
2110	 0.113544708607764 
2111	 0.114207740027814 
2112	 0.114793095144411 
2113	 0.115595005719085 
2114	 0.116446984530254 
2115	 0.11728992919025 
2116	 0.118101174480776 
2117	 0.118908190406726 
2118	 0.119660199694018 
2119	 0.120311612436918 
2120	 0.120919581069323 
2121	 0.121640724862219 
2122	 0.121986403028878 
2123	 0.122609485572254 
2124	 0.123414973559959 
2125	 0.123787428635007 
2126	 0.124367996030369 
2127	 0.125038605050071 
2128	 0.125379206908187 
2129	 0.126261468393006 
2130	 0.127154170429796 
2131	 0.127686436125161 
2132	 0.128654175402393 
2133	 0.12952280259938 
2134	 0.130111172738246 
2135	 0.130509979878519 
2136	 0.131037927305286 
2137	 0.131509592753814 
2138	 0.13201669646791 
2139	 0.132879408943896 
2140	 0.133725405964098 
2141	 0.134083635468169 
2142	 0.134381687868291 
2143	 0.134876984955867 
2144	 0.135309749016605 
2145	 0.135901685435332 
2146	 0.136756725075881 
2147	 0.13736162433573 
2148	 0.137999306856226 
2149	 0.138846589444372 
2150	 0.139287943207244 
2151	 0.139587158666711 
2152	 0.139588076467732 
2153	 0.139700866457413 
2154	 0.139595719170741 
2155	 0.139654374753575 
2156	 0.14032783207183 
2157	 0.141183379886721 
2158	 0.141565922434947 
2159	 0.141944773006207 
2160	 0.142167653603964 
2161	 0.141968396142938 
2162	 0.142221948388976 
2163	 0.142704748714821 
2164	 0.142874714039784 
2165	 0.14312948049773 
2166	 0.143608731536689 
2167	 0.14413286197679 
2168	 0.144511721093564 
2169	 0.144831558198339 
2170	 0.145124745821128 
2171	 0.14529433660362 
2172	 0.145473200898644 
2173	 0.145784832606134 
2174	 0.146513639599538 
2175	 0.147052227743546 
2176	 0.147372939044807 
2177	 0.147586019477719 
2178	 0.147280578394856 
2179	 0.147481344121379 
2180	 0.148041122846432 
2181	 0.14821100498414 
2182	 0.148596494760184 
2183	 0.148865370974334 
2184	 0.148589539542027 
2185	 0.148473762547706 
2186	 0.148409356049516 
2187	 0.148441546899586 
2188	 0.148338036681185 
2189	 0.148473808332947 
2190	 0.148863398114371 
2191	 0.149300131744602 
2192	 0.14948259851261 
2193	 0.149683366439317 
2194	 0.149857754403463 
2195	 0.150134970721437 
2196	 0.150099007388798 
2197	 0.149650893381738 
2198	 0.149369714892141 
2199	 0.148986428736147 
2200	 0.149009784464534 
2201	 0.149349406512487 
2202	 0.149617494411716 
2203	 0.14980285516243 
2204	 0.149608261907181 
2205	 0.149461485586746 
2206	 0.149499754139575 
2207	 0.149615027577689 
2208	 0.149619406865906 
2209	 0.149732007124369 
2210	 0.149785905517651 
2211	 0.149767360062158 
2212	 0.149429742954769 
2213	 0.149421001432393 
2214	 0.149773576062982 
2215	 0.150211422518425 
2216	 0.150914558332591 
2217	 0.15128805023911 
2218	 0.151336310287991 
2219	 0.150969481724834 
2220	 0.149944438572236 
2221	 0.149282567334943 
2222	 0.148713259393102 
2223	 0.147916149486917 
2224	 0.147820659725503 
2225	 0.148260569249084 
2226	 0.14846546259664 
2227	 0.148442858356319 
2228	 0.148614411670885 
2229	 0.148551293677388 
2230	 0.148607962049336 
2231	 0.148474395685212 
2232	 0.148304143182975 
2233	 0.148015151313094 
2234	 0.147555552666966 
2235	 0.146927814353381 
2236	 0.146473886564747 
2237	 0.146575620724 
2238	 0.146185438331277 
2239	 0.145688515602818 
2240	 0.14563681576319 
2241	 0.145441831162537 
2242	 0.145235108183789 
2243	 0.145407528198249 
2244	 0.14530980116753 
2245	 0.145085842858489 
2246	 0.145068799925252 
2247	 0.14474430388605 
2248	 0.144275268445958 
2249	 0.144000346872388 
2250	 0.143308871188742 
2251	 0.142227992836356 
2252	 0.141731613190907 
2253	 0.141297402211679 
2254	 0.140461335784903 
2255	 0.140103548799608 
2256	 0.139845664134171 
2257	 0.139490800732131 
2258	 0.138955158867555 
2259	 0.139110981319871 
2260	 0.139453602736247 
2261	 0.139552571675278 
2262	 0.139344437936499 
2263	 0.138936952613958 
2264	 0.138273424364819 
2265	 0.137525443827205 
2266	 0.136862467615332 
2267	 0.13566011319803 
2268	 0.134153295246096 
2269	 0.133334133195789 
2270	 0.132914354843104 
2271	 0.132658911231881 
2272	 0.133059592723111 
2273	 0.13306229325574 
2274	 0.132175309541936 
2275	 0.131414748280785 
2276	 0.130969353206503 
2277	 0.13013055751938 
2278	 0.129024152105183 
2279	 0.128787438063168 
2280	 0.128865560696518 
2281	 0.128822765387888 
2282	 0.128924458251989 
2283	 0.128073379065692 
2284	 0.127044653207907 
2285	 0.126202818447231 
2286	 0.125384502270614 
2287	 0.124466916942298 
2288	 0.124683624678882 
2289	 0.124796378827027 
2290	 0.124285966583908 
2291	 0.124141926380933 
2292	 0.123495232113801 
2293	 0.122234927494703 
2294	 0.121451345198129 
2295	 0.120775014955419 
2296	 0.120535634482541 
2297	 0.120247949121399 
2298	 0.11942229177436 
2299	 0.118982198499203 
2300	 0.11801345921682 
2301	 0.117287124846431 
2302	 0.116674643860019 
2303	 0.115245064823928 
2304	 0.11367836073044 
2305	 0.111811469124924 
2306	 0.110519440382611 
2307	 0.109623702778656 
2308	 0.109787088083639 
2309	 0.111127497447061 
2310	 0.111135592248228 
2311	 0.111370544316242 
2312	 0.111683859435356 
2313	 0.109768932245947 
2314	 0.10869543496706 
2315	 0.108605165527299 
2316	 0.107116427710065 
2317	 0.106536287446683 
2318	 0.106548421089156 
2319	 0.105424882155608 
2320	 0.104519114186599 
2321	 0.103992270131944 
2322	 0.10366210638884 
2323	 0.103105578567695 
2324	 0.102736975768438 
2325	 0.102620178818697 
2326	 0.10186123803248 
2327	 0.100707575831962 
2328	 9.93310742330267E-02 
2329	 9.84630569633573E-02 
2330	 9.76006196955737E-02 
2331	 9.66688129166885E-02 
2332	 9.76097255429428E-02 
2333	 9.77393546509999E-02 
2334	 9.70848126226191E-02 
2335	 9.70114460665919E-02 
2336	 9.51576543727863E-02 
2337	 9.39992989879935E-02 
2338	 9.37894836319029E-02 
2339	 9.31573030477812E-02 
2340	 9.35731951185564E-02 
2341	 0.093021342836358 
2342	 9.14574166847999E-02 
2343	 9.13881179887906E-02 
2344	 9.14844269385024E-02 
2345	 9.07361716233316E-02 
2346	 9.08507557092955E-02 
2347	 9.05914468100309E-02 
2348	 8.95368656055585E-02 
2349	 8.90757437374538E-02 
2350	 8.81895253688452E-02 
2351	 8.65087580611222E-02 
2352	 8.39385930317353E-02 
2353	 8.21309434729695E-02 
2354	 8.20047081800212E-02 
2355	 8.21721069618466E-02 
2356	 8.19450637890125E-02 
2357	 8.17575079510187E-02 
2358	 8.17696651368966E-02 
2359	 8.09872205019183E-02 
2360	 8.14313544891692E-02 
2361	 8.11772688399097E-02 
2362	 7.92150026189623E-02 
2363	 7.92569998204126E-02 
2364	 7.84551343929385E-02 
2365	 7.80276766672303E-02 
2366	 0.078508750616024 
2367	 7.67646512338213E-02 
2368	 7.55974210109534E-02 
2369	 7.41063688157777E-02 
2370	 7.22528000809688E-02 
2371	 7.05935386934946E-02 
2372	 6.95616510477897E-02 
2373	 6.95008526693603E-02 
2374	 6.91356185127146E-02 
2375	 6.90746928585404E-02 
2376	 6.89930929158723E-02 
2377	 6.80984478775724E-02 
2378	 6.76223666082202E-02 
2379	 6.80465522115937E-02 
2380	 6.83326075971191E-02 
2381	 6.89916412961918E-02 
2382	 6.88927091853841E-02 
2383	 6.80759908778212E-02 
2384	 6.73454916418905E-02 
2385	 6.61503109313079E-02 
2386	 6.53826005966298E-02 
2387	 6.49226538873946E-02 
2388	 6.47830605743402E-02 
2389	 6.51573246067376E-02 
2390	 6.50407971705389E-02 
2391	 6.49061206284899E-02 
2392	 6.48801533026258E-02 
2393	 6.48810931212936E-02 
2394	 6.34351868246372E-02 
2395	 6.08743868976156E-02 
2396	 5.96333757136742E-02 
2397	 5.80793568404867E-02 
2398	 5.72862420178625E-02 
2399	 5.80518851765635E-02 
2400	 5.79199754298271E-02 
2401	 5.72338681419913E-02 
2402	 5.64108300830523E-02 
2403	 5.69094365681819E-02 
2404	 5.74775922171669E-02 
2405	 5.54957340253747E-02 
2406	 5.18700504805097E-02 
2407	 4.74205629514982E-02 
2408	 4.36622556196013E-02 
2409	 4.33944055359486E-02 
2410	 4.33980087842718E-02 
2411	 4.49118763776939E-02 
2412	 4.65470455984523E-02 
2413	 4.75999647075274E-02 
2414	 5.16601552689889E-02 
2415	 0.050352817765992 
2416	 4.71306192039107E-02 
2417	 4.40667770707335E-02 
2418	 4.03143216857571E-02 
2419	 4.17864225974427E-02 
2420	 4.31627831513736E-02 
2421	 4.56235104748847E-02 
2422	 4.80730167998832E-02 
2423	 4.71014478101393E-02 
2424	 4.56425982375864E-02 
2425	 4.31964305646065E-02 
2426	 4.01750972333347E-02 
2427	 3.90579238600575E-02 
2428	 4.09708981539616E-02 
2429	 4.50160575652685E-02 
2430	 0.047470723924723 
2431	 0.045242720839636 
2432	 4.36329082058846E-02 
2433	 4.04403065131483E-02 
2434	 4.01846736794509E-02 
2435	 0.044943209346984 
2436	 4.63492182337361E-02 
2437	 4.79092651756138E-02 
2438	 4.72657295989691E-02 
2439	 4.39621627837022E-02 
2440	 4.19270982828147E-02 
2441	 3.69713604568694E-02 
2442	 3.55013129696427E-02 
2443	 3.97186032162422E-02 
2444	 3.83882536769687E-02 
2445	 3.33467602309209E-02 
2446	 3.34053082534844E-02 
2447	 3.12465299710882E-02 
2448	 2.86417318705978E-02 
2449	 3.25743369183415E-02 
2450	 3.39436436166672E-02 
2451	 3.15783041722226E-02 
2452	 3.03036261576659E-02 
2453	 3.10359015129838E-02 
2454	 3.13804671817051E-02 
2455	 2.97552543402175E-02 
2456	 2.98794823825403E-02 
2457	 3.29925791261446E-02 
2458	 3.04305561302344E-02 
2459	 2.16936726534938E-02 
2460	 2.05505984279416E-02 
2461	 2.09874268965054E-02 
2462	 2.42538220672848E-02 
2463	 3.83354010595552E-02 
2464	 4.08901378777985E-02 
2465	 3.56077800872805E-02 
2466	 3.40688244468304E-02 
2467	 2.71340353880834E-02 
2468	 2.56105652398767E-02 
2469	 3.33196760287184E-02 
2470	 3.24390896271128E-02 
2471	 2.50983238501736E-02 
2472	 2.36712585136657E-02 
2473	 1.73776700158962E-02 
2474	 1.81471804548314E-02 
2475	 3.40871412920607E-02 
2476	 3.50125025793922E-02 
2477	 3.03290146071663E-02 
2478	 2.86811462427862E-02 
2479	 1.59563549330673E-02 
2480	 1.45360486811364E-02 
2481	 2.16730587757572E-02 
2482	 3.50044655874015E-02 
2483	 6.58983895125311E-02 
2484	 7.16422750561534E-02 
2485	 6.83645798333361E-02 
2486	 0.03771909784005 
2487	 1.60580967830699E-02 
2488	 1.31201661375535E-02 
2489	 4.66866672866514E-02 
2490	 6.93173127761285E-02 
2491	 8.20138407917586E-02 
2492	 7.35959648366336E-02 
2493	 3.13966966980744E-02 
2494	 2.13657952686617E-02 
2495	 8.58759805259456E-03 
2496	-9.28224965762719E-04 
2497	 7.39057843754092E-03 
2498	-7.50096842658168E-03 
2499	-5.88923818180604E-03 
2500	 9.49909833971125E-03 
