Wavelength	ref00143.asd
350	 7.82165822990982 
351	 7.86710834944018 
352	 8.12980567539704 
353	 7.98698196309658 
354	 8.16476455859339 
355	 8.35445492876745 
356	 8.29640774663693 
357	 8.24938669664877 
358	 8.40743372337536 
359	 8.50605027623857 
360	 8.30281759124838 
361	 8.31587454110851 
362	 8.40903461558708 
363	 8.49058379849504 
364	 8.51495674939523 
365	 8.52223432409486 
366	 8.53044483745416 
367	 8.55446995008994 
368	 8.61176216366305 
369	 8.58945860680066 
370	 8.58844228972013 
371	 8.66659954708553 
372	 8.59686478709007 
373	 8.50785014565595 
374	 8.49580852233674 
375	 8.59904051897565 
376	 8.56877491945013 
377	 8.50607859042808 
378	 8.4851728688576 
379	 8.50656805037143 
380	 8.47065571165317 
381	 8.41281793821165 
382	 8.38175268708081 
383	 8.3792917959099 
384	 8.40014341431376 
385	 8.41468532708421 
386	 8.38939467855617 
387	 8.34839643098376 
388	 8.22441573818633 
389	 8.11325287556085 
390	 8.23658735601897 
391	 8.20677550354599 
392	 8.16881695035322 
393	 8.22922521130995 
394	 8.19932221243223 
395	 8.13487442621042 
396	 8.08227760853042 
397	 8.06442476761464 
398	 7.99803495757649 
399	 7.98485710790457 
400	 7.98803099000983 
401	 7.87765952507039 
402	 7.87412384190335 
403	 7.88939294193569 
404	 7.85356019959592 
405	 7.8167809817663 
406	 7.77627200085176 
407	 7.7462866761075 
408	 7.73490545875485 
409	 7.70206007976881 
410	 7.66578158081218 
411	 7.6262123267648 
412	 7.57054514506825 
413	 7.54871431142066 
414	 7.54621871940439 
415	 7.53358618553039 
416	 7.46878402909095 
417	 7.42513396376007 
418	 7.40500742642944 
419	 7.38599920198365 
420	 7.35228190000495 
421	 7.3198173946531 
422	 7.29385170290882 
423	 7.2693385911437 
424	 7.24498299078319 
425	 7.21863649436096 
426	 7.19635960690333 
427	 7.2050078799231 
428	 7.18940443011518 
429	 7.15709666685552 
430	 7.13108270944171 
431	 7.08873715347565 
432	 7.04700239689728 
433	 7.01497486389336 
434	 6.99265648795613 
435	 6.97242811046757 
436	 6.95669188783074 
437	 6.94142896864566 
438	 6.90336522072393 
439	 6.88457121356262 
440	 6.86681991668843 
441	 6.82349943184652 
442	 6.79807141646865 
443	 6.7722807793765 
444	 6.74307299966502 
445	 6.7230773893393 
446	 6.69486912411869 
447	 6.66998003177134 
448	 6.65301851598258 
449	 6.62072935876778 
450	 6.58347043629999 
451	 6.55527328628338 
452	 6.54446214977945 
453	 6.51450836262124 
454	 6.4829574639303 
455	 6.45680029113001 
456	 6.42656132736498 
457	 6.39400295460468 
458	 6.36080845915641 
459	 6.32842257796309 
460	 6.29762386092523 
461	 6.26665806174587 
462	 6.23731015705303 
463	 6.21275491519958 
464	 6.19194330348466 
465	 6.16502991358848 
466	 6.13255157486277 
467	 6.11091939155231 
468	 6.08669265631155 
469	 6.06118473941943 
470	 6.03791547546534 
471	 6.01392245574031 
472	 5.98450543268373 
473	 5.95531017688323 
474	 5.93714259107098 
475	 5.91460589826409 
476	 5.89461981126247 
477	 5.87930214133323 
478	 5.85637128732079 
479	 5.83602541051782 
480	 5.81944504965302 
481	 5.80490944551139 
482	 5.7913177476683 
483	 5.78417082139091 
484	 5.77928730555769 
485	 5.76365886236007 
486	 5.74864216455854 
487	 5.73121884944919 
488	 5.71031229623582 
489	 5.69663470917115 
490	 5.67805509310837 
491	 5.66017898579834 
492	 5.65253647048005 
493	 5.64133137963745 
494	 5.62723535539137 
495	 5.61154617624195 
496	 5.5949188314039 
497	 5.58566211689647 
498	 5.57607844524564 
499	 5.56014560227991 
500	 5.55152630032154 
501	 5.53474147160709 
502	 5.51017311863381 
503	 5.48792030169246 
504	 5.47034138718456 
505	 5.44999948509414 
506	 5.42707566404387 
507	 5.41591438701578 
508	 5.3988068027067 
509	 5.37827979718281 
510	 5.36128508888802 
511	 5.3467094821846 
512	 5.3249285617088 
513	 5.29936641585848 
514	 5.28347260776403 
515	 5.26808460039525 
516	 5.25426510888169 
517	 5.24168126576993 
518	 5.22333324214832 
519	 5.19821430710277 
520	 5.17260795828397 
521	 5.15320862407473 
522	 5.13119409275054 
523	 5.11296635563331 
524	 5.10029685041914 
525	 5.0892695350192 
526	 5.07348242386612 
527	 5.05541763958005 
528	 5.03935621441609 
529	 5.02814426949884 
530	 5.01664189440371 
531	 5.00547372941877 
532	 4.99757532201396 
533	 4.9862919535581 
534	 4.97550369367858 
535	 4.96687380412229 
536	 4.95676107478234 
537	 4.94131098562442 
538	 4.92919410345276 
539	 4.92744213049948 
540	 4.91863173774803 
541	 4.90753475853516 
542	 4.89692137045654 
543	 4.8870598171541 
544	 4.87677327752393 
545	 4.86701296449321 
546	 4.85876791850561 
547	 4.85274964457345 
548	 4.8456913959749 
549	 4.83847315419413 
550	 4.83255830850941 
551	 4.821321618628 
552	 4.80941252631426 
553	 4.79999745790359 
554	 4.79348014617812 
555	 4.77778576852384 
556	 4.76062918255871 
557	 4.74943871005168 
558	 4.73442067225087 
559	 4.71798895590255 
560	 4.70236914906608 
561	 4.68921317017123 
562	 4.67730147480468 
563	 4.66234967510059 
564	 4.64515815552513 
565	 4.63622026462669 
566	 4.62553225561152 
567	 4.61059057231665 
568	 4.5930501845539 
569	 4.58089265831891 
570	 4.57067330738602 
571	 4.55936245593875 
572	 4.54512315753859 
573	 4.53236079846031 
574	 4.51936225742585 
575	 4.50471033919994 
576	 4.49084742325727 
577	 4.47694221917412 
578	 4.46405653833035 
579	 4.45342880733728 
580	 4.44167823534018 
581	 4.43029887548859 
582	 4.42073162311481 
583	 4.41375301203966 
584	 4.40561186803236 
585	 4.39545786766702 
586	 4.38398877685907 
587	 4.3738179911879 
588	 4.36382335269488 
589	 4.3545625441942 
590	 4.34780927213735 
591	 4.34193692384534 
592	 4.33968400505701 
593	 4.34031455593957 
594	 4.33603164721148 
595	 4.33441775502625 
596	 4.33497181044855 
597	 4.33440533479482 
598	 4.33014435002416 
599	 4.32545343637576 
600	 4.32193733498819 
601	 4.31923935758744 
602	 4.31673846888424 
603	 4.31493953986515 
604	 4.31434795301399 
605	 4.31522833311802 
606	 4.31415104708172 
607	 4.31315359875885 
608	 4.31575105451262 
609	 4.31435960898548 
610	 4.31074329856749 
611	 4.30690195665552 
612	 4.3037448904627 
613	 4.3019746658049 
614	 4.30037296205788 
615	 4.29760497980471 
616	 4.29415216044568 
617	 4.28999422723816 
618	 4.28510525355212 
619	 4.27931047290416 
620	 4.27136794596705 
621	 4.26330781295089 
622	 4.2564367019304 
623	 4.24996780859069 
624	 4.24398103468985 
625	 4.23658693487178 
626	 4.22658543766549 
627	 4.21934918437123 
628	 4.21097527680738 
629	 4.201429117955 
630	 4.19466938628898 
631	 4.18897877153182 
632	 4.1819538243278 
633	 4.17346884077962 
634	 4.16923399955628 
635	 4.16712523926224 
636	 4.16498844582419 
637	 4.16146668369367 
638	 4.16151775676163 
639	 4.16244663753498 
640	 4.16291781319489 
641	 4.16409244170339 
642	 4.16605193425849 
643	 4.1686027035939 
644	 4.17082390072188 
645	 4.16948315758633 
646	 4.16938035253818 
647	 4.17043884545016 
648	 4.1701140039526 
649	 4.17354454062355 
650	 4.1781146435769 
651	 4.1806640769107 
652	 4.17894049115312 
653	 4.177281370262 
654	 4.17769216972554 
655	 4.18119581647926 
656	 4.18801889243534 
657	 4.19374590724144 
658	 4.19772571730376 
659	 4.20343629872591 
660	 4.21104515235255 
661	 4.21917602350339 
662	 4.22681966339817 
663	 4.23461790072628 
664	 4.24357220045397 
665	 4.25233253388496 
666	 4.25966299223334 
667	 4.26893121173364 
668	 4.27889507953093 
669	 4.28806373390633 
670	 4.29527585699176 
671	 4.30303096470906 
672	 4.3100422234996 
673	 4.31554544210463 
674	 4.32197418593188 
675	 4.32735301619886 
676	 4.33043842706996 
677	 4.33133720352025 
678	 4.3358722095762 
679	 4.34018818566013 
680	 4.34129873665601 
681	 4.33809398141806 
682	 4.33629506857535 
683	 4.32982208719364 
684	 4.31533679173643 
685	 4.3020235718762 
686	 4.28891505312114 
687	 4.27182568013697 
688	 4.24843577869703 
689	 4.23137835969184 
690	 4.20995889479262 
691	 4.18104938310787 
692	 4.15209269802052 
693	 4.11902120273069 
694	 4.08611515286611 
695	 4.05827010458688 
696	 4.03766917308667 
697	 4.0196158915571 
698	 3.9981866015144 
699	 3.96972596051988 
700	 3.94684153548177 
701	 3.92397149587363 
702	 3.90047651590247 
703	 3.88273113021292 
704	 3.86641850037746 
705	 3.84979220400975 
706	 3.83236394732383 
707	 3.81569140993742 
708	 3.8003765155061 
709	 3.7852347732643 
710	 3.76895986580263 
711	 3.75470344864218 
712	 3.73947917318908 
713	 3.72286656489283 
714	 3.70756260894721 
715	 3.68537510040649 
716	 3.65655828571309 
717	 3.62385675315263 
718	 3.59337579493124 
719	 3.57436488467239 
720	 3.56741714021072 
721	 3.56533786096785 
722	 3.5606960458377 
723	 3.54625679736154 
724	 3.52354976956475 
725	 3.50517494414902 
726	 3.491343375015 
727	 3.48035981776445 
728	 3.47005636336221 
729	 3.45985621501133 
730	 3.44964614008734 
731	 3.44182776950411 
732	 3.43856359695493 
733	 3.43722401417642 
734	 3.4323064290541 
735	 3.42309297070251 
736	 3.41329725805944 
737	 3.40510434117057 
738	 3.39697137996545 
739	 3.3880620033602 
740	 3.38087683922918 
741	 3.37464301715884 
742	 3.36790071435936 
743	 3.35959817227073 
744	 3.35130231311903 
745	 3.34282822823875 
746	 3.3346422052702 
747	 3.32753001332333 
748	 3.31995265944662 
749	 3.31108022580876 
750	 3.30156976702379 
751	 3.29427779775684 
752	 3.28700791490165 
753	 3.27995961614742 
754	 3.2732512286291 
755	 3.26438628298015 
756	 3.25598690370273 
757	 3.24719684715785 
758	 3.23583263614169 
759	 3.22958498376247 
760	 3.2215207187363 
761	 3.20692661941164 
762	 3.19627284605252 
763	 3.19306636531007 
764	 3.18948754100753 
765	 3.18283321056625 
766	 3.18145070794254 
767	 3.17610743082969 
768	 3.16900461395156 
769	 3.16401925017014 
770	 3.15760556179336 
771	 3.15045081296417 
772	 3.14399124000348 
773	 3.13949910251728 
774	 3.13029433188202 
775	 3.12230826606435 
776	 3.11786163405907 
777	 3.11003407764183 
778	 3.1025989767152 
779	 3.09596811504359 
780	 3.08976216443983 
781	 3.08385946088702 
782	 3.07817451601394 
783	 3.07230929214793 
784	 3.06562769065203 
785	 3.0570275390029 
786	 3.04858201053591 
787	 3.04089898115237 
788	 3.03279997585783 
789	 3.02369526091313 
790	 3.01587382481916 
791	 3.01026806098497 
792	 3.00396363391556 
793	 2.99874474613048 
794	 2.99354624507249 
795	 2.98671637912127 
796	 2.97751233987835 
797	 2.97067342262746 
798	 2.96564637837502 
799	 2.95903265774085 
800	 2.95225967433813 
801	 2.94490975636025 
802	 2.93787181448111 
803	 2.93328449581569 
804	 2.92840307343591 
805	 2.92280537322423 
806	 2.91696027421666 
807	 2.91220088723561 
808	 2.90523243705855 
809	 2.89749655151359 
810	 2.89034897171125 
811	 2.87856687272443 
812	 2.86579821132697 
813	 2.85291994476477 
814	 2.83955473584601 
815	 2.82846018828899 
816	 2.81891645237309 
817	 2.81110423470247 
818	 2.80631951333986 
819	 2.80570112152317 
820	 2.80594146621242 
821	 2.80391962884954 
822	 2.79806932688882 
823	 2.79148129086744 
824	 2.78604167914736 
825	 2.78274877176612 
826	 2.78105747071825 
827	 2.77833130085263 
828	 2.77387320572865 
829	 2.76820153242472 
830	 2.7619150398535 
831	 2.75863261558743 
832	 2.75710122415932 
833	 2.75310467021545 
834	 2.75040885431618 
835	 2.74847248401552 
836	 2.74663834498418 
837	 2.74469527265672 
838	 2.74235354581728 
839	 2.7387271114694 
840	 2.73360258537096 
841	 2.7280129209801 
842	 2.72556364973547 
843	 2.72322171506222 
844	 2.71796034770891 
845	 2.71367817278267 
846	 2.70879061332436 
847	 2.70439202282098 
848	 2.70168945295564 
849	 2.69650996227532 
850	 2.69023241052876 
851	 2.68484154126857 
852	 2.68204908487059 
853	 2.68019676248561 
854	 2.67633326895053 
855	 2.66957692535009 
856	 2.66191209760333 
857	 2.65797841527292 
858	 2.65437586487007 
859	 2.64937432305018 
860	 2.64608595064082 
861	 2.64096155086838 
862	 2.63668445110947 
863	 2.63525287046466 
864	 2.63335441447392 
865	 2.6292437341392 
866	 2.62486998033601 
867	 2.62206736013819 
868	 2.61657455905454 
869	 2.60977666609036 
870	 2.60458454478592 
871	 2.60274280123061 
872	 2.5974866761062 
873	 2.59407056986204 
874	 2.59148274825008 
875	 2.58499329973975 
876	 2.57995449060535 
877	 2.57617702409278 
878	 2.57257150814735 
879	 2.56795303201106 
880	 2.56417332284045 
881	 2.55994496504997 
882	 2.55512448706803 
883	 2.5515645278268 
884	 2.54791242129175 
885	 2.54395797327727 
886	 2.53995972789509 
887	 2.53663081648249 
888	 2.53173525208523 
889	 2.52615154892483 
890	 2.52072314310994 
891	 2.51412150635505 
892	 2.50647550031616 
893	 2.49789288780447 
894	 2.48861304127266 
895	 2.47890873325939 
896	 2.47257712202395 
897	 2.46623997664856 
898	 2.45626196618506 
899	 2.45277067490873 
900	 2.44961916622832 
901	 2.44529741472535 
902	 2.44166888599647 
903	 2.44285900090093 
904	 2.4387804308932 
905	 2.43127246810484 
906	 2.42881086707379 
907	 2.42906744492506 
908	 2.42080353396595 
909	 2.40884263746972 
910	 2.40869637234429 
911	 2.40298171528281 
912	 2.39707163110876 
913	 2.39214895245927 
914	 2.38442875814238 
915	 2.3853781497583 
916	 2.38331658597497 
917	 2.37816613578567 
918	 2.38386762252253 
919	 2.38277150911182 
920	 2.38118179670718 
921	 2.38114415286992 
922	 2.37547334035021 
923	 2.37380877052553 
924	 2.3704715025053 
925	 2.36201052263561 
926	 2.35258120839364 
927	 2.34086583533096 
928	 2.33040949792826 
929	 2.32119219584806 
930	 2.30524126033213 
931	 2.29578154308741 
932	 2.28334930999129 
933	 2.262854623486 
934	 2.25227174310118 
935	 2.24802927879958 
936	 2.24005224056819 
937	 2.2287890327045 
938	 2.23567509715196 
939	 2.23584741100434 
940	 2.23856808854307 
941	 2.24871608480056 
942	 2.24862810884076 
943	 2.24725553665893 
944	 2.24954159249636 
945	 2.25206112412105 
946	 2.23615926016956 
947	 2.23121089640747 
948	 2.23044351698553 
949	 2.22624827903521 
950	 2.22979304674608 
951	 2.23705795553168 
952	 2.24013997661713 
953	 2.23546493262349 
954	 2.22992049377108 
955	 2.2331006192663 
956	 2.23954087919421 
957	 2.24264440057445 
958	 2.24245644197922 
959	 2.24557983388022 
960	 2.2506090384008 
961	 2.25448221885097 
962	 2.25536584258439 
963	 2.26634727145313 
964	 2.27068740273665 
965	 2.26412866009197 
966	 2.27274879509384 
967	 2.27967022899552 
968	 2.28017281303119 
969	 2.27541298222117 
970	 2.27148722888814 
971	 2.28236144666328 
972	 2.28597005974122 
973	 2.27650773393224 
974	 2.28010292513854 
975	 2.278709725202 
976	 2.2734319120968 
977	 2.27035609747754 
978	 2.27551603440031 
979	 2.27473444596421 
980	 2.27195941120422 
981	 2.27148236368556 
982	 2.27312931069248 
983	 2.26333711917649 
984	 2.26158661807025 
985	 2.26908571651563 
986	 2.26865637517555 
987	 2.27021329698006 
988	 2.26392701835112 
989	 2.25669221755677 
990	 2.26373328660203 
991	 2.26197096589596 
992	 2.26424502273789 
993	 2.26973669791603 
994	 2.26911442534727 
995	 2.26705275313691 
996	 2.25463902162684 
997	 2.24717046345077 
998	 2.25889846523546 
999	 2.2518244397892 
1000	 2.24222274791723 
1001	 2.28375440404796 
1002	 2.28151855636319 
1003	 2.27891798400648 
1004	 2.27609777045001 
1005	 2.27329014539683 
1006	 2.27079959568606 
1007	 2.2681858057468 
1008	 2.26552098069595 
1009	 2.26209993648502 
1010	 2.25864124206727 
1011	 2.25484606485713 
1012	 2.2496693391369 
1013	 2.24599062870962 
1014	 2.2432302640517 
1015	 2.2406399998192 
1016	 2.23823612608783 
1017	 2.2354226768145 
1018	 2.2328860585258 
1019	 2.23032904340676 
1020	 2.22762173675382 
1021	 2.22536881826399 
1022	 2.22251728997228 
1023	 2.21925851366755 
1024	 2.21556510920694 
1025	 2.21230690738982 
1026	 2.20903006666568 
1027	 2.20608631465179 
1028	 2.20383781045164 
1029	 2.20058395667281 
1030	 2.1969211477335 
1031	 2.19392145745998 
1032	 2.19041877297115 
1033	 2.18700380354529 
1034	 2.18388075781587 
1035	 2.18091321778131 
1036	 2.17769062239815 
1037	 2.17445570582332 
1038	 2.17152274295742 
1039	 2.16868380528238 
1040	 2.16477167024149 
1041	 2.1612514583764 
1042	 2.15809755993242 
1043	 2.15529884673753 
1044	 2.15289837685511 
1045	 2.15056070075015 
1046	 2.1476388606522 
1047	 2.14392401451816 
1048	 2.14062950598957 
1049	 2.13829754201538 
1050	 2.13607947342254 
1051	 2.13470019125558 
1052	 2.13252238838172 
1053	 2.13009608248403 
1054	 2.12774560112626 
1055	 2.12494673915446 
1056	 2.12302333739651 
1057	 2.12092731748244 
1058	 2.1188721888363 
1059	 2.11716055637066 
1060	 2.11474283392725 
1061	 2.11277897286012 
1062	 2.1103859954704 
1063	 2.1077260606444 
1064	 2.10645585315087 
1065	 2.10464123101667 
1066	 2.1029644949425 
1067	 2.10137010159977 
1068	 2.09997262117548 
1069	 2.09715146215408 
1070	 2.09556838899081 
1071	 2.09458958003522 
1072	 2.09200528479884 
1073	 2.09026546245765 
1074	 2.08873340107071 
1075	 2.08608061722448 
1076	 2.08356185311976 
1077	 2.08181999131594 
1078	 2.08011618456918 
1079	 2.07834149704291 
1080	 2.07726366812762 
1081	 2.07546761969011 
1082	 2.07327632449291 
1083	 2.07018305192005 
1084	 2.06796908752046 
1085	 2.06624004804139 
1086	 2.06405380679139 
1087	 2.06205852426611 
1088	 2.06019951617043 
1089	 2.05674835939086 
1090	 2.05309715534508 
1091	 2.0504832351396 
1092	 2.04703595448223 
1093	 2.04363429438087 
1094	 2.04083632625755 
1095	 2.03783714526438 
1096	 2.03485671040358 
1097	 2.0324144515703 
1098	 2.02876743882459 
1099	 2.02455032796754 
1100	 2.02024065706892 
1101	 2.01531417896491 
1102	 2.01070558224209 
1103	 2.00735253349827 
1104	 2.00342787430113 
1105	 1.99916319729707 
1106	 1.99513516184769 
1107	 1.99016366948644 
1108	 1.98438864068509 
1109	 1.97859155022914 
1110	 1.97197320488412 
1111	 1.96444118078178 
1112	 1.95521848091473 
1113	 1.94682440107397 
1114	 1.93755236526861 
1115	 1.92790074585791 
1116	 1.91814026346835 
1117	 1.90833761084465 
1118	 1.89744332250626 
1119	 1.88568987550813 
1120	 1.87484171971166 
1121	 1.86554554933295 
1122	 1.85822024927211 
1123	 1.8533117350111 
1124	 1.84994021426446 
1125	 1.84748293257589 
1126	 1.84738790895914 
1127	 1.84926501311149 
1128	 1.85159781481209 
1129	 1.85646406408461 
1130	 1.86053717469163 
1131	 1.8641257225833 
1132	 1.86860728333765 
1133	 1.873823298696 
1134	 1.87905541674111 
1135	 1.88418565712764 
1136	 1.88791239619359 
1137	 1.89139834495139 
1138	 1.89409582004823 
1139	 1.89557562707989 
1140	 1.89680920114106 
1141	 1.89622176400056 
1142	 1.89601466442727 
1143	 1.89647870453651 
1144	 1.89660879575105 
1145	 1.8978156135542 
1146	 1.89980911745868 
1147	 1.9022232160441 
1148	 1.90450081338928 
1149	 1.90862640013098 
1150	 1.9144555899544 
1151	 1.91965907090732 
1152	 1.92508492792085 
1153	 1.93088726706245 
1154	 1.93656084077538 
1155	 1.94191740805443 
1156	 1.94779068049249 
1157	 1.95353253522636 
1158	 1.95920819253351 
1159	 1.96368211044013 
1160	 1.96780717317795 
1161	 1.97188119728707 
1162	 1.97535644447808 
1163	 1.97840382894055 
1164	 1.98069618898155 
1165	 1.98258722472051 
1166	 1.98390069665114 
1167	 1.98427538122044 
1168	 1.98493210237583 
1169	 1.98561171640204 
1170	 1.98594254652566 
1171	 1.9859522150298 
1172	 1.98557151853132 
1173	 1.98545378662212 
1174	 1.98531855572719 
1175	 1.98470730645138 
1176	 1.98412343189936 
1177	 1.98320473082357 
1178	 1.98156784360492 
1179	 1.98020397349836 
1180	 1.97877665845482 
1181	 1.97766175578716 
1182	 1.9764713556144 
1183	 1.97550796720744 
1184	 1.97476377925764 
1185	 1.97425841811926 
1186	 1.97419549625318 
1187	 1.97373987939388 
1188	 1.97335277404734 
1189	 1.97307364828852 
1190	 1.97211723785932 
1191	 1.97107284967071 
1192	 1.97055054148698 
1193	 1.96988890212801 
1194	 1.9691004524119 
1195	 1.96850350114232 
1196	 1.96738173816393 
1197	 1.96567377262098 
1198	 1.96445611857695 
1199	 1.96320516712387 
1200	 1.96198226719759 
1201	 1.961150445107 
1202	 1.95989653025888 
1203	 1.95820245709131 
1204	 1.95683516174204 
1205	 1.95536135593724 
1206	 1.954164789426 
1207	 1.95352613132907 
1208	 1.95248590102584 
1209	 1.95130980722953 
1210	 1.95015035747435 
1211	 1.94913040452524 
1212	 1.94776022710173 
1213	 1.94655317182901 
1214	 1.94538575297065 
1215	 1.94450372930817 
1216	 1.94363740688337 
1217	 1.94292740975191 
1218	 1.94271567823569 
1219	 1.94200381681373 
1220	 1.94114817854606 
1221	 1.94017867568807 
1222	 1.93893051448348 
1223	 1.9378442628977 
1224	 1.93680969572875 
1225	 1.93558167519015 
1226	 1.93426281126897 
1227	 1.93299696780568 
1228	 1.9316354024811 
1229	 1.93011484155648 
1230	 1.92911142428928 
1231	 1.92831839479676 
1232	 1.92746185760663 
1233	 1.9269388529547 
1234	 1.92596209710974 
1235	 1.92479403987222 
1236	 1.92362703015193 
1237	 1.92222609123913 
1238	 1.92093256507869 
1239	 1.91964913108864 
1240	 1.91836455590781 
1241	 1.91708730307719 
1242	 1.91580594847259 
1243	 1.91456332074899 
1244	 1.91321851443554 
1245	 1.91171186834668 
1246	 1.9103764320131 
1247	 1.90896772289782 
1248	 1.90775942294542 
1249	 1.90705616336665 
1250	 1.90587781982042 
1251	 1.90438559355981 
1252	 1.90305786964368 
1253	 1.90173697792777 
1254	 1.90015258985317 
1255	 1.8987515177701 
1256	 1.89774286348474 
1257	 1.89619625634441 
1258	 1.89417750717565 
1259	 1.89253755043559 
1260	 1.89084354621145 
1261	 1.88924098871057 
1262	 1.88779641661573 
1263	 1.88637189589704 
1264	 1.8848364432594 
1265	 1.88361181181343 
1266	 1.88265500468388 
1267	 1.88175203635387 
1268	 1.88120137779236 
1269	 1.88045861286672 
1270	 1.87961568929191 
1271	 1.8789407864717 
1272	 1.87824337329592 
1273	 1.87772120975636 
1274	 1.87708861922784 
1275	 1.87653776430219 
1276	 1.87605576716526 
1277	 1.875399502815 
1278	 1.87515280770892 
1279	 1.87532853236538 
1280	 1.87516823165605 
1281	 1.87507754733568 
1282	 1.87485849295654 
1283	 1.87454231547866 
1284	 1.87407753289703 
1285	 1.87319814652466 
1286	 1.87295405806512 
1287	 1.87310676945791 
1288	 1.87284586419083 
1289	 1.8729001104317 
1290	 1.87268073165745 
1291	 1.87157556584861 
1292	 1.87115576345683 
1293	 1.87164892510244 
1294	 1.87135232630383 
1295	 1.8710402081904 
1296	 1.87029376968571 
1297	 1.86948200382723 
1298	 1.8678652789501 
1299	 1.8671350589854 
1300	 1.86683565154983 
1301	 1.86625464990919 
1302	 1.86583944462321 
1303	 1.86522918247657 
1304	 1.86448970378846 
1305	 1.86368359921796 
1306	 1.86267847044499 
1307	 1.86195020805411 
1308	 1.86121404489447 
1309	 1.86056921305121 
1310	 1.86011984141842 
1311	 1.85970627939041 
1312	 1.85932501221525 
1313	 1.85896174337043 
1314	 1.85898085676505 
1315	 1.85859496413129 
1316	 1.85776627740402 
1317	 1.85719945455803 
1318	 1.85673811831644 
1319	 1.85602302327947 
1320	 1.8552099021952 
1321	 1.8547729126407 
1322	 1.85346301263526 
1323	 1.85150990274208 
1324	 1.84970268224982 
1325	 1.84756165996944 
1326	 1.84533848888046 
1327	 1.84282079700411 
1328	 1.84060832487106 
1329	 1.83786937138512 
1330	 1.83625896650281 
1331	 1.83567362210556 
1332	 1.83454471254482 
1333	 1.83372468690839 
1334	 1.83303291942676 
1335	 1.83242828311643 
1336	 1.83156440086989 
1337	 1.83157181067396 
1338	 1.83021428527774 
1339	 1.82801187966077 
1340	 1.82491507759673 
1341	 1.82032054405633 
1342	 1.81519069945169 
1343	 1.80779926963282 
1344	 1.80008338410679 
1345	 1.79100753153283 
1346	 1.77895007514906 
1347	 1.76628729823802 
1348	 1.75291810032889 
1349	 1.73704640536401 
1350	 1.71733653567449 
1351	 1.69751724483979 
1352	 1.67489929752475 
1353	 1.64967998002259 
1354	 1.63019530143901 
1355	 1.6008167216404 
1356	 1.57355061165752 
1357	 1.53708916444757 
1358	 1.52672872152218 
1359	 1.48337998856202 
1360	 1.43836942064696 
1361	 1.39009216685111 
1362	 1.38088869160256 
1363	 1.33976412137815 
1364	 1.38352719720198 
1365	 1.38401261531863 
1366	 1.32489230440252 
1367	 1.31098361181799 
1368	 1.32872672509399 
1369	 1.33512378944094 
1370	 1.35736303886443 
1371	 1.35602952061537 
1372	 1.33418903022193 
1373	 1.33007235199319 
1374	 1.33059074007528 
1375	 1.32139572857671 
1376	 1.31871175744423 
1377	 1.33007490578247 
1378	 1.33007961975884 
1379	 1.31879063879566 
1380	 1.32297284942504 
1381	 1.33434798182352 
1382	 1.34284823008142 
1383	 1.35664659851611 
1384	 1.369015897086 
1385	 1.37759579131727 
1386	 1.38578142596339 
1387	 1.39184781305512 
1388	 1.40284183425686 
1389	 1.41308596437719 
1390	 1.42602759232462 
1391	 1.44180606016232 
1392	 1.45763812026197 
1393	 1.47566245398468 
1394	 1.49057444146931 
1395	 1.50579058254416 
1396	 1.52143596466634 
1397	 1.53294456659799 
1398	 1.54898307553276 
1399	 1.56820741649633 
1400	 1.5875140033726 
1401	 1.61188007751768 
1402	 1.62926100988491 
1403	 1.63574880601925 
1404	 1.65309811399277 
1405	 1.67466784483899 
1406	 1.69001946065938 
1407	 1.7083832529828 
1408	 1.73213190522937 
1409	 1.74777569455694 
1410	 1.76471091272611 
1411	 1.78507698298596 
1412	 1.8089446132839 
1413	 1.82699643296695 
1414	 1.84478465216486 
1415	 1.85965244953239 
1416	 1.87033701282947 
1417	 1.88437107483787 
1418	 1.89837047871856 
1419	 1.91292367192672 
1420	 1.92928360265525 
1421	 1.94336251750804 
1422	 1.95744141292148 
1423	 1.96926581368652 
1424	 1.98005172049359 
1425	 1.9899190628509 
1426	 1.99920233413031 
1427	 2.00782156796407 
1428	 2.01673506045656 
1429	 2.02371625704333 
1430	 2.03054495263809 
1431	 2.03510186524583 
1432	 2.0368544564861 
1433	 2.03990064401815 
1434	 2.04109689624595 
1435	 2.0444914834974 
1436	 2.05044690691328 
1437	 2.05463868869882 
1438	 2.05845097122586 
1439	 2.06243874253586 
1440	 2.06404510309041 
1441	 2.06831368298396 
1442	 2.07468051290152 
1443	 2.0800747573021 
1444	 2.08732603114587 
1445	 2.09552255839141 
1446	 2.10379535969735 
1447	 2.11313470655791 
1448	 2.12065846862874 
1449	 2.12792887138425 
1450	 2.13465070926874 
1451	 2.13976648997624 
1452	 2.14630654078302 
1453	 2.15401348850523 
1454	 2.15965694537088 
1455	 2.16599717460896 
1456	 2.16928635076964 
1457	 2.17120120224453 
1458	 2.17159811326765 
1459	 2.17035329710613 
1460	 2.16847174091874 
1461	 2.16433674861919 
1462	 2.16150972892555 
1463	 2.15838899279871 
1464	 2.15477014717165 
1465	 2.15141595600534 
1466	 2.14749020579675 
1467	 2.14146596728708 
1468	 2.13791828112513 
1469	 2.13531802202771 
1470	 2.13369705036744 
1471	 2.13431686173432 
1472	 2.13430339187871 
1473	 2.13442348401865 
1474	 2.13523115826938 
1475	 2.13606644043123 
1476	 2.13775588868654 
1477	 2.14055203734162 
1478	 2.14298407034794 
1479	 2.14589189958301 
1480	 2.14832399781287 
1481	 2.14983176614305 
1482	 2.15241200403333 
1483	 2.15556449916728 
1484	 2.15844157675555 
1485	 2.16181702089124 
1486	 2.16495658495093 
1487	 2.16793553982957 
1488	 2.17027630113118 
1489	 2.17280687330114 
1490	 2.17563358574532 
1491	 2.17938815558968 
1492	 2.18265654593822 
1493	 2.18489684274318 
1494	 2.18623589575793 
1495	 2.1870289930323 
1496	 2.18614064251785 
1497	 2.1864930097271 
1498	 2.18733983766918 
1499	 2.18752584213381 
1500	 2.18767631132768 
1501	 2.18720047685559 
1502	 2.18620073839434 
1503	 2.18531987314758 
1504	 2.18428145150179 
1505	 2.18286861496172 
1506	 2.1811364501695 
1507	 2.17973840598067 
1508	 2.1780942233 
1509	 2.17665408410424 
1510	 2.17565700520951 
1511	 2.17433751665743 
1512	 2.17259160807374 
1513	 2.17133845307188 
1514	 2.17040399207851 
1515	 2.16920113935188 
1516	 2.16803224857317 
1517	 2.16689819229126 
1518	 2.16575002816 
1519	 2.16438668405441 
1520	 2.16293307807599 
1521	 2.16157199985794 
1522	 2.15999174584257 
1523	 2.15859608614946 
1524	 2.157598137316 
1525	 2.15621756700705 
1526	 2.1545977230073 
1527	 2.15299899803123 
1528	 2.15109866538632 
1529	 2.14950761678867 
1530	 2.14794382545083 
1531	 2.14662358339331 
1532	 2.14587605393111 
1533	 2.14459564827852 
1534	 2.14321128391567 
1535	 2.14171278648585 
1536	 2.13997438394305 
1537	 2.13800661042125 
1538	 2.13566295863533 
1539	 2.13375429788063 
1540	 2.13162009853694 
1541	 2.1298367310113 
1542	 2.12890248624036 
1543	 2.12738547421425 
1544	 2.12556285370831 
1545	 2.12386106703724 
1546	 2.12181387485686 
1547	 2.12007101118354 
1548	 2.11877393857156 
1549	 2.11717193859208 
1550	 2.11527243035596 
1551	 2.11377452247723 
1552	 2.11279002005823 
1553	 2.11109244489139 
1554	 2.10887665417437 
1555	 2.10723350188236 
1556	 2.1053444259515 
1557	 2.1035403743967 
1558	 2.10271919884552 
1559	 2.10131593168746 
1560	 2.09898845152565 
1561	 2.09718011350416 
1562	 2.09550998089652 
1563	 2.09389616486008 
1564	 2.09240581170258 
1565	 2.09133981437348 
1566	 2.09010326592843 
1567	 2.08839511241985 
1568	 2.08677320615463 
1569	 2.08482575479765 
1570	 2.08381655230524 
1571	 2.08312584302205 
1572	 2.08227703510937 
1573	 2.08210646077264 
1574	 2.08121250446792 
1575	 2.07993658731856 
1576	 2.07837265893688 
1577	 2.07653699060883 
1578	 2.07504964516017 
1579	 2.07312303480455 
1580	 2.0719707284247 
1581	 2.07174315487433 
1582	 2.07030323100324 
1583	 2.06840888452175 
1584	 2.06706733034709 
1585	 2.06549604386628 
1586	 2.0639123814463 
1587	 2.06290210741868 
1588	 2.06110915580578 
1589	 2.05832188656246 
1590	 2.05677859267278 
1591	 2.05585577766187 
1592	 2.05414833628317 
1593	 2.05276466807471 
1594	 2.0507051081585 
1595	 2.04750025529819 
1596	 2.04556510731082 
1597	 2.04396658153138 
1598	 2.04252752879838 
1599	 2.04190566937099 
1600	 2.04025999441522 
1601	 2.03824527951544 
1602	 2.03635261002141 
1603	 2.03377199833105 
1604	 2.03224542057861 
1605	 2.03142232183157 
1606	 2.03015827511753 
1607	 2.02937430444811 
1608	 2.02775574888453 
1609	 2.0253278727916 
1610	 2.02382954320722 
1611	 2.02233176103128 
1612	 2.02116910415487 
1613	 2.02096214388907 
1614	 2.01954797446773 
1615	 2.01737853927698 
1616	 2.01609640847513 
1617	 2.01495035386722 
1618	 2.01325229364342 
1619	 2.01164691746239 
1620	 2.01039365337937 
1621	 2.00849697163051 
1622	 2.00743854243378 
1623	 2.00778572391467 
1624	 2.00662223177253 
1625	 2.00458436834537 
1626	 2.00332710555032 
1627	 2.00185351239814 
1628	 2.0007497538316 
1629	 2.00035616425466 
1630	 1.99929520906353 
1631	 1.99785157820608 
1632	 1.9966289533446 
1633	 1.99542994275002 
1634	 1.99406540667751 
1635	 1.99258215434247 
1636	 1.9913518815353 
1637	 1.98985408975007 
1638	 1.98903722649675 
1639	 1.98891584560265 
1640	 1.98834068757674 
1641	 1.98778780557769 
1642	 1.98740536910552 
1643	 1.98713065838378 
1644	 1.98629321601279 
1645	 1.98529826574521 
1646	 1.9847488630165 
1647	 1.98389492528158 
1648	 1.98329838044096 
1649	 1.98323581694242 
1650	 1.98307131419133 
1651	 1.98268856777422 
1652	 1.98247017471384 
1653	 1.98266327265418 
1654	 1.98266328664179 
1655	 1.9824615866456 
1656	 1.98217486573012 
1657	 1.98204425994372 
1658	 1.98091016661492 
1659	 1.98027036234706 
1660	 1.98083543254699 
1661	 1.9818949124872 
1662	 1.98289481843181 
1663	 1.98346772373414 
1664	 1.98305538416382 
1665	 1.98244448418684 
1666	 1.98212134238081 
1667	 1.98244842151898 
1668	 1.98272361057901 
1669	 1.9826982917267 
1670	 1.98398505860588 
1671	 1.98455603263547 
1672	 1.98457196033749 
1673	 1.98561009059453 
1674	 1.98551886009697 
1675	 1.98528077113447 
1676	 1.98601327422962 
1677	 1.98656395529021 
1678	 1.98687556963825 
1679	 1.98731991186953 
1680	 1.98763131282645 
1681	 1.98755413313267 
1682	 1.988009733425 
1683	 1.98887547470742 
1684	 1.98992131238833 
1685	 1.99130716705031 
1686	 1.99229324168475 
1687	 1.99281140607443 
1688	 1.99323228215547 
1689	 1.99372210149489 
1690	 1.99415260552434 
1691	 1.99495419828333 
1692	 1.99634334998046 
1693	 1.99701724016274 
1694	 1.99746209952633 
1695	 1.99789779732237 
1696	 1.99715750181642 
1697	 1.99755828249172 
1698	 1.99902431294125 
1699	 2.00027601862877 
1700	 2.00265644729417 
1701	 2.00385123329973 
1702	 2.00402143019171 
1703	 2.00445239409237 
1704	 2.00364179905915 
1705	 2.00435802378022 
1706	 2.00665024775042 
1707	 2.0077293267958 
1708	 2.00874234627504 
1709	 2.01033621998158 
1710	 2.01164681562529 
1711	 2.01277313824924 
1712	 2.01470867821317 
1713	 2.01567066150629 
1714	 2.01543077608876 
1715	 2.01591456180086 
1716	 2.01660515369144 
1717	 2.01741935061089 
1718	 2.01792166404234 
1719	 2.01907617181105 
1720	 2.02138429657524 
1721	 2.02236115083818 
1722	 2.02297792344933 
1723	 2.02394412139492 
1724	 2.02421345022093 
1725	 2.02452311358897 
1726	 2.02547448688189 
1727	 2.02556966341625 
1728	 2.02465544251876 
1729	 2.02446941014845 
1730	 2.02455778018655 
1731	 2.02458949300079 
1732	 2.02451462977434 
1733	 2.02343695568233 
1734	 2.02211471162321 
1735	 2.02026524340512 
1736	 2.01838064386041 
1737	 2.01773234455716 
1738	 2.01813336918853 
1739	 2.01827483492077 
1740	 2.01750588911026 
1741	 2.01687567833484 
1742	 2.01588042640492 
1743	 2.01587504905332 
1744	 2.01730743027319 
1745	 2.01828537213306 
1746	 2.01872440305909 
1747	 2.01788707151196 
1748	 2.01789557450102 
1749	 2.01921600427178 
1750	 2.02034830526699 
1751	 2.02239061087341 
1752	 2.02306161314734 
1753	 2.02299643763272 
1754	 2.0234728989879 
1755	 2.02292971000894 
1756	 2.02273904992871 
1757	 2.02067309117226 
1758	 2.01930625479637 
1759	 2.01875040842697 
1760	 2.01795925525173 
1761	 2.0172991712174 
1762	 2.01683375731767 
1763	 2.01654932594655 
1764	 2.01541998031309 
1765	 2.01410035706441 
1766	 2.01246188374428 
1767	 2.00973735814628 
1768	 2.00810915235563 
1769	 2.00692257863409 
1770	 2.00551549845769 
1771	 2.00461203016383 
1772	 2.00237428006641 
1773	 1.9998925702417 
1774	 1.99543516815403 
1775	 1.99162793617444 
1776	 1.9884233199487 
1777	 1.98356962503676 
1778	 1.98055838094608 
1779	 1.97856897321625 
1780	 1.97665211567942 
1781	 1.9751255768944 
1782	 1.97195470559561 
1783	 1.96978422388601 
1784	 1.96676605592972 
1785	 1.96356159408545 
1786	 1.96257746883381 
1787	 1.95720813722197 
1788	 1.94964962540404 
1789	 1.94340382822395 
1790	 1.93695843880564 
1791	 1.9313716231037 
1792	 1.92630519585439 
1793	 1.92082250221999 
1794	 1.91345002006857 
1795	 1.90419224250629 
1796	 1.89599169083479 
1797	 1.88871238542893 
1798	 1.8784010302439 
1799	 1.87008369877597 
1800	 1.86260285725913 
1801	 1.82684503129395 
1802	 1.81483948792195 
1803	 1.8041848074903 
1804	 1.79155407449459 
1805	 1.78269144386691 
1806	 1.78273254382879 
1807	 1.77416634379718 
1808	 1.75998192521094 
1809	 1.74988072030979 
1810	 1.7392239302986 
1811	 1.72373700746985 
1812	 1.7105384905757 
1813	 1.70329047665499 
1814	 1.69098632078069 
1815	 1.67082326504752 
1816	 1.65607022813282 
1817	 1.64676712853426 
1818	 1.63462481153598 
1819	 1.62241555117113 
1820	 1.61055930519898 
1821	 1.59900603037162 
1822	 1.58549228344965 
1823	 1.57731486224124 
1824	 1.57571807374223 
1825	 1.57229976247476 
1826	 1.58285508215807 
1827	 1.5793451059019 
1828	 1.56813218762985 
1829	 1.53431566153744 
1830	 1.52859057275841 
1831	 1.51772017998564 
1832	 1.52927938067949 
1833	 1.70919251048846 
1834	 1.72504974755863 
1835	 1.48539106750497 
1836	 1.39981247032651 
1837	 1.22869236589833 
1838	 1.12840433911095 
1839	 1.11099279491678 
1840	 1.37887796029988 
1841	 1.44869378691209 
1842	 1.4634707207287 
1843	 1.46115520022807 
1844	 1.39532868670397 
1845	 1.38603795471712 
1846	 1.40947401147519 
1847	 1.37543887119729 
1848	 1.32691331801598 
1849	 1.26481638517191 
1850	 1.2472295304219 
1851	 1.20211111671339 
1852	 1.18530808277255 
1853	 1.26776279433385 
1854	 1.25235302953777 
1855	 1.16946772970511 
1856	 1.12781589529538 
1857	 1.03707968859163 
1858	 1.02826214081089 
1859	 1.04983197552956 
1860	 1.10973032229731 
1861	 1.1429880372259 
1862	 1.22631686266887 
1863	 1.26025215144983 
1864	 1.24643513926262 
1865	 1.27521899235199 
1866	 1.40882782943315 
1867	 1.37194898800921 
1868	 1.36153954116324 
1869	 1.40566927495898 
1870	 1.38881623711089 
1871	 1.28493813389775 
1872	 1.29663774581452 
1873	 1.34763834387911 
1874	 1.36621877476264 
1875	 1.37513419491879 
1876	 1.3998338617878 
1877	 1.40168314072106 
1878	 1.44949186546042 
1879	 1.46862180936822 
1880	 1.56325014681942 
1881	 1.58775001527712 
1882	 1.59678844871115 
1883	 1.58437537246421 
1884	 1.53030590305854 
1885	 1.52241279898758 
1886	 1.5148697176306 
1887	 1.53204420643202 
1888	 1.54742043096949 
1889	 1.53634487088938 
1890	 1.55243207828419 
1891	 1.5673984312888 
1892	 1.57716834943345 
1893	 1.61288756895198 
1894	 1.6393941412059 
1895	 1.63758759467396 
1896	 1.65944513240917 
1897	 1.70873109765048 
1898	 1.77965700652298 
1899	 1.89553624433637 
1900	 1.91502570498324 
1901	 1.90742830969969 
1902	 1.78309674641243 
1903	 1.76917226616703 
1904	 1.70352449206952 
1905	 1.70724312944569 
1906	 1.83869938769065 
1907	 1.96288413475207 
1908	 1.93379120392347 
1909	 1.9339578246007 
1910	 1.87205690709249 
1911	 1.84221218661968 
1912	 1.88831094486925 
1913	 1.99930919122853 
1914	 1.9942969269958 
1915	 1.97577805411501 
1916	 1.99048778073162 
1917	 1.9608866842099 
1918	 1.97577280200197 
1919	 2.06763169205675 
1920	 2.11117574142242 
1921	 2.1165439452934 
1922	 2.11212255106538 
1923	 2.1130178125472 
1924	 2.07909191449599 
1925	 2.09013140555066 
1926	 2.139669805506 
1927	 2.16013760866091 
1928	 2.17634923187423 
1929	 2.19997940724771 
1930	 2.2046964936009 
1931	 2.20512090834042 
1932	 2.23194351825898 
1933	 2.24924972748626 
1934	 2.25632339542961 
1935	 2.25532514275854 
1936	 2.26945833131121 
1937	 2.28128071886238 
1938	 2.29745375668222 
1939	 2.32839217313698 
1940	 2.34296284641802 
1941	 2.3498568062824 
1942	 2.34912710431019 
1943	 2.35537801124896 
1944	 2.37337638495335 
1945	 2.38954589416721 
1946	 2.39093572850018 
1947	 2.39804770778664 
1948	 2.4064588553114 
1949	 2.41091250837212 
1950	 2.41101912100732 
1951	 2.42166286709562 
1952	 2.4266145869915 
1953	 2.41575439665551 
1954	 2.4186772660983 
1955	 2.42990194175994 
1956	 2.43233033259171 
1957	 2.43374418513846 
1958	 2.43982095472155 
1959	 2.44366460728976 
1960	 2.44865297847895 
1961	 2.45601059155981 
1962	 2.46771852491996 
1963	 2.47347310064136 
1964	 2.47322734175585 
1965	 2.47503224887917 
1966	 2.47525467981297 
1967	 2.47483161527884 
1968	 2.47539542571019 
1969	 2.47778684655245 
1970	 2.48412853173109 
1971	 2.48623901240841 
1972	 2.48706142163732 
1973	 2.4883909042448 
1974	 2.49069989281324 
1975	 2.48922948634948 
1976	 2.48778220107513 
1977	 2.48540150050148 
1978	 2.47905878849388 
1979	 2.47503552486339 
1980	 2.47119210412171 
1981	 2.46832251391632 
1982	 2.46656539869338 
1983	 2.4672788369567 
1984	 2.4625613527932 
1985	 2.46137131056075 
1986	 2.46263207542666 
1987	 2.45847903734136 
1988	 2.45533669968413 
1989	 2.45056343058286 
1990	 2.44433685271779 
1991	 2.44041382261636 
1992	 2.43852380635129 
1993	 2.43784448714579 
1994	 2.43595938201029 
1995	 2.43463491271949 
1996	 2.43426075180942 
1997	 2.43241270805545 
1998	 2.43044185764581 
1999	 2.42654831253302 
2000	 2.42157605601082 
2001	 2.42522487202879 
2002	 2.42498651902379 
2003	 2.42460348220399 
2004	 2.42669871481318 
2005	 2.4174063628611 
2006	 2.41290623743254 
2007	 2.40807375390037 
2008	 2.40996411171785 
2009	 2.41093141564369 
2010	 2.4188715483311 
2011	 2.42054828991116 
2012	 2.41112861779355 
2013	 2.4019944539697 
2014	 2.39490933203221 
2015	 2.39488653123297 
2016	 2.39949770460505 
2017	 2.40872878960428 
2018	 2.41167856077826 
2019	 2.4109016895598 
2020	 2.40436871004374 
2021	 2.40488370747783 
2022	 2.40608280662683 
2023	 2.40784704667159 
2024	 2.41609071118966 
2025	 2.42333455646188 
2026	 2.42648013961026 
2027	 2.43070129392983 
2028	 2.43475937118651 
2029	 2.4374538583416 
2030	 2.43875428386784 
2031	 2.44172591134461 
2032	 2.44368415122833 
2033	 2.44486960317188 
2034	 2.44315280289792 
2035	 2.44722519629539 
2036	 2.45300082694805 
2037	 2.4553596840279 
2038	 2.46028785776144 
2039	 2.46430372124845 
2040	 2.46440648105706 
2041	 2.46700388018846 
2042	 2.47174620922709 
2043	 2.47360207548468 
2044	 2.47627485646948 
2045	 2.47826468136774 
2046	 2.47929539444728 
2047	 2.478516400066 
2048	 2.4842991683564 
2049	 2.48850247040079 
2050	 2.49017066973195 
2051	 2.4977001081205 
2052	 2.5015670101825 
2053	 2.50217461276682 
2054	 2.50528042999884 
2055	 2.50492812721008 
2056	 2.50464922516854 
2057	 2.50852128576252 
2058	 2.51225767686538 
2059	 2.51580743470334 
2060	 2.52132228254007 
2061	 2.526497767119 
2062	 2.52868074098599 
2063	 2.52823186135224 
2064	 2.52843155549729 
2065	 2.52729583330869 
2066	 2.52422111939431 
2067	 2.52429261646644 
2068	 2.52424149127234 
2069	 2.52513483014426 
2070	 2.52850034782259 
2071	 2.5319291417994 
2072	 2.53604656878879 
2073	 2.54254576072049 
2074	 2.54742539458294 
2075	 2.5476748164289 
2076	 2.54606560179797 
2077	 2.54544369730471 
2078	 2.5455733221027 
2079	 2.5469718950557 
2080	 2.55147342098625 
2081	 2.55580707153426 
2082	 2.55540900449147 
2083	 2.55142393346449 
2084	 2.54852804340351 
2085	 2.54726993107706 
2086	 2.5499615509886 
2087	 2.55209398350928 
2088	 2.55834799732274 
2089	 2.56184952716387 
2090	 2.56038254986538 
2091	 2.55518783398089 
2092	 2.55454440859113 
2093	 2.55428406909031 
2094	 2.552180460489 
2095	 2.55367314505527 
2096	 2.54945148162851 
2097	 2.54417405718038 
2098	 2.54470547926446 
2099	 2.54327045253946 
2100	 2.54354198355704 
2101	 2.54798297107907 
2102	 2.54982145852834 
2103	 2.55078564921595 
2104	 2.5511939720113 
2105	 2.55313272187298 
2106	 2.55213290989322 
2107	 2.55263312378459 
2108	 2.55591920875977 
2109	 2.55534483115912 
2110	 2.55441846853311 
2111	 2.55268948725366 
2112	 2.54687263931527 
2113	 2.54278112938025 
2114	 2.54235317678327 
2115	 2.5397307569108 
2116	 2.53839973646563 
2117	 2.53838135871522 
2118	 2.53844665647961 
2119	 2.53785026313433 
2120	 2.53818582404937 
2121	 2.54078798612892 
2122	 2.5396015009392 
2123	 2.53719831017694 
2124	 2.53356527033025 
2125	 2.5314540318637 
2126	 2.53154026086559 
2127	 2.53381530386769 
2128	 2.53600200772916 
2129	 2.53459720988697 
2130	 2.53191546437215 
2131	 2.53147999501187 
2132	 2.53080578340968 
2133	 2.52781840475477 
2134	 2.52696616696523 
2135	 2.52694526636342 
2136	 2.52519410604826 
2137	 2.52457424265605 
2138	 2.52788302087806 
2139	 2.52725918996356 
2140	 2.52560401952452 
2141	 2.52528620481718 
2142	 2.52272376076282 
2143	 2.52331318842281 
2144	 2.52367492809252 
2145	 2.5203865578294 
2146	 2.51999328036772 
2147	 2.51949668654765 
2148	 2.51276298310469 
2149	 2.50531389770457 
2150	 2.50115619716268 
2151	 2.49827948408381 
2152	 2.49623684062399 
2153	 2.49590972311547 
2154	 2.50101021230506 
2155	 2.49960341716092 
2156	 2.49214739009367 
2157	 2.48520976442527 
2158	 2.47690315582943 
2159	 2.46991284339425 
2160	 2.47225321232451 
2161	 2.47353824203263 
2162	 2.47355194937935 
2163	 2.47596298183849 
2164	 2.47330109128272 
2165	 2.47118910240427 
2166	 2.46965212076089 
2167	 2.4661202256802 
2168	 2.4640387345526 
2169	 2.46263995579043 
2170	 2.4603713987011 
2171	 2.45753348176656 
2172	 2.4578046121123 
2173	 2.45671586445085 
2174	 2.45436282141248 
2175	 2.45576469534066 
2176	 2.45519245019596 
2177	 2.45177252529947 
2178	 2.44797789744568 
2179	 2.44246932127537 
2180	 2.43558129937647 
2181	 2.43011001620245 
2182	 2.42676990715151 
2183	 2.42568392139657 
2184	 2.42402467597473 
2185	 2.4185493797184 
2186	 2.41593874606593 
2187	 2.41470190066513 
2188	 2.41335626852403 
2189	 2.4119680982896 
2190	 2.41386603336302 
2191	 2.41238550675678 
2192	 2.40784835867026 
2193	 2.40467205977594 
2194	 2.40169609323382 
2195	 2.40154434963499 
2196	 2.40004193022134 
2197	 2.39407865690062 
2198	 2.38974733898458 
2199	 2.38719985147456 
2200	 2.38835590291787 
2201	 2.39288400979981 
2202	 2.39500932553335 
2203	 2.39031548923653 
2204	 2.3836046944304 
2205	 2.37890618125071 
2206	 2.37476184486196 
2207	 2.37643076668591 
2208	 2.37918274071566 
2209	 2.38534658138246 
2210	 2.38668251740476 
2211	 2.38837917352401 
2212	 2.39079152761225 
2213	 2.38303181902649 
2214	 2.37673108859772 
2215	 2.37487943250639 
2216	 2.36785528095086 
2217	 2.36749290063632 
2218	 2.37012091787338 
2219	 2.36758736958957 
2220	 2.36712934314559 
2221	 2.37146608529087 
2222	 2.3728579282789 
2223	 2.37031595736425 
2224	 2.37311911010906 
2225	 2.37240103202441 
2226	 2.37105197869705 
2227	 2.37653103892273 
2228	 2.38026435985722 
2229	 2.38339257077976 
2230	 2.38618162008944 
2231	 2.39038783005894 
2232	 2.397149632915 
2233	 2.40144478770494 
2234	 2.40413875391594 
2235	 2.41085774626936 
2236	 2.41538450375994 
2237	 2.41926820358931 
2238	 2.42440456104715 
2239	 2.42784438052715 
2240	 2.43308157299636 
2241	 2.43649973305761 
2242	 2.44385839480712 
2243	 2.45427827939793 
2244	 2.45509992998658 
2245	 2.45941334305021 
2246	 2.46689465462121 
2247	 2.46942388330209 
2248	 2.48020057292146 
2249	 2.48935141549967 
2250	 2.49372655321119 
2251	 2.50340952134395 
2252	 2.51151727575675 
2253	 2.5194458837474 
2254	 2.53335052405914 
2255	 2.54808706057935 
2256	 2.55669241146949 
2257	 2.56161412643455 
2258	 2.56820350675963 
2259	 2.57034374605755 
2260	 2.56667986606696 
2261	 2.56884618296464 
2262	 2.57199900803828 
2263	 2.57765923626852 
2264	 2.58554203026239 
2265	 2.59141969803533 
2266	 2.60085125802669 
2267	 2.61236644047317 
2268	 2.62356310312756 
2269	 2.63199887746311 
2270	 2.63773454424748 
2271	 2.64006563074355 
2272	 2.63610138915327 
2273	 2.63824790861904 
2274	 2.64449899902987 
2275	 2.64596790695843 
2276	 2.64972845677598 
2277	 2.65359132563289 
2278	 2.65042688889826 
2279	 2.6472968038833 
2280	 2.64581217566579 
2281	 2.64254875767369 
2282	 2.64721071999267 
2283	 2.6547468084092 
2284	 2.65878331883891 
2285	 2.66077401219285 
2286	 2.66464642502296 
2287	 2.66771533537128 
2288	 2.66876822054569 
2289	 2.66900814925711 
2290	 2.68116889573916 
2291	 2.68573778100617 
2292	 2.68198187172938 
2293	 2.68922150707893 
2294	 2.68857670599585 
2295	 2.68327545636262 
2296	 2.6942287461798 
2297	 2.70078413313006 
2298	 2.70113844533659 
2299	 2.71080055807397 
2300	 2.7158216011774 
2301	 2.72641619862784 
2302	 2.74196318491504 
2303	 2.74759128341623 
2304	 2.74894653726489 
2305	 2.74447241436638 
2306	 2.73954184441061 
2307	 2.74353777018189 
2308	 2.76427261043476 
2309	 2.78580248502561 
2310	 2.79603047917699 
2311	 2.80358292302116 
2312	 2.79658261804696 
2313	 2.79162663174552 
2314	 2.79740238629598 
2315	 2.78326278856005 
2316	 2.76786178405099 
2317	 2.76651540997511 
2318	 2.76204577470181 
2319	 2.75764480643445 
2320	 2.76014532271965 
2321	 2.76540803615144 
2322	 2.76357371326851 
2323	 2.76078702109535 
2324	 2.76330702830013 
2325	 2.77627458362147 
2326	 2.77295865032463 
2327	 2.76853741250255 
2328	 2.77578914107916 
2329	 2.77887952481265 
2330	 2.77562147396005 
2331	 2.77883358877024 
2332	 2.78233628751842 
2333	 2.77034083286851 
2334	 2.76684990994692 
2335	 2.77305635713242 
2336	 2.78027698034745 
2337	 2.79373866499897 
2338	 2.79276011021912 
2339	 2.78890212349815 
2340	 2.78356144675356 
2341	 2.77604185984536 
2342	 2.76961976996263 
2343	 2.752995827833 
2344	 2.74716273049157 
2345	 2.75583396257509 
2346	 2.77575457229925 
2347	 2.79841205719678 
2348	 2.80801604123428 
2349	 2.80749092585003 
2350	 2.81163984184189 
2351	 2.81466548853046 
2352	 2.81052738460855 
2353	 2.81765685761161 
2354	 2.80659144732697 
2355	 2.7892168881192 
2356	 2.8084227951136 
2357	 2.81543859593065 
2358	 2.80490690111649 
2359	 2.80420249356091 
2360	 2.78199337951861 
2361	 2.77393307284274 
2362	 2.78120768300435 
2363	 2.76803831448935 
2364	 2.76694307439657 
2365	 2.75744198954679 
2366	 2.7362763542708 
2367	 2.74373207809984 
2368	 2.76693525430215 
2369	 2.77334418813733 
2370	 2.79520705826388 
2371	 2.81684405208279 
2372	 2.81567940131443 
2373	 2.78662905568683 
2374	 2.78402076944376 
2375	 2.77487876856449 
2376	 2.77234071188348 
2377	 2.78950872493162 
2378	 2.77893793071737 
2379	 2.74611046871179 
2380	 2.73470240380398 
2381	 2.72437322016244 
2382	 2.72656885399771 
2383	 2.74985965284582 
2384	 2.75878301835255 
2385	 2.76632680558313 
2386	 2.75820833374748 
2387	 2.73257098071903 
2388	 2.73217953086955 
2389	 2.73984018967365 
2390	 2.7438269827511 
2391	 2.76067838380756 
2392	 2.76100558646293 
2393	 2.73273685191453 
2394	 2.7341094376548 
2395	 2.76208002838036 
2396	 2.77838575433835 
2397	 2.81346247744145 
2398	 2.81935995304623 
2399	 2.79307143634273 
2400	 2.78058468614262 
2401	 2.75257941835882 
2402	 2.74503199455002 
2403	 2.77485995789004 
2404	 2.77696110927391 
2405	 2.78199055243144 
2406	 2.7851845464324 
2407	 2.76163975769489 
2408	 2.75585439680017 
2409	 2.7582572988694 
2410	 2.78034592644729 
2411	 2.78314421729768 
2412	 2.77073285486069 
2413	 2.80855067682848 
2414	 2.78425599711282 
2415	 2.76729747670866 
2416	 2.84229614482308 
2417	 2.84824619242403 
2418	 2.84856797944376 
2419	 2.88272399895438 
2420	 2.87002435424497 
2421	 2.86905272011643 
2422	 2.91170415302053 
2423	 2.94080622188996 
2424	 2.92338267157572 
2425	 2.87543037247065 
2426	 2.8332573675875 
2427	 2.82142031072546 
2428	 2.82679835795058 
2429	 2.87384781437237 
2430	 2.93903667224572 
2431	 3.00440396363043 
2432	 3.05862883913919 
2433	 3.07757557224908 
2434	 3.07442757911108 
2435	 3.02514078088459 
2436	 2.99338210859746 
2437	 2.91796082983406 
2438	 2.90604163831678 
2439	 2.92537262644242 
2440	 2.94583794231073 
2441	 3.06151190253602 
2442	 3.09536141910692 
2443	 3.06858130043837 
2444	 3.0574416440121 
2445	 2.97857644173483 
2446	 2.96153798218068 
2447	 3.01294609977699 
2448	 3.03948252850797 
2449	 3.09969070359786 
2450	 3.11112411130792 
2451	 3.02265569451454 
2452	 3.01506076941514 
2453	 3.06363742276618 
2454	 3.07043133792281 
2455	 3.1355157163405 
2456	 3.13062920616135 
2457	 3.02806685747074 
2458	 2.97022578861096 
2459	 2.90001331341173 
2460	 2.88945286750901 
2461	 2.90679125550169 
2462	 2.90676549211991 
2463	 2.92994540441323 
2464	 2.94231889063732 
2465	 2.93716151414612 
2466	 2.97478996632428 
2467	 3.06764146812427 
2468	 3.1250827372643 
2469	 3.21101206400338 
2470	 3.25843120568188 
2471	 3.28764192344928 
2472	 3.27953302448836 
2473	 3.13544804150228 
2474	 3.0797418758467 
2475	 3.01069662805001 
2476	 3.04160034467463 
2477	 3.33979960769981 
2478	 3.39474791174846 
2479	 3.29410505408093 
2480	 3.19534642902063 
2481	 2.81438161649321 
2482	 2.79730454088865 
2483	 3.15223845261949 
2484	 3.33648628848005 
2485	 3.79410100883054 
2486	 3.48835467669512 
2487	 2.90485059004338 
2488	 2.96328425299845 
2489	 2.87354027365005 
2490	 2.8475539613266 
2491	 3.66207743663507 
2492	 3.29580795879556 
2493	 2.79666152423343 
2494	 2.94812847146932 
2495	 2.77985012923942 
2496	 2.86944971176541 
2497	 3.19395204801477 
2498	 2.93721390966001 
2499	 2.92386982562324 
2500	 2.96206265008146 
