Wavelength	ref00134.asd
350	 0.268077064987229 
351	 0.287538620540571 
352	 0.292932625707171 
353	 0.287157700669916 
354	 0.285359015163673 
355	 0.274487186553122 
356	 0.25442811544488 
357	 0.260160941222198 
358	 0.257693979157928 
359	 0.252079510458501 
360	 0.255375994104573 
361	 0.253628778795075 
362	 0.255282508084265 
363	 0.262875947229862 
364	 0.271111933606888 
365	 0.241460315748438 
366	 0.230590515425134 
367	 0.249848563773374 
368	 0.235174015913569 
369	 0.23708575358002 
370	 0.238081983747717 
371	 0.221795453256973 
372	 0.224246945481183 
373	 0.220188999773961 
374	 0.20972166602826 
375	 0.205711885542218 
376	 0.217436894244873 
377	 0.21987028608323 
378	 0.210431004869533 
379	 0.214278656788466 
380	 0.201715447269885 
381	 0.193513846336731 
382	 0.203338520992136 
383	 0.19991451398442 
384	 0.201880665170393 
385	 0.206079019087693 
386	 0.20227670774689 
387	 0.197705554048076 
388	 0.198415141528684 
389	 0.199513269969795 
390	 0.18744093968696 
391	 0.191099845814427 
392	 0.193507909793754 
393	 0.185379991562079 
394	 0.193615812746758 
395	 0.192193025710723 
396	 0.187199327142506 
397	 0.190139089422708 
398	 0.183894433845042 
399	 0.176900756517041 
400	 0.174160725273407 
401	 0.176340624142932 
402	 0.172988334138481 
403	 0.173840832232122 
404	 0.181485735863624 
405	 0.178729337393526 
406	 0.175773668837759 
407	 0.17280287530136 
408	 0.168666812209241 
409	 0.171951859492577 
410	 0.170465917758681 
411	 0.165305296564527 
412	 0.168325137348993 
413	 0.169134774104996 
414	 0.169269407088522 
415	 0.170467091519761 
416	 0.171306887780527 
417	 0.170412897762874 
418	 0.168428807137008 
419	 0.166692055213307 
420	 0.165432830037838 
421	 0.16778974930305 
422	 0.170452401670385 
423	 0.165855142111875 
424	 0.16967684093536 
425	 0.172126802691041 
426	 0.167535222843219 
427	 0.16725788333665 
428	 0.16891644269113 
429	 0.171072107956873 
430	 0.172489681637062 
431	 0.172830904095594 
432	 0.173645594060929 
433	 0.173043947783787 
434	 0.167186936557171 
435	 0.169530011908379 
436	 0.172271569834978 
437	 0.170473864160299 
438	 0.171925335521799 
439	 0.172501008418463 
440	 0.171912799301599 
441	 0.171213981110677 
442	 0.171419828675863 
443	 0.171801403754282 
444	 0.171989626452449 
445	 0.172079619329747 
446	 0.17245197666259 
447	 0.173492656839336 
448	 0.17462357480488 
449	 0.172649707143135 
450	 0.17271823279632 
451	 0.173894116486532 
452	 0.173394080514045 
453	 0.174578010838614 
454	 0.174480158692272 
455	 0.173101189030413 
456	 0.174226122116504 
457	 0.174879059164053 
458	 0.174341812526836 
459	 0.173061757239034 
460	 0.17338002187208 
461	 0.172695324609497 
462	 0.171556980937671 
463	 0.171865988439645 
464	 0.1713644742391 
465	 0.171255166121883 
466	 0.171804180801244 
467	 0.17141324801086 
468	 0.170903368509811 
469	 0.170316261588201 
470	 0.169535274321623 
471	 0.168507714205764 
472	 0.168041190853396 
473	 0.168141268751868 
474	 0.1682294959771 
475	 0.168243666367105 
476	 0.167556058341801 
477	 0.166391354092398 
478	 0.166697445281566 
479	 0.166319926787841 
480	 0.166414531167712 
481	 0.168122090104604 
482	 0.166784526558108 
483	 0.1660326258824 
484	 0.166594448175283 
485	 0.166113185135333 
486	 0.166284771256861 
487	 0.166350109331779 
488	 0.165641277107213 
489	 0.164620724589516 
490	 0.165672094944264 
491	 0.16723194890516 
492	 0.166731644702894 
493	 0.166984590978309 
494	 0.168051447222449 
495	 0.169618203731581 
496	 0.171190069627567 
497	 0.172963030980758 
498	 0.174611674275805 
499	 0.17603347658036 
500	 0.178235989774525 
501	 0.180455215592362 
502	 0.182718566635663 
503	 0.185519693630575 
504	 0.188647932952256 
505	 0.191797412473186 
506	 0.194954910559368 
507	 0.198572421128962 
508	 0.203431796739144 
509	 0.208877827233769 
510	 0.214144218576331 
511	 0.220087198068684 
512	 0.225897660545167 
513	 0.231724277146572 
514	 0.238557074905305 
515	 0.245627959850434 
516	 0.252919765144304 
517	 0.260623006979492 
518	 0.26914319586317 
519	 0.27827624006989 
520	 0.286520664061926 
521	 0.29288852490186 
522	 0.301662125698817 
523	 0.309632460265631 
524	 0.316359590009238 
525	 0.324699005856598 
526	 0.331635278922043 
527	 0.338443097745592 
528	 0.346159313715288 
529	 0.352102742566519 
530	 0.357537660851533 
531	 0.363071889091318 
532	 0.368782746464474 
533	 0.373018306899738 
534	 0.376655120715062 
535	 0.380421416160997 
536	 0.384329873676055 
537	 0.388069543060007 
538	 0.390616858504478 
539	 0.391645848949086 
540	 0.394621584583099 
541	 0.397513583466689 
542	 0.399172295226367 
543	 0.399553398369309 
544	 0.400647973692828 
545	 0.402058674239371 
546	 0.403343059368929 
547	 0.404952306687831 
548	 0.406946064890134 
549	 0.408198899256136 
550	 0.407679534687097 
551	 0.408230805071292 
552	 0.408092915128434 
553	 0.406673455220603 
554	 0.405140721604013 
555	 0.403760165237629 
556	 0.402002205993348 
557	 0.399406120905223 
558	 0.396606074948693 
559	 0.393141998926288 
560	 0.389209991035205 
561	 0.385313579855152 
562	 0.380624092587265 
563	 0.376075484366684 
564	 0.372012854179649 
565	 0.367391575854992 
566	 0.362850318151568 
567	 0.357834330188302 
568	 0.351861698136832 
569	 0.346587992311303 
570	 0.341162479642809 
571	 0.335472261881466 
572	 0.330138112538539 
573	 0.324808058311785 
574	 0.320135763729624 
575	 0.316204647102249 
576	 0.311340697723067 
577	 0.30618789420153 
578	 0.301666172203335 
579	 0.298499535637816 
580	 0.294942652490948 
581	 0.291524570943026 
582	 0.288551433719478 
583	 0.285762734683468 
584	 0.282693654442194 
585	 0.279730622394376 
586	 0.277211448929523 
587	 0.274302249885106 
588	 0.271598993928814 
589	 0.269302218973927 
590	 0.267332745428272 
591	 0.265720168383106 
592	 0.264040780676554 
593	 0.262105155942174 
594	 0.260281946020442 
595	 0.259158389690276 
596	 0.258149074519975 
597	 0.256469315100623 
598	 0.254566543256689 
599	 0.253046153687481 
600	 0.252013422419623 
601	 0.251042108091381 
602	 0.249001301602099 
603	 0.246919972329639 
604	 0.245454697008964 
605	 0.243027630563907 
606	 0.240906721992831 
607	 0.238894906352209 
608	 0.236233872036361 
609	 0.233722542237775 
610	 0.231093888259422 
611	 0.228441125693022 
612	 0.226472433144273 
613	 0.223877868420072 
614	 0.221080864968944 
615	 0.218649601262616 
616	 0.215718915393281 
617	 0.213118417402303 
618	 0.210971757127423 
619	 0.208847545265451 
620	 0.206687813622831 
621	 0.205359484827307 
622	 0.204796999069143 
623	 0.202881856626507 
624	 0.201304864149116 
625	 0.200104756887508 
626	 0.198947720357905 
627	 0.198688634318761 
628	 0.19819114345587 
629	 0.19725891993897 
630	 0.196678310356637 
631	 0.196574348121967 
632	 0.196003717878229 
633	 0.194404352008788 
634	 0.192597630691156 
635	 0.191055801654192 
636	 0.189385261765259 
637	 0.18698903279008 
638	 0.185011523860261 
639	 0.182771344222654 
640	 0.180000102385201 
641	 0.177202562292768 
642	 0.174096994689661 
643	 0.171072595674429 
644	 0.16838633978971 
645	 0.165488307915922 
646	 0.162442064856487 
647	 0.159595358076698 
648	 0.157377121544498 
649	 0.155120647288564 
650	 0.152817285403695 
651	 0.150812652570143 
652	 0.149757224013688 
653	 0.148782129091313 
654	 0.147239317929106 
655	 0.144963267955249 
656	 0.143842870107034 
657	 0.142330061059402 
658	 0.140127608398494 
659	 0.137788101294118 
660	 0.135936351366416 
661	 0.133439108378439 
662	 0.130173939752034 
663	 0.12826979165392 
664	 0.126196054459949 
665	 0.12381558627352 
666	 0.121492125649938 
667	 0.11968731937332 
668	 0.117744406834702 
669	 0.115847810919627 
670	 0.114872866508302 
671	 0.113692523586119 
672	 0.112742025646498 
673	 0.112294813375375 
674	 0.11152574792877 
675	 0.111139576760901 
676	 0.111204649511313 
677	 0.11147253058275 
678	 0.1113911447521 
679	 0.111770187904337 
680	 0.112670975727434 
681	 0.113367651477669 
682	 0.11550159539558 
683	 0.118031550515453 
684	 0.120289883653678 
685	 0.123906346390069 
686	 0.129013077990631 
687	 0.135647376412115 
688	 0.142998561961878 
689	 0.150502984355472 
690	 0.158976840574394 
691	 0.168896616661942 
692	 0.179723887502656 
693	 0.191830365551333 
694	 0.205227140244489 
695	 0.219847597793752 
696	 0.235768116620536 
697	 0.253277376285885 
698	 0.270875404693525 
699	 0.286841161314935 
700	 0.304762262718317 
701	 0.323302510573728 
702	 0.341678498107659 
703	 0.360281629050934 
704	 0.378035690953563 
705	 0.395667788132141 
706	 0.41396824826489 
707	 0.432402901086137 
708	 0.450929136478176 
709	 0.469281081522696 
710	 0.487185410445922 
711	 0.506104062406791 
712	 0.525240058883545 
713	 0.544172586903849 
714	 0.563188262082367 
715	 0.581563005173431 
716	 0.598719098415999 
717	 0.615506496825685 
718	 0.63486047190766 
719	 0.6559316060309 
720	 0.678415547134233 
721	 0.70174203677104 
722	 0.723154296494334 
723	 0.7431324680144 
724	 0.763037868109929 
725	 0.782787971991749 
726	 0.803171157467532 
727	 0.823945292990712 
728	 0.845003394098835 
729	 0.865509837860997 
730	 0.885141443749857 
731	 0.904683259505328 
732	 0.925041998432896 
733	 0.944568932411818 
734	 0.962407785920563 
735	 0.978999676616558 
736	 0.995393029224665 
737	 1.01031266010396 
738	 1.02440112718685 
739	 1.03827209966558 
740	 1.05123269865924 
741	 1.06336483949744 
742	 1.0747835246789 
743	 1.08539585780224 
744	 1.09461008988304 
745	 1.10282663047798 
746	 1.11051137850071 
747	 1.11800183317245 
748	 1.12417516770567 
749	 1.12931558056864 
750	 1.13391270594328 
751	 1.13844437588274 
752	 1.14241274554289 
753	 1.145614803101 
754	 1.14807387947031 
755	 1.150223603027 
756	 1.15186718527653 
757	 1.15253195689632 
758	 1.15200858661621 
759	 1.15393655647043 
760	 1.15680294982276 
761	 1.15823276104254 
762	 1.1568757103261 
763	 1.15697271707522 
764	 1.15661685783001 
765	 1.15510042552955 
766	 1.15637322832363 
767	 1.15544367848052 
768	 1.15365918294383 
769	 1.15335647655288 
770	 1.15308091405563 
771	 1.15210747097702 
772	 1.1508985255016 
773	 1.15063628628701 
774	 1.14863230910726 
775	 1.14719071944715 
776	 1.14700385620095 
777	 1.1448083843764 
778	 1.14308746079729 
779	 1.14216194056243 
780	 1.1414726614493 
781	 1.13957865143497 
782	 1.1381072415867 
783	 1.13716851716496 
784	 1.13597490797474 
785	 1.13396686033181 
786	 1.1316690150633 
787	 1.12955406977159 
788	 1.12786050327338 
789	 1.12537968062118 
790	 1.12314389784764 
791	 1.12193551010311 
792	 1.12118362941137 
793	 1.12043256786242 
794	 1.11924621579971 
795	 1.11734120096719 
796	 1.11457804528679 
797	 1.11303806790673 
798	 1.11248279360991 
799	 1.11135314193082 
800	 1.10978681964205 
801	 1.10799557835072 
802	 1.10621168898124 
803	 1.10463359057304 
804	 1.10390116097432 
805	 1.10306871196186 
806	 1.10171067382776 
807	 1.10118338372955 
808	 1.09905809458905 
809	 1.09640976821373 
810	 1.09448740821383 
811	 1.09056801402482 
812	 1.08647632024377 
813	 1.08265558851455 
814	 1.07871449973097 
815	 1.07448585653814 
816	 1.07141248492331 
817	 1.06991649860291 
818	 1.06909925669144 
819	 1.06942793848386 
820	 1.06972851965891 
821	 1.06926506233701 
822	 1.06842061005214 
823	 1.06726845852683 
824	 1.06595076217357 
825	 1.06481437743972 
826	 1.06467476650292 
827	 1.06414529154879 
828	 1.06314290974528 
829	 1.06202397922561 
830	 1.05996707191065 
831	 1.05905348124674 
832	 1.05896593959722 
833	 1.05787172403823 
834	 1.05804790309735 
835	 1.05830099971722 
836	 1.05801442334367 
837	 1.05772270372642 
838	 1.0573846320546 
839	 1.05683537814162 
840	 1.05602161391154 
841	 1.05514239734038 
842	 1.05453019930537 
843	 1.05389326610225 
844	 1.05293156246702 
845	 1.05199374339072 
846	 1.05062403095943 
847	 1.04953748989039 
848	 1.04942811263012 
849	 1.04820101215612 
850	 1.04607808125756 
851	 1.04449365298407 
852	 1.045117143808 
853	 1.0450050211042 
854	 1.04366226573084 
855	 1.04162008577181 
856	 1.04017036493684 
857	 1.03929167877205 
858	 1.03796369146467 
859	 1.03627388123559 
860	 1.0362618036272 
861	 1.03503687247437 
862	 1.03342251781454 
863	 1.03270810982988 
864	 1.03306577037899 
865	 1.03208231593043 
866	 1.03097973142109 
867	 1.03110191159728 
868	 1.02896609010331 
869	 1.02670246613895 
870	 1.02533774460781 
871	 1.02487915335997 
872	 1.02368434248604 
873	 1.0231365112244 
874	 1.02273006188174 
875	 1.02091025728674 
876	 1.01953295383309 
877	 1.01826057583158 
878	 1.01689812314097 
879	 1.01562538277335 
880	 1.01485179792055 
881	 1.01375788691929 
882	 1.01198641910882 
883	 1.01008102191931 
884	 1.0091023744648 
885	 1.00840600984598 
886	 1.00741994237991 
887	 1.00643289303879 
888	 1.00465696194364 
889	 1.00200190163529 
890	 0.999148875724254 
891	 0.998216017784498 
892	 0.995763678246955 
893	 0.992222558859078 
894	 0.988829088078346 
895	 0.984628797150009 
896	 0.981648180415348 
897	 0.979371924862654 
898	 0.97670451539608 
899	 0.975423653549836 
900	 0.975050490730881 
901	 0.973937709424957 
902	 0.971265034191213 
903	 0.973114260646092 
904	 0.972474737571294 
905	 0.969657160158108 
906	 0.969090651458431 
907	 0.967367851741404 
908	 0.963987650558322 
909	 0.960424711629003 
910	 0.959062021024509 
911	 0.957557784829984 
912	 0.955500462759401 
913	 0.95338841567301 
914	 0.952161708454332 
915	 0.949904477818436 
916	 0.949220396875676 
917	 0.950369946203694 
918	 0.950468848157245 
919	 0.949066123481407 
920	 0.948641716128274 
921	 0.949071946545133 
922	 0.946744303103298 
923	 0.945392287369286 
924	 0.943082843527642 
925	 0.939067313140303 
926	 0.935770989907724 
927	 0.930358494739423 
928	 0.925640070265769 
929	 0.92155627567983 
930	 0.910730911700683 
931	 0.906808728261198 
932	 0.901707742564464 
933	 0.889866030148445 
934	 0.884967739690729 
935	 0.88250425769814 
936	 0.877835761669839 
937	 0.872326659615565 
938	 0.877475636480434 
939	 0.877821795944425 
940	 0.87530052967134 
941	 0.874213780304794 
942	 0.875277122210103 
943	 0.874951770040638 
944	 0.873104446219125 
945	 0.870152242525739 
946	 0.865778858731004 
947	 0.862071868548655 
948	 0.857649786276886 
949	 0.853283159413918 
950	 0.855493174202289 
951	 0.854162612140352 
952	 0.847467747005115 
953	 0.839790765959419 
954	 0.842056316613931 
955	 0.841924967214034 
956	 0.839412471285058 
957	 0.836996733986395 
958	 0.83541621470554 
959	 0.831944718146973 
960	 0.830523665031785 
961	 0.833240511681072 
962	 0.836034163283248 
963	 0.835733143103278 
964	 0.832972745647744 
965	 0.831322227732875 
966	 0.836398372319219 
967	 0.834822742476516 
968	 0.83311469784659 
969	 0.834589325732863 
970	 0.831489686754796 
971	 0.835759426986042 
972	 0.836580731043851 
973	 0.831049867500988 
974	 0.83294280606343 
975	 0.832233542117254 
976	 0.830694225736013 
977	 0.830705057866507 
978	 0.832261005645472 
979	 0.831433905870767 
980	 0.831341663108308 
981	 0.833166397149752 
982	 0.834489770964619 
983	 0.83154890457607 
984	 0.831793510360536 
985	 0.835748230649434 
986	 0.836969466773924 
987	 0.838600442448784 
988	 0.837661581259968 
989	 0.834140939918247 
990	 0.831555173411024 
991	 0.837410574239513 
992	 0.839062307287097 
993	 0.836936621330914 
994	 0.839187268600213 
995	 0.842321424424769 
996	 0.838169176850947 
997	 0.836628354941842 
998	 0.847501036125223 
999	 0.84260711141774 
1000	 0.839573730122064 
1001	 0.863190010899209 
1002	 0.864255109669013 
1003	 0.864888711401123 
1004	 0.864846342575303 
1005	 0.865228442089197 
1006	 0.865932541192613 
1007	 0.866563181460718 
1008	 0.866984859683975 
1009	 0.867428502651438 
1010	 0.868145568049879 
1011	 0.86882220030435 
1012	 0.868572181825668 
1013	 0.86861913038512 
1014	 0.868854531990966 
1015	 0.869149906220046 
1016	 0.86977943213754 
1017	 0.870723814657827 
1018	 0.871687901947642 
1019	 0.872933307755607 
1020	 0.873724387795924 
1021	 0.87445676436875 
1022	 0.874936592657632 
1023	 0.87498356342962 
1024	 0.87520052717269 
1025	 0.875612546524503 
1026	 0.876256269474254 
1027	 0.876829388617163 
1028	 0.877060318949601 
1029	 0.876708786038223 
1030	 0.87670763427012 
1031	 0.877316605422389 
1032	 0.877346464239682 
1033	 0.877383485258435 
1034	 0.87758103410831 
1035	 0.877759330146332 
1036	 0.877402715591242 
1037	 0.877567710621348 
1038	 0.878144943885054 
1039	 0.878800626168449 
1040	 0.878952968230234 
1041	 0.879312423020868 
1042	 0.879483670613846 
1043	 0.879367798434762 
1044	 0.879252111068908 
1045	 0.878901017884473 
1046	 0.878591094798529 
1047	 0.878143866208484 
1048	 0.877842069264486 
1049	 0.878350708003132 
1050	 0.878631137175543 
1051	 0.879195640366492 
1052	 0.879121284710455 
1053	 0.879436520912854 
1054	 0.879537670476648 
1055	 0.879075451490819 
1056	 0.879430067971298 
1057	 0.87955510951938 
1058	 0.879513731324531 
1059	 0.879626124475198 
1060	 0.879286839798286 
1061	 0.879251762576101 
1062	 0.878957276185748 
1063	 0.878869810210947 
1064	 0.879779596100837 
1065	 0.880024641177588 
1066	 0.88002905786274 
1067	 0.879750296450392 
1068	 0.879905084588687 
1069	 0.879484915390996 
1070	 0.879165661682854 
1071	 0.879345850490962 
1072	 0.878831234915503 
1073	 0.878041589530385 
1074	 0.877523590067281 
1075	 0.876756811508623 
1076	 0.875984279529762 
1077	 0.875465995865502 
1078	 0.874736810430063 
1079	 0.874240512821271 
1080	 0.874183335909514 
1081	 0.873593858791587 
1082	 0.872795664955668 
1083	 0.871771999726508 
1084	 0.870835138031166 
1085	 0.869865199330449 
1086	 0.868865339126405 
1087	 0.868102522839017 
1088	 0.86747314038292 
1089	 0.865979259076932 
1090	 0.864265144135155 
1091	 0.863017758538694 
1092	 0.861333388441945 
1093	 0.859859460468911 
1094	 0.858733208242271 
1095	 0.857141465117849 
1096	 0.855562674246915 
1097	 0.854079340616086 
1098	 0.852033432211511 
1099	 0.849549245263531 
1100	 0.847304334265501 
1101	 0.844836273047084 
1102	 0.842449372742221 
1103	 0.840726876424294 
1104	 0.838790064530246 
1105	 0.836696732072757 
1106	 0.834598645268109 
1107	 0.831793955327078 
1108	 0.828643012566725 
1109	 0.825370669573079 
1110	 0.821619463548883 
1111	 0.81766539502019 
1112	 0.813206138519744 
1113	 0.808908095613168 
1114	 0.804245724013784 
1115	 0.799172314254974 
1116	 0.793653699605803 
1117	 0.78857460686584 
1118	 0.783034965034328 
1119	 0.776925026825082 
1120	 0.771090775769808 
1121	 0.765482187937427 
1122	 0.759903916271027 
1123	 0.755496256129808 
1124	 0.752209898659694 
1125	 0.749139682006052 
1126	 0.746222077665422 
1127	 0.743732923008852 
1128	 0.741423343680074 
1129	 0.739822154933551 
1130	 0.737645731899813 
1131	 0.735905618565373 
1132	 0.733587562013496 
1133	 0.730882783653592 
1134	 0.727919303829113 
1135	 0.725340052635004 
1136	 0.721918925760669 
1137	 0.718525463527124 
1138	 0.715327597405803 
1139	 0.711175395368421 
1140	 0.70665034848595 
1141	 0.701349530139152 
1142	 0.695637882635531 
1143	 0.690322524739778 
1144	 0.68461637080815 
1145	 0.679457200951493 
1146	 0.674768550577138 
1147	 0.670059046303347 
1148	 0.665149138482461 
1149	 0.661208875647789 
1150	 0.657949428305136 
1151	 0.655142122627838 
1152	 0.652908146915441 
1153	 0.651342339305388 
1154	 0.650177876660996 
1155	 0.64892863636298 
1156	 0.648296153658922 
1157	 0.648049004440341 
1158	 0.647700650090821 
1159	 0.647086028518313 
1160	 0.646611643538103 
1161	 0.64605122151974 
1162	 0.645700297566084 
1163	 0.645587370516073 
1164	 0.645221843269993 
1165	 0.644839628167751 
1166	 0.6442378298929 
1167	 0.643328997060976 
1168	 0.6427247037613 
1169	 0.64219003112504 
1170	 0.641599547477301 
1171	 0.641142381809778 
1172	 0.640443664919722 
1173	 0.639527425029876 
1174	 0.638849836668278 
1175	 0.638303894694176 
1176	 0.637482038631747 
1177	 0.636605125319999 
1178	 0.635676609276483 
1179	 0.634618288983814 
1180	 0.633277851382153 
1181	 0.632246248715796 
1182	 0.631209296051941 
1183	 0.630301520145854 
1184	 0.629622202668295 
1185	 0.628859855388165 
1186	 0.628181681682942 
1187	 0.62743586600959 
1188	 0.626619634143924 
1189	 0.625836993803791 
1190	 0.625254320956078 
1191	 0.624655383214674 
1192	 0.624254743405896 
1193	 0.623954481699244 
1194	 0.62351272487667 
1195	 0.623006572741766 
1196	 0.622541421597702 
1197	 0.621976672464757 
1198	 0.621565785406017 
1199	 0.621175045090438 
1200	 0.620888619350338 
1201	 0.620826741250518 
1202	 0.620656547532671 
1203	 0.620426643066987 
1204	 0.620311281134976 
1205	 0.620045597566654 
1206	 0.62007177403281 
1207	 0.620523532924644 
1208	 0.620736384301915 
1209	 0.620846523687241 
1210	 0.621164748423176 
1211	 0.621577724823909 
1212	 0.621869836283165 
1213	 0.622392435906216 
1214	 0.623211552056714 
1215	 0.623953905886697 
1216	 0.624663770300323 
1217	 0.625507858014916 
1218	 0.626536928379624 
1219	 0.627479444251555 
1220	 0.628434753654684 
1221	 0.629387786521141 
1222	 0.63037949806195 
1223	 0.631315437754279 
1224	 0.632244361092382 
1225	 0.633109421198844 
1226	 0.633858002388049 
1227	 0.634708117268859 
1228	 0.635614576287401 
1229	 0.636469651296205 
1230	 0.637289236797696 
1231	 0.638141944433787 
1232	 0.638888147426563 
1233	 0.639502069295483 
1234	 0.640187147266672 
1235	 0.640937515913051 
1236	 0.641546177950904 
1237	 0.642004643185476 
1238	 0.642628586511609 
1239	 0.643313295923778 
1240	 0.643868419389463 
1241	 0.64462594697819 
1242	 0.645029732141845 
1243	 0.644992145117293 
1244	 0.645225457608721 
1245	 0.645465314720684 
1246	 0.645655316729741 
1247	 0.645986195279362 
1248	 0.646214979917535 
1249	 0.64621496255949 
1250	 0.646331121645778 
1251	 0.646557553673622 
1252	 0.64669890752367 
1253	 0.646878276032794 
1254	 0.647240343974209 
1255	 0.647129616418304 
1256	 0.646735692314102 
1257	 0.646523907241315 
1258	 0.646032659998559 
1259	 0.645772196379102 
1260	 0.645766480452672 
1261	 0.645644182115544 
1262	 0.645481775921517 
1263	 0.645290841702455 
1264	 0.645164458802156 
1265	 0.644953318580034 
1266	 0.64459827433986 
1267	 0.644318100083711 
1268	 0.644084543072547 
1269	 0.643800639730819 
1270	 0.64353099960657 
1271	 0.643228157064382 
1272	 0.642834348805261 
1273	 0.642517061976146 
1274	 0.642195621780609 
1275	 0.641901566000537 
1276	 0.6415298703422 
1277	 0.641173434971512 
1278	 0.640738611569611 
1279	 0.640239445074325 
1280	 0.639687538530673 
1281	 0.63907103324316 
1282	 0.63846613594632 
1283	 0.637784499260184 
1284	 0.637152291028827 
1285	 0.636700949181289 
1286	 0.635933995132313 
1287	 0.63495001080654 
1288	 0.634062700506514 
1289	 0.633245071868161 
1290	 0.632066468561391 
1291	 0.630726497044522 
1292	 0.629380364287259 
1293	 0.627658527526769 
1294	 0.626008930549903 
1295	 0.624566540443798 
1296	 0.622946047011258 
1297	 0.621078722563164 
1298	 0.61892117354521 
1299	 0.61695097340364 
1300	 0.614866344486197 
1301	 0.612797831077318 
1302	 0.61095784904955 
1303	 0.608619475612066 
1304	 0.605963722445939 
1305	 0.603323380483834 
1306	 0.600302815109779 
1307	 0.597574920788858 
1308	 0.59508258759423 
1309	 0.592273997386421 
1310	 0.589439273443441 
1311	 0.586452494666116 
1312	 0.583146290283076 
1313	 0.579922725264912 
1314	 0.576828024777738 
1315	 0.573482204781984 
1316	 0.56980935803217 
1317	 0.566370064005654 
1318	 0.562937572879449 
1319	 0.559448616512617 
1320	 0.556174037002067 
1321	 0.552828242275748 
1322	 0.5488760624267 
1323	 0.544334248291753 
1324	 0.540155834689515 
1325	 0.535594721072712 
1326	 0.531259886083873 
1327	 0.527272307953364 
1328	 0.522739189311145 
1329	 0.517680212970278 
1330	 0.513011827510967 
1331	 0.50830524176865 
1332	 0.503715270269856 
1333	 0.499233472570271 
1334	 0.495136969216935 
1335	 0.491370526663939 
1336	 0.48754456001984 
1337	 0.484278972307067 
1338	 0.480485229366488 
1339	 0.475644373041398 
1340	 0.471601318537054 
1341	 0.467511481562976 
1342	 0.463426119829642 
1343	 0.459371324189967 
1344	 0.455358973951441 
1345	 0.451267223564194 
1346	 0.44602312807683 
1347	 0.440851016747919 
1348	 0.435742121457753 
1349	 0.430027209153124 
1350	 0.42321055923738 
1351	 0.416140372462101 
1352	 0.409650512879337 
1353	 0.401275171181888 
1354	 0.392732187356661 
1355	 0.381830642670319 
1356	 0.372483238118024 
1357	 0.360322564622292 
1358	 0.357875465359425 
1359	 0.34631128054222 
1360	 0.346275976377264 
1361	 0.334101159388953 
1362	 0.311937039470855 
1363	 0.293061846672861 
1364	 0.291025424604985 
1365	 0.282710057095492 
1366	 0.293152123723915 
1367	 0.287484545002238 
1368	 0.274271691005899 
1369	 0.269409350358671 
1370	 0.265504288108491 
1371	 0.262009117301477 
1372	 0.258600802198911 
1373	 0.258896863025406 
1374	 0.26407661429633 
1375	 0.262988056755175 
1376	 0.25877417752099 
1377	 0.258606614126503 
1378	 0.254406905262189 
1379	 0.245703161654597 
1380	 0.23662567747409 
1381	 0.227125496121482 
1382	 0.216641917315756 
1383	 0.20093321313014 
1384	 0.193193958900284 
1385	 0.189824598872401 
1386	 0.187442279455398 
1387	 0.18916481463054 
1388	 0.187856722563171 
1389	 0.18895417937404 
1390	 0.184391981593732 
1391	 0.174856365645991 
1392	 0.170054110133707 
1393	 0.164209984403071 
1394	 0.160470198782419 
1395	 0.161044676641779 
1396	 0.158491182560584 
1397	 0.154747687697185 
1398	 0.150377243942449 
1399	 0.143477175891964 
1400	 0.139510463604346 
1401	 0.138458946108823 
1402	 0.134411476137289 
1403	 0.128224893053624 
1404	 0.125909958608854 
1405	 0.126047620287585 
1406	 0.122591234033702 
1407	 0.119288795423397 
1408	 0.118915912650017 
1409	 0.114604128080511 
1410	 0.109577248905026 
1411	 0.108954091758238 
1412	 0.111518537573395 
1413	 0.110687075867185 
1414	 0.109690420377211 
1415	 0.109790506632427 
1416	 0.109162322056543 
1417	 0.108631152857874 
1418	 0.110264644825487 
1419	 0.108816763434275 
1420	 0.104435225095129 
1421	 0.103494009258096 
1422	 0.103140981632844 
1423	 0.102593261708548 
1424	 0.103833498662681 
1425	 0.103440410107201 
1426	 0.101024452452107 
1427	 0.100762558828406 
1428	 0.10164947527507 
1429	 0.101530267988321 
1430	 0.102165427440414 
1431	 0.102043816863134 
1432	 0.100290712379229 
1433	 9.98646906057671E-02 
1434	 0.100429972582747 
1435	 0.100201836980073 
1436	 9.99433442863509E-02 
1437	 9.97495532073703E-02 
1438	 9.91522873049304E-02 
1439	 9.86746667893155E-02 
1440	 0.098266232489057 
1441	 9.81582049738445E-02 
1442	 9.82446528947619E-02 
1443	 0.09809370939167 
1444	 9.82724151290318E-02 
1445	 9.83661348554196E-02 
1446	 9.85541127103399E-02 
1447	 9.90414892876073E-02 
1448	 9.93585322996862E-02 
1449	 9.98534099168574E-02 
1450	 0.100364920191409 
1451	 0.100763465644837 
1452	 0.101143782239461 
1453	 0.101702329691875 
1454	 0.102105132887302 
1455	 0.102323051235451 
1456	 0.102584563819913 
1457	 0.103048364648715 
1458	 0.103139400178324 
1459	 0.102953009594859 
1460	 0.102923136129336 
1461	 0.102885081082147 
1462	 0.102656582200904 
1463	 0.102284488559681 
1464	 0.102148054068707 
1465	 0.101567731138357 
1466	 0.101757849773379 
1467	 0.102798805793148 
1468	 0.103433806598577 
1469	 0.104085684957317 
1470	 0.105103568492958 
1471	 0.106404208447604 
1472	 0.107152463029721 
1473	 0.107720178769249 
1474	 0.10865135632071 
1475	 0.109169921973549 
1476	 0.109987316751642 
1477	 0.111324080819116 
1478	 0.112563597537497 
1479	 0.113691355480843 
1480	 0.114881040977801 
1481	 0.11632148843177 
1482	 0.117536763428862 
1483	 0.118499724557449 
1484	 0.119587208806908 
1485	 0.120434270259324 
1486	 0.121665351031614 
1487	 0.123268336596613 
1488	 0.124596616191899 
1489	 0.125905265203145 
1490	 0.127678086307247 
1491	 0.128988476104437 
1492	 0.130005270258356 
1493	 0.131516524024591 
1494	 0.132542447175291 
1495	 0.133686102157976 
1496	 0.134814321220094 
1497	 0.136189063858963 
1498	 0.137597592664096 
1499	 0.13897417374059 
1500	 0.140665566786435 
1501	 0.141960765421383 
1502	 0.142894573204121 
1503	 0.144192128950127 
1504	 0.145588716912224 
1505	 0.146912729852219 
1506	 0.148359126218993 
1507	 0.149683491258164 
1508	 0.150910299824486 
1509	 0.152088907178564 
1510	 0.15323177366939 
1511	 0.154386284848813 
1512	 0.155421061818052 
1513	 0.156599996314811 
1514	 0.157836385890722 
1515	 0.159158988713027 
1516	 0.160685674254402 
1517	 0.161960788527827 
1518	 0.163228555236476 
1519	 0.164423135978851 
1520	 0.16524668304143 
1521	 0.166546795908858 
1522	 0.16820460391225 
1523	 0.169583953136636 
1524	 0.171053797383564 
1525	 0.172472373229876 
1526	 0.173812363961615 
1527	 0.174984718292222 
1528	 0.176073877590798 
1529	 0.177257870060291 
1530	 0.178170008953276 
1531	 0.179350797197001 
1532	 0.180951739487943 
1533	 0.18225452878968 
1534	 0.183400044743944 
1535	 0.184659015691002 
1536	 0.185944114614683 
1537	 0.187106575047368 
1538	 0.188161006972241 
1539	 0.189411245061804 
1540	 0.190700690927138 
1541	 0.191912375027039 
1542	 0.193377878922438 
1543	 0.194612218239916 
1544	 0.195450132143864 
1545	 0.196548335952776 
1546	 0.197824676773623 
1547	 0.198947571610008 
1548	 0.200150520196223 
1549	 0.201240894308327 
1550	 0.201987037826988 
1551	 0.20300898028185 
1552	 0.204214271170587 
1553	 0.205361400826429 
1554	 0.20678934699551 
1555	 0.207934419443289 
1556	 0.208703082554879 
1557	 0.209700091549877 
1558	 0.210710172835135 
1559	 0.211701449785343 
1560	 0.212855769476587 
1561	 0.213961652382933 
1562	 0.21507876836231 
1563	 0.216042809255194 
1564	 0.216811992453908 
1565	 0.217785985648155 
1566	 0.218721695660707 
1567	 0.219459165456041 
1568	 0.220376742084928 
1569	 0.221425677015512 
1570	 0.222483297179889 
1571	 0.223508585880323 
1572	 0.224680977562857 
1573	 0.226051039660598 
1574	 0.227185986925169 
1575	 0.228272263951272 
1576	 0.229330442631124 
1577	 0.230310124681925 
1578	 0.231176926014026 
1579	 0.231983817780271 
1580	 0.232775769280101 
1581	 0.233377022588656 
1582	 0.234207407044896 
1583	 0.235192574691855 
1584	 0.236002492774933 
1585	 0.236786728701721 
1586	 0.237621855874435 
1587	 0.238407175817114 
1588	 0.239199040454492 
1589	 0.24014024194764 
1590	 0.240780421750587 
1591	 0.241143103099907 
1592	 0.241860320473131 
1593	 0.242582506684392 
1594	 0.243381264542657 
1595	 0.244434135441143 
1596	 0.245325446004112 
1597	 0.246101693658955 
1598	 0.247003411046293 
1599	 0.248084796991589 
1600	 0.248842115410266 
1601	 0.249452106373821 
1602	 0.250150040473733 
1603	 0.250632267531133 
1604	 0.251396737077922 
1605	 0.25244916352355 
1606	 0.25317110572751 
1607	 0.253844523780973 
1608	 0.25444760378958 
1609	 0.254785015184199 
1610	 0.25542388267683 
1611	 0.256193795030447 
1612	 0.256871533696336 
1613	 0.257633439124659 
1614	 0.258324859659828 
1615	 0.258957053507679 
1616	 0.259560246161879 
1617	 0.26016534694643 
1618	 0.260734578109845 
1619	 0.26111900605225 
1620	 0.261845142655157 
1621	 0.262883104485355 
1622	 0.263433954886912 
1623	 0.263932380096096 
1624	 0.264416545950369 
1625	 0.26454295998678 
1626	 0.264937777836599 
1627	 0.265598133973643 
1628	 0.266061080360216 
1629	 0.266425455084002 
1630	 0.266767406128289 
1631	 0.267007535418242 
1632	 0.267489936468776 
1633	 0.268091721787829 
1634	 0.268508540232891 
1635	 0.269066018957179 
1636	 0.269436990524118 
1637	 0.269450367782419 
1638	 0.269832868988695 
1639	 0.270509757481254 
1640	 0.270732619536983 
1641	 0.270767466673677 
1642	 0.271096362376303 
1643	 0.271308930640821 
1644	 0.271578851465104 
1645	 0.272249427922074 
1646	 0.272359191678388 
1647	 0.272023197915097 
1648	 0.272035139308098 
1649	 0.272030704709354 
1650	 0.271994925288821 
1651	 0.272141169856076 
1652	 0.271967138145342 
1653	 0.271480274811975 
1654	 0.271425547120924 
1655	 0.271468262558834 
1656	 0.271304154151344 
1657	 0.271372465376997 
1658	 0.270830682164392 
1659	 0.270207598787493 
1660	 0.270186259861238 
1661	 0.270132130491016 
1662	 0.270176022308485 
1663	 0.270313255952528 
1664	 0.269940609129288 
1665	 0.269620750914196 
1666	 0.269483516286023 
1667	 0.269581174305489 
1668	 0.26987942169276 
1669	 0.269896963398514 
1670	 0.270081712535479 
1671	 0.270085739044419 
1672	 0.269880112142081 
1673	 0.270118900947834 
1674	 0.270214367628199 
1675	 0.270203083434546 
1676	 0.270383600877444 
1677	 0.270302743137507 
1678	 0.27016981732378 
1679	 0.270343819216372 
1680	 0.270603069556001 
1681	 0.270761246310086 
1682	 0.270609239233587 
1683	 0.270189366481059 
1684	 0.269804443475188 
1685	 0.269542908206376 
1686	 0.269430623927595 
1687	 0.269441643515004 
1688	 0.269408877419117 
1689	 0.269048857201976 
1690	 0.268383859858058 
1691	 0.267926039294337 
1692	 0.267195770015523 
1693	 0.266723607862866 
1694	 0.266695083606483 
1695	 0.266426584811881 
1696	 0.266141899750726 
1697	 0.265781326104422 
1698	 0.265256479683189 
1699	 0.26479260563285 
1700	 0.264383554729088 
1701	 0.263779335201432 
1702	 0.263212496939847 
1703	 0.262511955061332 
1704	 0.261464279696105 
1705	 0.260646094854992 
1706	 0.259700573205434 
1707	 0.258945502095257 
1708	 0.258562968194268 
1709	 0.257909232997448 
1710	 0.257307404048898 
1711	 0.256569206308984 
1712	 0.25536064818833 
1713	 0.254682068055669 
1714	 0.254435704103163 
1715	 0.25372735021337 
1716	 0.253104968868203 
1717	 0.252373096101466 
1718	 0.251050091775148 
1719	 0.250390760172498 
1720	 0.250214876654496 
1721	 0.249565589708845 
1722	 0.249018332028823 
1723	 0.24822685109918 
1724	 0.247108574502514 
1725	 0.246290907416534 
1726	 0.245468734241982 
1727	 0.244663990339509 
1728	 0.243836352160491 
1729	 0.243176543006321 
1730	 0.242623659690163 
1731	 0.242277296762216 
1732	 0.241968069438735 
1733	 0.241799885994343 
1734	 0.241380802933986 
1735	 0.240613354785161 
1736	 0.240201919750559 
1737	 0.239219786585365 
1738	 0.238528583033327 
1739	 0.238544480512368 
1740	 0.237846431459203 
1741	 0.237854902700294 
1742	 0.237801538577079 
1743	 0.236730766209613 
1744	 0.236090674968942 
1745	 0.235171509714118 
1746	 0.23385326381487 
1747	 0.233049225131108 
1748	 0.232528628951248 
1749	 0.231617722183154 
1750	 0.230675572786228 
1751	 0.230129828858375 
1752	 0.229430556045109 
1753	 0.229061162288604 
1754	 0.228807530089791 
1755	 0.227934214957339 
1756	 0.226829410186772 
1757	 0.225423869808442 
1758	 0.224670696675368 
1759	 0.224530540570916 
1760	 0.223879218136902 
1761	 0.223230510537539 
1762	 0.222452172976829 
1763	 0.221590797837525 
1764	 0.2203803796524 
1765	 0.21876150775772 
1766	 0.21781584924067 
1767	 0.216656873638896 
1768	 0.215798563122311 
1769	 0.215771067448806 
1770	 0.215324498742122 
1771	 0.214626553526204 
1772	 0.214073954683737 
1773	 0.213649136163428 
1774	 0.21229193876427 
1775	 0.211494809306118 
1776	 0.210471578940242 
1777	 0.210092466629713 
1778	 0.209881170271166 
1779	 0.209497886986064 
1780	 0.209134567916984 
1781	 0.208185422305652 
1782	 0.20822995638642 
1783	 0.208772995579828 
1784	 0.20846484014924 
1785	 0.208166951463328 
1786	 0.206839084958226 
1787	 0.204585525241673 
1788	 0.203199858866974 
1789	 0.203154605407975 
1790	 0.20482103583281 
1791	 0.205667254549521 
1792	 0.205431426913536 
1793	 0.204784644048965 
1794	 0.202043350555593 
1795	 0.200187554887046 
1796	 0.199156613844819 
1797	 0.198306008880023 
1798	 0.198447016315238 
1799	 0.197929874581219 
1800	 0.199685163839674 
1801	 0.195010528514594 
1802	 0.18895064634795 
1803	 0.187094225794314 
1804	 0.187580041487477 
1805	 0.187778801186132 
1806	 0.192186818045143 
1807	 0.193376405795613 
1808	 0.191630001893467 
1809	 0.192295813056778 
1810	 0.192444476055435 
1811	 0.192059215213508 
1812	 0.190607124182459 
1813	 0.189014501624944 
1814	 0.187204740833842 
1815	 0.180870229702232 
1816	 0.179030728448901 
1817	 0.185732082268292 
1818	 0.185173210527694 
1819	 0.182262432916705 
1820	 0.175009346868536 
1821	 0.174739939229593 
1822	 0.171095264857963 
1823	 0.172283402818332 
1824	 0.189781693002773 
1825	 0.197495550848301 
1826	 0.198225283174556 
1827	 0.201374608162648 
1828	 0.203968543768797 
1829	 0.204019921740285 
1830	 0.206905834542666 
1831	 0.209465541532086 
1832	 0.215650549018483 
1833	 0.244551994887134 
1834	 0.244491893261688 
1835	 0.197271222819107 
1836	 0.177228026737812 
1837	 0.10751381000386 
1838	 9.39360444839718E-02 
1839	 0.118754369109343 
1840	 0.266806162117842 
1841	 0.291256946792272 
1842	 0.302895050182421 
1843	 0.296200036726189 
1844	 0.182129221789344 
1845	 0.162346575861025 
1846	 0.166737802841369 
1847	 0.193868320143889 
1848	 0.245364259487737 
1849	 0.368057110147236 
1850	 0.399497263564462 
1851	 0.427803536011901 
1852	 0.427132183727726 
1853	 0.368413864221465 
1854	 0.315455826530603 
1855	 0.248497322915497 
1856	 0.211088880254359 
1857	 0.183261524623842 
1858	 0.139039497906028 
1859	 0.118909149481598 
1860	 0.122494008911901 
1861	 0.122077286875777 
1862	 0.104700365033856 
1863	 0.119554269980564 
1864	 0.191171570037161 
1865	 0.206251527149536 
1866	 0.21122082299065 
1867	 0.210384191876271 
1868	 0.160414394735347 
1869	 0.161750698095652 
1870	 0.139207997134375 
1871	 0.131813660927368 
1872	 0.125460590793897 
1873	 0.107704859466747 
1874	 9.89383607575991E-02 
1875	 0.130791135844636 
1876	 0.121476706848356 
1877	 0.103693426271582 
1878	 6.55562291225425E-02 
1879	 3.32884706466407E-02 
1880	 2.92896537355704E-02 
1881	 2.86409362892556E-02 
1882	 5.12938024503247E-02 
1883	 5.10661328259674E-02 
1884	 3.71348375455763E-02 
1885	 3.64326426900144E-02 
1886	 3.73041228288621E-02 
1887	 0.038766142011983 
1888	 3.23200694111753E-02 
1889	 5.43106498291277E-02 
1890	 6.01846429226582E-02 
1891	 5.31083301666949E-02 
1892	 0.059366239255554 
1893	 7.89691564191569E-02 
1894	 0.084177263110292 
1895	 8.14435555485806E-02 
1896	 9.13845756339173E-02 
1897	 0.100834848389927 
1898	 0.117377714042876 
1899	 0.148414865155418 
1900	 0.20779751715101 
1901	 0.222187148176032 
1902	 0.179324663839538 
1903	 0.15124730923087 
1904	 9.82506391884285E-02 
1905	 2.27698368182174E-02 
1906	-0.10116651029684 
1907	-0.177993050617253 
1908	-0.167104280437851 
1909	-0.148098508172927 
1910	-5.80153869405094E-02 
1911	 6.91645042045573E-02 
1912	 0.106617407500445 
1913	 0.131775865765835 
1914	 0.132718631265547 
1915	 9.99105899152198E-02 
1916	 0.084742738240406 
1917	 6.09389031870881E-02 
1918	 6.54042248663755E-02 
1919	 6.72205354056666E-02 
1920	 6.67934522144623E-02 
1921	 7.30599430295968E-02 
1922	 5.78875059925073E-02 
1923	 5.87209223723353E-02 
1924	 6.37105995124114E-02 
1925	 0.068180145676938 
1926	 8.97988683413246E-02 
1927	 8.84137792659926E-02 
1928	 0.073248098339577 
1929	 5.73035350387692E-02 
1930	 4.69233986611384E-02 
1931	 3.59232253141018E-02 
1932	 4.26724282782188E-02 
1933	 5.05782011722994E-02 
1934	 0.050636376624532 
1935	 4.84843335274093E-02 
1936	 4.63900232843602E-02 
1937	 3.68061052625907E-02 
1938	 3.70458063859415E-02 
1939	 4.20575080566046E-02 
1940	 4.50769414263181E-02 
1941	 4.89877920315204E-02 
1942	 4.94843714299506E-02 
1943	 4.77987842594718E-02 
1944	 4.77940409427534E-02 
1945	 4.82761175740588E-02 
1946	 4.99833505503814E-02 
1947	 4.87636679362712E-02 
1948	 0.043812896671692 
1949	 4.20017581758307E-02 
1950	 4.01667876035713E-02 
1951	 3.79967830440165E-02 
1952	 0.037944193276304 
1953	 4.15045942635736E-02 
1954	 4.23172538601397E-02 
1955	 4.24440719662002E-02 
1956	 4.58695028367019E-02 
1957	 4.85643467472351E-02 
1958	 4.89454673804573E-02 
1959	 4.80743605894651E-02 
1960	 4.71015733387962E-02 
1961	 0.045516513459247 
1962	 4.23390705446166E-02 
1963	 3.93561535064241E-02 
1964	 4.24699204747651E-02 
1965	 4.51212685065819E-02 
1966	 4.59202501605414E-02 
1967	 4.68043324804575E-02 
1968	 4.70693010327924E-02 
1969	 0.047095367184506 
1970	 4.62975976556763E-02 
1971	 4.57567509973305E-02 
1972	 4.53424614067452E-02 
1973	 4.47345657483211E-02 
1974	 4.44089749855127E-02 
1975	 4.42125611963636E-02 
1976	 4.52448495771743E-02 
1977	 4.55805027738809E-02 
1978	 4.36028552861642E-02 
1979	 4.24642184527355E-02 
1980	 4.19531638377934E-02 
1981	 4.21577086216763E-02 
1982	 4.22481285461833E-02 
1983	 4.34039787370005E-02 
1984	 4.36439024590635E-02 
1985	 4.46130754879615E-02 
1986	 4.52639791817533E-02 
1987	 4.62522365158085E-02 
1988	 4.81104872503841E-02 
1989	 4.82601210460187E-02 
1990	 4.82205010837282E-02 
1991	 4.89647110876457E-02 
1992	 4.96846620760818E-02 
1993	 5.03267841111595E-02 
1994	 5.13717684130513E-02 
1995	 0.051262562085706 
1996	 4.96964881005304E-02 
1997	 4.77313717485312E-02 
1998	 4.82262367847351E-02 
1999	 4.71783365751846E-02 
2000	 4.53453930235989E-02 
2001	 4.59142867506407E-02 
2002	 4.68499471748219E-02 
2003	 4.94417392683584E-02 
2004	 5.40899056393427E-02 
2005	 5.79173197305364E-02 
2006	 5.96546911705717E-02 
2007	 0.059128667066109 
2008	 5.58631080356818E-02 
2009	 5.50774292542673E-02 
2010	 5.70061770445561E-02 
2011	 5.68845306345537E-02 
2012	 5.55940081079908E-02 
2013	 0.055319390195925 
2014	 5.49228121591563E-02 
2015	 5.40904477412088E-02 
2016	 0.056680166969974 
2017	 6.01079655162715E-02 
2018	 6.09274247245409E-02 
2019	 6.14169046596162E-02 
2020	 0.062319821566233 
2021	 6.17758851605604E-02 
2022	 6.10115637360132E-02 
2023	 6.12683843535158E-02 
2024	 6.02404451373467E-02 
2025	 5.99595613233381E-02 
2026	 0.059737598139631 
2027	 0.058942638431419 
2028	 5.98144952836655E-02 
2029	 6.15844915451468E-02 
2030	 0.062396122321103 
2031	 6.23970705069046E-02 
2032	 6.27642360726812E-02 
2033	 6.28136477648324E-02 
2034	 6.34568690347752E-02 
2035	 6.48348986317274E-02 
2036	 6.56550553008272E-02 
2037	 6.56920858331241E-02 
2038	 6.48181418028493E-02 
2039	 6.36724716819759E-02 
2040	 6.40729879069622E-02 
2041	 6.52583966790362E-02 
2042	 6.62351262440441E-02 
2043	 6.75607377847626E-02 
2044	 6.87344773052461E-02 
2045	 6.94448953013077E-02 
2046	 6.99692913207044E-02 
2047	 7.06388108819146E-02 
2048	 7.05308106694088E-02 
2049	 0.069256067472064 
2050	 6.74396902276096E-02 
2051	 6.69949642880137E-02 
2052	 6.75225189491939E-02 
2053	 6.76078412332995E-02 
2054	 6.85617920490422E-02 
2055	 6.95906609208691E-02 
2056	 6.95739707976038E-02 
2057	 7.04826825481446E-02 
2058	 7.15828127094765E-02 
2059	 0.072408841351108 
2060	 7.28253563719445E-02 
2061	 7.42731442037778E-02 
2062	 0.075038193336383 
2063	 7.65354046215036E-02 
2064	 7.85754286230926E-02 
2065	 7.72426068871917E-02 
2066	 7.63795844146146E-02 
2067	 7.61205182253628E-02 
2068	 0.074560096058864 
2069	 0.075362257496278 
2070	 7.68959013478573E-02 
2071	 7.66913536284786E-02 
2072	 7.75301514619115E-02 
2073	 7.89111649318834E-02 
2074	 8.09026990381019E-02 
2075	 8.17010093972162E-02 
2076	 8.24135831978772E-02 
2077	 8.31480449723327E-02 
2078	 8.21174280020068E-02 
2079	 8.16282275407792E-02 
2080	 8.39025232016344E-02 
2081	 8.67258391149107E-02 
2082	 8.82414768877679E-02 
2083	 8.83699518673739E-02 
2084	 8.86965796715709E-02 
2085	 8.80469761199312E-02 
2086	 0.086585483472345 
2087	 0.085692524504116 
2088	 8.57677723647864E-02 
2089	 8.46693298664517E-02 
2090	 8.30631085958181E-02 
2091	 8.36460486141667E-02 
2092	 8.60588224794542E-02 
2093	 8.71855154987618E-02 
2094	 0.08766150908469 
2095	 8.82195360952871E-02 
2096	 8.77682215591323E-02 
2097	 8.71453289290395E-02 
2098	 0.087010686258823 
2099	 8.79780459093007E-02 
2100	 8.84353403707494E-02 
2101	 8.89681404867285E-02 
2102	 0.0900705741856 
2103	 9.23335049145986E-02 
2104	 9.30950552508481E-02 
2105	 9.23512219008455E-02 
2106	 9.15901256774152E-02 
2107	 9.10092857619039E-02 
2108	 9.07219314840862E-02 
2109	 9.15829000238093E-02 
2110	 0.092094611920714 
2111	 9.22842882837056E-02 
2112	 9.30556636597377E-02 
2113	 9.32750005812413E-02 
2114	 9.41313734838167E-02 
2115	 9.56097858690694E-02 
2116	 9.63091454217056E-02 
2117	 9.66433359992363E-02 
2118	 0.097065010733211 
2119	 9.72992831904973E-02 
2120	 9.67981432613084E-02 
2121	 9.63844924188263E-02 
2122	 9.74377822759557E-02 
2123	 0.098860580328449 
2124	 0.100054534248938 
2125	 0.100374507804528 
2126	 0.100840857345909 
2127	 0.100749074222522 
2128	 9.97464442022439E-02 
2129	 9.93950005493237E-02 
2130	 9.85610207537357E-02 
2131	 9.78773610538568E-02 
2132	 9.85549008551619E-02 
2133	 9.96508044125474E-02 
2134	 0.100240988103739 
2135	 0.100569085485324 
2136	 0.10093405706221 
2137	 0.101475566384893 
2138	 0.101415793289728 
2139	 0.101002678234654 
2140	 0.101235111995112 
2141	 0.10182673326437 
2142	 0.101575626174804 
2143	 0.102936413003105 
2144	 0.10407848813357 
2145	 0.103071668050898 
2146	 0.103129509035271 
2147	 0.10298511665344 
2148	 0.101807533533775 
2149	 0.101415876528398 
2150	 0.102000783870865 
2151	 0.102578704363957 
2152	 0.103432027678591 
2153	 0.104543149675368 
2154	 0.10642053097422 
2155	 0.107528476753025 
2156	 0.107022644205889 
2157	 0.105806774601338 
2158	 0.106460884000764 
2159	 0.106001077126001 
2160	 0.10644042258935 
2161	 0.109677751832293 
2162	 0.109171159383932 
2163	 0.107515726695153 
2164	 0.108144718114893 
2165	 0.106461203241191 
2166	 0.105444508882267 
2167	 0.107779663646321 
2168	 0.108556331899281 
2169	 0.108602702768436 
2170	 0.10926361436375 
2171	 0.110498892096021 
2172	 0.109808507174359 
2173	 0.110337317393219 
2174	 0.111691420717733 
2175	 0.112392637203914 
2176	 0.113602115814497 
2177	 0.113470762558187 
2178	 0.113912054519593 
2179	 0.114249753076615 
2180	 0.112278435529067 
2181	 0.1118735687038 
2182	 0.112268036861034 
2183	 0.112338930179241 
2184	 0.113157460569565 
2185	 0.113466756543885 
2186	 0.113508202743502 
2187	 0.112695102019989 
2188	 0.109306704282925 
2189	 0.109709903117508 
2190	 0.111849134398457 
2191	 0.112951005450072 
2192	 0.115021087618696 
2193	 0.118082013751996 
2194	 0.119064421283718 
2195	 0.119352917452676 
2196	 0.119595780278626 
2197	 0.119529228263138 
2198	 0.119644474542038 
2199	 0.118945280011187 
2200	 0.118482005453581 
2201	 0.118927041319842 
2202	 0.118189174792807 
2203	 0.117608525044698 
2204	 0.117798957982173 
2205	 0.118681215641665 
2206	 0.118763856380032 
2207	 0.117468906463825 
2208	 0.117286996299094 
2209	 0.116664720009759 
2210	 0.117213784650648 
2211	 0.118981578025851 
2212	 0.121170273361843 
2213	 0.121053754679181 
2214	 0.120251725564344 
2215	 0.118820936278658 
2216	 0.116736308435617 
2217	 0.116775024762486 
2218	 0.118019614641816 
2219	 0.118295816037853 
2220	 0.118292098629372 
2221	 0.118535657128173 
2222	 0.119203446280682 
2223	 0.118938782725362 
2224	 0.118778515160807 
2225	 0.119473055327466 
2226	 0.119242676229152 
2227	 0.118265423000768 
2228	 0.117630488359077 
2229	 0.117364833554294 
2230	 0.117807977511921 
2231	 0.118303497064641 
2232	 0.120023419728423 
2233	 0.120798922443669 
2234	 0.121404478313105 
2235	 0.121255185627697 
2236	 0.120982091194338 
2237	 0.121102815554726 
2238	 0.121794716368608 
2239	 0.120706248867071 
2240	 0.118532495767834 
2241	 0.118320702915343 
2242	 0.118872447359694 
2243	 0.119805529265805 
2244	 0.12063502563011 
2245	 0.120948159813385 
2246	 0.120230575444817 
2247	 0.119581408027975 
2248	 0.121728655501068 
2249	 0.122090883878317 
2250	 0.120758694649653 
2251	 0.120709830914198 
2252	 0.118995534798557 
2253	 0.117474009777365 
2254	 0.117035876722521 
2255	 0.113806507278186 
2256	 0.112598371359022 
2257	 0.111483451248037 
2258	 0.113535820972059 
2259	 0.114120073624181 
2260	 0.115193781459857 
2261	 0.114559945007103 
2262	 0.109521776696821 
2263	 0.106430762102815 
2264	 0.107491152616179 
2265	 0.10817740615598 
2266	 0.108974370302145 
2267	 0.110857764918547 
2268	 0.111260862513984 
2269	 0.110143655728185 
2270	 0.109608211785978 
2271	 0.111012007994159 
2272	 0.108481782482651 
2273	 0.104876009780997 
2274	 0.105118347040697 
2275	 0.103511693270979 
2276	 0.103713297671345 
2277	 0.106087314235 
2278	 0.105557878507527 
2279	 0.105328149984889 
2280	 0.105482901202444 
2281	 0.104545404177249 
2282	 0.102664261406508 
2283	 0.100296285747515 
2284	 0.096829457541651 
2285	 9.46733238677071E-02 
2286	 0.094205285793979 
2287	 9.65155213648337E-02 
2288	 9.79692131051497E-02 
2289	 9.83201900404325E-02 
2290	 9.77522123303249E-02 
2291	 9.58291526226637E-02 
2292	 9.29763530963212E-02 
2293	 9.29345470567967E-02 
2294	 9.33770106475555E-02 
2295	 9.22723950571958E-02 
2296	 9.41575024122026E-02 
2297	 9.60050484373905E-02 
2298	 9.77154276248694E-02 
2299	 0.099640938805394 
2300	 9.87191215001674E-02 
2301	 9.47103252121973E-02 
2302	 0.089803639373071 
2303	 8.96419241972777E-02 
2304	 9.16194761668446E-02 
2305	 9.33842874529286E-02 
2306	 9.41342046307141E-02 
2307	 9.10969076837751E-02 
2308	 9.13271865830176E-02 
2309	 0.093714173644691 
2310	 9.53362687178131E-02 
2311	 9.83972891042973E-02 
2312	 9.63783449689666E-02 
2313	 9.14115985658086E-02 
2314	 0.089090769785576 
2315	 8.47824015157147E-02 
2316	 8.29559135571638E-02 
2317	 8.64103697942724E-02 
2318	 8.56435378382098E-02 
2319	 8.47770819969045E-02 
2320	 8.42040363531889E-02 
2321	 8.36817722999064E-02 
2322	 0.080750966077239 
2323	 8.25520585275841E-02 
2324	 8.76442226244629E-02 
2325	 9.11061784617982E-02 
2326	 9.59083527851991E-02 
2327	 9.84527318160074E-02 
2328	 9.50282129828373E-02 
2329	 9.13553919597798E-02 
2330	 8.48620458750667E-02 
2331	 7.63144063202095E-02 
2332	 7.66453935022018E-02 
2333	 8.01943107151158E-02 
2334	 8.08470125837155E-02 
2335	 8.17713115487543E-02 
2336	 7.78252264643202E-02 
2337	 7.10995211942138E-02 
2338	 6.80188927310442E-02 
2339	 6.79149623100335E-02 
2340	 0.069776101947609 
2341	 7.20455428483224E-02 
2342	 7.76337174052411E-02 
2343	 0.080663236956597 
2344	 7.97499016619017E-02 
2345	 8.19971006740555E-02 
2346	 8.08851335237173E-02 
2347	 7.86897552411916E-02 
2348	 7.89663947036592E-02 
2349	 7.79367298361806E-02 
2350	 8.00463257206894E-02 
2351	 7.91245318650454E-02 
2352	 7.42895117579887E-02 
2353	 7.01581928964178E-02 
2354	 0.065063944201999 
2355	 6.73687752248381E-02 
2356	 7.53436335876255E-02 
2357	 8.40581049904582E-02 
2358	 8.94604469523986E-02 
2359	 0.086282405639742 
2360	 8.30305422024205E-02 
2361	 7.75445618436106E-02 
2362	 7.04906771487325E-02 
2363	 7.20710199604339E-02 
2364	 0.069343194237268 
2365	 6.46995872997348E-02 
2366	 7.00121201622909E-02 
2367	 7.12502195385188E-02 
2368	 7.30767076714542E-02 
2369	 7.99191977953465E-02 
2370	 7.39356013379348E-02 
2371	 6.57421656978843E-02 
2372	 6.71989411142808E-02 
2373	 0.077789652407788 
2374	 7.84571904421312E-02 
2375	 8.39289488474046E-02 
2376	 8.28859528628736E-02 
2377	 6.47318836488887E-02 
2378	 5.88313685726248E-02 
2379	 6.26300566857568E-02 
2380	 6.25859991964327E-02 
2381	 6.36920048959688E-02 
2382	 6.70961683171396E-02 
2383	 7.16753769014596E-02 
2384	 6.90122747685495E-02 
2385	 6.17640010900242E-02 
2386	 0.060244900238794 
2387	 5.61472317077681E-02 
2388	 5.81408129417669E-02 
2389	 7.43821321722437E-02 
2390	 7.65822580661759E-02 
2391	 0.064290271267396 
2392	 6.38847726854487E-02 
2393	 6.86772717494822E-02 
2394	 0.067785572839374 
2395	 7.26319312416698E-02 
2396	 7.61883450139888E-02 
2397	 0.069674611128231 
2398	 6.62255470092765E-02 
2399	 6.80875761641131E-02 
2400	 7.01667550455116E-02 
2401	 7.11728248819904E-02 
2402	 7.12462767637505E-02 
2403	 7.55787578219309E-02 
2404	 7.65259352270451E-02 
2405	 7.58337859161855E-02 
2406	 7.39635769105865E-02 
2407	 6.89105991974356E-02 
2408	 7.26620060791254E-02 
2409	 7.38519388286685E-02 
2410	 6.79356204494166E-02 
2411	 6.64438627675648E-02 
2412	 6.50936904863356E-02 
2413	 6.13578682501262E-02 
2414	 6.59801737848226E-02 
2415	 7.34554031112313E-02 
2416	 6.52590289574007E-02 
2417	 5.43684225493611E-02 
2418	 4.19731686697509E-02 
2419	 3.51963389701103E-02 
2420	 3.78423009604447E-02 
2421	 3.90946723017524E-02 
2422	 5.23886600804126E-02 
2423	 5.56459016760483E-02 
2424	 4.58154170755577E-02 
2425	 4.05761008274083E-02 
2426	 3.24891982114672E-02 
2427	 3.20975978408591E-02 
2428	 4.08422211285919E-02 
2429	 5.20685526863599E-02 
2430	 6.34788001264511E-02 
2431	 6.77294296515947E-02 
2432	 6.71338048266667E-02 
2433	 6.98091942948235E-02 
2434	 6.79162028091205E-02 
2435	 5.80830701752061E-02 
2436	 5.01104785129593E-02 
2437	 3.96831318488671E-02 
2438	 3.14703569978397E-02 
2439	 2.38485827238996E-02 
2440	 2.04271710726233E-02 
2441	 2.16192497553804E-02 
2442	 1.78039518726636E-02 
2443	 9.24067106729914E-03 
2444	 9.47067663975669E-03 
2445	 9.43927569140958E-03 
2446	 1.17793315056796E-02 
2447	 2.94923117248443E-02 
2448	 0.037558763428214 
2449	 4.80478561697006E-02 
2450	 5.09805305675177E-02 
2451	 3.47435871861993E-02 
2452	 3.27307025163821E-02 
2453	 3.12139501707885E-02 
2454	 3.32655771623399E-02 
2455	 5.62154604662979E-02 
2456	 4.95388657272242E-02 
2457	 1.75103735403278E-02 
2458	 1.16837484754458E-02 
2459	 9.33933914664219E-03 
2460	 1.24261692198698E-02 
2461	 4.26235664149352E-02 
2462	 4.39969483275741E-02 
2463	 7.16385956895444E-03 
2464	-2.88565831119365E-03 
2465	-4.90701044611495E-03 
2466	-8.97031119595512E-03 
2467	 1.78784930123427E-02 
2468	 2.21277240160049E-02 
2469	-1.60177927452549E-02 
2470	-2.15285971552925E-02 
2471	-1.68674110592825E-02 
2472	 3.59750436517387E-03 
2473	 7.01875483336494E-02 
2474	 9.97889523581657E-02 
2475	 0.135465722805089 
2476	 0.126470689471479 
2477	 3.80911281183917E-02 
2478	 3.29141498964312E-02 
2479	 4.17013525156595E-02 
2480	 4.67729657022522E-02 
2481	 0.092067134821903 
2482	 0.155778578579603 
2483	 0.257959786125763 
2484	 0.293052325051285 
2485	 0.422771771010804 
2486	 0.273530171819845 
2487	 0.124199789820465 
2488	 0.235078680906949 
2489	 0.259202227300027 
2490	 0.176776079308526 
2491	 0.149690642180335 
2492	-0.173580172533375 
2493	-0.327075645336721 
2494	-9.74064408855267E-02 
2495	 2.17448159717101E-03 
2496	 0.095632370655507 
2497	 0.295609270229482 
2498	 0.1758542952547 
2499	 0.145941410510586 
2500	 0.366244381647181 
