Wavelength	ref00126.asd
350	 0.499996671232951 
351	 0.495450801522188 
352	 0.490820977169773 
353	 0.464249753747977 
354	 0.470910281709795 
355	 0.486802263358489 
356	 0.48652009379305 
357	 0.474565819812832 
358	 0.461897646246585 
359	 0.451058264244371 
360	 0.4461840692552 
361	 0.465036210148146 
362	 0.459962913495237 
363	 0.443307167398168 
364	 0.460182073327286 
365	 0.449188222293215 
366	 0.445042525678726 
367	 0.458571542559001 
368	 0.453705292027657 
369	 0.444873132908698 
370	 0.441420500469098 
371	 0.44539540382415 
372	 0.44288080149996 
373	 0.430338060880807 
374	 0.416044508101439 
375	 0.411859197347524 
376	 0.411165468854002 
377	 0.41113216010216 
378	 0.411636169702597 
379	 0.415173228733726 
380	 0.405612470016997 
381	 0.401436200952012 
382	 0.411129548386973 
383	 0.398068928318602 
384	 0.392889856887977 
385	 0.391809334764377 
386	 0.381178568613673 
387	 0.385600800321444 
388	 0.389241145535282 
389	 0.386319739415831 
390	 0.383406900154871 
391	 0.374057426990066 
392	 0.36757862110079 
393	 0.368568622923577 
394	 0.368032050459643 
395	 0.366637226968153 
396	 0.364987729475391 
397	 0.363366754740046 
398	 0.35957648771198 
399	 0.355305979717241 
400	 0.352074811339204 
401	 0.350854469256159 
402	 0.3448503495293 
403	 0.34263440111821 
404	 0.346574261327096 
405	 0.342452624624689 
406	 0.337349712490274 
407	 0.333420241008157 
408	 0.331431364327889 
409	 0.333316038960722 
410	 0.330198580051764 
411	 0.324795551106822 
412	 0.328408517528162 
413	 0.32596639190543 
414	 0.32173120242021 
415	 0.320295012329396 
416	 0.320862210019444 
417	 0.32143020171539 
418	 0.321917874278135 
419	 0.321730665789188 
420	 0.313158349274761 
421	 0.312818431400055 
422	 0.319349705469845 
423	 0.31663305736665 
424	 0.318401481739255 
425	 0.317818431142098 
426	 0.312637366928288 
427	 0.317555663948646 
428	 0.317423289739715 
429	 0.315308131474055 
430	 0.318051255102244 
431	 0.317611502737618 
432	 0.318099261535956 
433	 0.318883771187798 
434	 0.3155516525201 
435	 0.315359482593109 
436	 0.316424726832644 
437	 0.316659516260845 
438	 0.3165700520394 
439	 0.316734414237129 
440	 0.317070508394685 
441	 0.31722867809181 
442	 0.316979784869306 
443	 0.31609239327713 
444	 0.315936374286258 
445	 0.318968526329408 
446	 0.31885191571682 
447	 0.317809708208571 
448	 0.318159110761261 
449	 0.31868942446515 
450	 0.318890632980368 
451	 0.318658627764945 
452	 0.318054451503406 
453	 0.316422785982325 
454	 0.31669237404547 
455	 0.31840142906862 
456	 0.317092681060712 
457	 0.315966307967158 
458	 0.315087507382188 
459	 0.314045790582762 
460	 0.31313375568383 
461	 0.311944777508407 
462	 0.310681744701554 
463	 0.309841669945302 
464	 0.30936571886353 
465	 0.309054069511329 
466	 0.308608895353348 
467	 0.307626395770671 
468	 0.306255488237566 
469	 0.304845697331627 
470	 0.303765599451746 
471	 0.303190345337439 
472	 0.302985299792007 
473	 0.303108431467892 
474	 0.303422383931074 
475	 0.301887766574391 
476	 0.300637248113359 
477	 0.300370865363967 
478	 0.297881900468846 
479	 0.298290125152985 
480	 0.299667183257542 
481	 0.298725750445449 
482	 0.298270059328274 
483	 0.297252500617344 
484	 0.296096291095679 
485	 0.296596933926107 
486	 0.295170703207281 
487	 0.293681971699526 
488	 0.293834076905645 
489	 0.294207820727735 
490	 0.294335544621187 
491	 0.294132481031535 
492	 0.293834099780818 
493	 0.29403014220041 
494	 0.294524955952492 
495	 0.29548768307415 
496	 0.297573020545381 
497	 0.298475422489186 
498	 0.299793591897093 
499	 0.302791993044326 
500	 0.304413179476188 
501	 0.306627441807417 
502	 0.309422648219237 
503	 0.311794536108826 
504	 0.315318721332572 
505	 0.31911172467706 
506	 0.322967899267378 
507	 0.328276469678852 
508	 0.333879172795135 
509	 0.339865979657374 
510	 0.346523101802637 
511	 0.353081763535444 
512	 0.360686100109693 
513	 0.369419239027678 
514	 0.378486591727697 
515	 0.386950357199494 
516	 0.396640057656579 
517	 0.40832784362189 
518	 0.419251658335739 
519	 0.430131468691472 
520	 0.440958940069869 
521	 0.451748756968028 
522	 0.463354736168502 
523	 0.475177643382597 
524	 0.486579540407554 
525	 0.496774154679892 
526	 0.506916624884446 
527	 0.517178372080519 
528	 0.527369343170746 
529	 0.536932657099869 
530	 0.545399293504707 
531	 0.553153145484861 
532	 0.560968898569571 
533	 0.567700294443567 
534	 0.57448833627324 
535	 0.581272836384824 
536	 0.585680473645759 
537	 0.589187622943449 
538	 0.593094668183943 
539	 0.598042728151991 
540	 0.6019123823885 
541	 0.605287062624331 
542	 0.607980429161734 
543	 0.609297479878453 
544	 0.612347506880984 
545	 0.615478993828764 
546	 0.617463039302958 
547	 0.61988320015976 
548	 0.621845942089565 
549	 0.623267884033628 
550	 0.624301072098597 
551	 0.62446359089317 
552	 0.624053831872178 
553	 0.623257998625695 
554	 0.622053604925057 
555	 0.61893538911217 
556	 0.615415017792134 
557	 0.61261210958744 
558	 0.607954599366274 
559	 0.602710304359763 
560	 0.597238138332639 
561	 0.591314088874813 
562	 0.58561959207635 
563	 0.578956592804094 
564	 0.571350344677097 
565	 0.565417030325479 
566	 0.558906662783821 
567	 0.551075400498745 
568	 0.542149139724059 
569	 0.534249006418433 
570	 0.526533155934973 
571	 0.518506910787015 
572	 0.510129535725283 
573	 0.501682369383732 
574	 0.494388001234963 
575	 0.488485588595581 
576	 0.481530768034002 
577	 0.474788827060417 
578	 0.468520743777421 
579	 0.462627283202873 
580	 0.457962313525806 
581	 0.453422938018336 
582	 0.44863072442091 
583	 0.444366924379238 
584	 0.440005149006419 
585	 0.435602779547938 
586	 0.431395965276607 
587	 0.42751090439313 
588	 0.423799397709506 
589	 0.420208541454056 
590	 0.416844745995458 
591	 0.413978888697266 
592	 0.411607118083244 
593	 0.409437353683357 
594	 0.406923176958126 
595	 0.404538450997952 
596	 0.402389981576656 
597	 0.400433752432181 
598	 0.398615417674066 
599	 0.396591950865502 
600	 0.394340507778671 
601	 0.392166364566889 
602	 0.390060425044334 
603	 0.387659046619325 
604	 0.384768683074579 
605	 0.381777503032603 
606	 0.378519858514157 
607	 0.375017246670058 
608	 0.371369283023741 
609	 0.367540941023177 
610	 0.363707928377826 
611	 0.359841216429624 
612	 0.355580582942199 
613	 0.351926064990157 
614	 0.348449011727998 
615	 0.344557308777608 
616	 0.340456396308367 
617	 0.336912732956258 
618	 0.333956145541491 
619	 0.331023897452101 
620	 0.328010021775285 
621	 0.325702741841017 
622	 0.324115304984186 
623	 0.321509502322357 
624	 0.319363894336857 
625	 0.317895294384332 
626	 0.316841150647815 
627	 0.315963066284463 
628	 0.315043464833844 
629	 0.314165725598307 
630	 0.313631693085195 
631	 0.311953113916186 
632	 0.310193604355464 
633	 0.309151369765712 
634	 0.307753622235315 
635	 0.30541151204649 
636	 0.302366452034308 
637	 0.299302724006805 
638	 0.296476286461351 
639	 0.29325003337706 
640	 0.289408750419688 
641	 0.285463259741653 
642	 0.280857045445514 
643	 0.276512179214644 
644	 0.273043860805123 
645	 0.269113573921615 
646	 0.265059456543752 
647	 0.261058680254913 
648	 0.257262482302908 
649	 0.254248401818849 
650	 0.251274381299904 
651	 0.248476983193878 
652	 0.247505952068107 
653	 0.24589374257911 
654	 0.24348336609824 
655	 0.240801236538172 
656	 0.238487079380666 
657	 0.235771678991273 
658	 0.232865881262863 
659	 0.230177822668201 
660	 0.227101390388699 
661	 0.223629865035991 
662	 0.220100479735228 
663	 0.217088304314781 
664	 0.214590599052079 
665	 0.211712722529415 
666	 0.207897937048136 
667	 0.20597522968733 
668	 0.203724649434986 
669	 0.201095633686564 
670	 0.200023697221874 
671	 0.198624860278278 
672	 0.197298163726298 
673	 0.196441824512075 
674	 0.195342998090131 
675	 0.195419249336917 
676	 0.195747888846465 
677	 0.194989267432013 
678	 0.195099665110079 
679	 0.195684781011048 
680	 0.196517963867778 
681	 0.197713230307164 
682	 0.200035496875831 
683	 0.202699227663577 
684	 0.205434746641859 
685	 0.210122386851678 
686	 0.215997864959492 
687	 0.223733608984459 
688	 0.233646727691043 
689	 0.244543502651177 
690	 0.255835733881115 
691	 0.268667331338801 
692	 0.284903084947456 
693	 0.302941092675328 
694	 0.322919426375924 
695	 0.344976866544272 
696	 0.368709549776809 
697	 0.393311635300785 
698	 0.418756797792648 
699	 0.445182152028173 
700	 0.472787288157489 
701	 0.500654705604561 
702	 0.528388055735125 
703	 0.556399862730236 
704	 0.584338191214143 
705	 0.611900856591293 
706	 0.639143241363915 
707	 0.666203270721478 
708	 0.693397560608862 
709	 0.720878244025178 
710	 0.748374820172786 
711	 0.775415945581551 
712	 0.802808558885963 
713	 0.830542158361096 
714	 0.857709198115157 
715	 0.884131923486757 
716	 0.9091910588447 
717	 0.933733957457855 
718	 0.960178629890679 
719	 0.989137825724676 
720	 1.01926793529086 
721	 1.04851539068029 
722	 1.07683378969831 
723	 1.10303972831515 
724	 1.12851019159223 
725	 1.1544382703296 
726	 1.17959817607854 
727	 1.20424744215269 
728	 1.22917908603573 
729	 1.25388910681862 
730	 1.27695807791576 
731	 1.29957521796734 
732	 1.32326965801959 
733	 1.34468723826866 
734	 1.3642927403843 
735	 1.38249901852844 
736	 1.39913299839135 
737	 1.41541467466303 
738	 1.43085574367191 
739	 1.4451762553153 
740	 1.4585135328658 
741	 1.47132905127396 
742	 1.4831098096168 
743	 1.49312277031386 
744	 1.50175105416866 
745	 1.50939157599742 
746	 1.51660792118514 
747	 1.52385201350607 
748	 1.52923490641321 
749	 1.53375823279389 
750	 1.53812172519138 
751	 1.54184729301497 
752	 1.54492387106643 
753	 1.54748738614387 
754	 1.54951262050763 
755	 1.55010320193748 
756	 1.55089104295102 
757	 1.55172253006025 
758	 1.55173126991179 
759	 1.55419095489259 
760	 1.55633150839244 
761	 1.55528518791794 
762	 1.55295973664537 
763	 1.55209889715728 
764	 1.55084523139057 
765	 1.54845978401344 
766	 1.54773030012759 
767	 1.54598797128364 
768	 1.54399568252575 
769	 1.54288759883682 
770	 1.54087508529384 
771	 1.53922780765993 
772	 1.53809185921164 
773	 1.5364916956497 
774	 1.53301079962291 
775	 1.53070641560439 
776	 1.53028413065851 
777	 1.52741621249401 
778	 1.52472387646436 
779	 1.52257321488635 
780	 1.52074319842985 
781	 1.5191139181459 
782	 1.51747902319945 
783	 1.51583073190141 
784	 1.51411253453915 
785	 1.51113224926522 
786	 1.50814661792806 
787	 1.50558587878624 
788	 1.50279196901669 
789	 1.49936269253697 
790	 1.49678837157332 
791	 1.49551322270578 
792	 1.49311510651441 
793	 1.4912511783717 
794	 1.48960290322399 
795	 1.48734241549489 
796	 1.48402919197345 
797	 1.48188220101134 
798	 1.48055703033863 
799	 1.47836091581244 
800	 1.47618868032539 
801	 1.47358439778043 
802	 1.47096218527231 
803	 1.46965549855241 
804	 1.46811919753909 
805	 1.46623198752501 
806	 1.46423538887005 
807	 1.46252866996684 
808	 1.46002233822523 
809	 1.45727394157216 
810	 1.45479053683672 
811	 1.45070897645623 
812	 1.44640852682895 
813	 1.44198233599672 
814	 1.43698944346094 
815	 1.43282233805075 
816	 1.4294862212855 
817	 1.42702823146888 
818	 1.42559488343962 
819	 1.42534122580568 
820	 1.42519051187362 
821	 1.42422806018493 
822	 1.42212226216107 
823	 1.41972561885813 
824	 1.41752526691022 
825	 1.41600224600533 
826	 1.41601966913401 
827	 1.41414918334819 
828	 1.41152979603614 
829	 1.41046732519082 
830	 1.40750253905961 
831	 1.40603193225076 
832	 1.40595816614193 
833	 1.40463330867801 
834	 1.40320152729909 
835	 1.40215037036864 
836	 1.40155244167105 
837	 1.40103870515747 
838	 1.40002947147668 
839	 1.39860009268198 
840	 1.39686728149691 
841	 1.39463422268618 
842	 1.39393619943003 
843	 1.39315999019241 
844	 1.39086310544149 
845	 1.38993799822854 
846	 1.3881702698026 
847	 1.38614787356533 
848	 1.38520408485531 
849	 1.38364260045149 
850	 1.381223980047 
851	 1.3788915132161 
852	 1.37810991152894 
853	 1.37774196080983 
854	 1.37590375616022 
855	 1.37257879431336 
856	 1.36998156581763 
857	 1.37005425465952 
858	 1.36903760849537 
859	 1.36587950870854 
860	 1.36507350108464 
861	 1.36346809553102 
862	 1.3622028086949 
863	 1.3621506834945 
864	 1.36100047606787 
865	 1.35906588390727 
866	 1.3574357752604 
867	 1.35666556966288 
868	 1.35406778637675 
869	 1.35163839975305 
870	 1.3496653679878 
871	 1.34774842847223 
872	 1.34692184099941 
873	 1.34603909511242 
874	 1.34410697827497 
875	 1.34089408873517 
876	 1.33974989472678 
877	 1.33859799656081 
878	 1.33648905951537 
879	 1.3342362095914 
880	 1.33268574721552 
881	 1.33125484589406 
882	 1.32966002667627 
883	 1.32829979876935 
884	 1.32629695835355 
885	 1.32472429980101 
886	 1.32392699294055 
887	 1.32231312581518 
888	 1.31927616456909 
889	 1.31661237685756 
890	 1.31516321205634 
891	 1.31184427410668 
892	 1.30789634380496 
893	 1.30456190159242 
894	 1.30219234739702 
895	 1.29789717666547 
896	 1.29477490212959 
897	 1.29183765412456 
898	 1.28747262992858 
899	 1.28570651893529 
900	 1.28403704288153 
901	 1.28218505921356 
902	 1.28118985249128 
903	 1.28199481878439 
904	 1.28042427164688 
905	 1.27721918163882 
906	 1.2758865439406 
907	 1.27583907806963 
908	 1.27131395404143 
909	 1.26483525390844 
910	 1.26461481343235 
911	 1.26324899090202 
912	 1.26039959471509 
913	 1.2570081950987 
914	 1.25446034185053 
915	 1.25294760251295 
916	 1.25126404153977 
917	 1.25048182041002 
918	 1.25342108725488 
919	 1.25067907604322 
920	 1.2489446114043 
921	 1.24983603885063 
922	 1.24613441531807 
923	 1.2461215405141 
924	 1.24469655450022 
925	 1.23939661870102 
926	 1.23532378736651 
927	 1.23032779535764 
928	 1.22441801443568 
929	 1.21773981514997 
930	 1.21021606970415 
931	 1.20558974453841 
932	 1.19935817571742 
933	 1.18894273987721 
934	 1.18113456702243 
935	 1.1790434597957 
936	 1.17545702696977 
937	 1.16848949714227 
938	 1.17077938813306 
939	 1.17031794046307 
940	 1.17078449248685 
941	 1.17308807265872 
942	 1.16647652680922 
943	 1.16733991704793 
944	 1.1678840525436 
945	 1.16144594226096 
946	 1.15755057760683 
947	 1.15269022359818 
948	 1.14624384008812 
949	 1.14019284413988 
950	 1.13964212058197 
951	 1.13813193383449 
952	 1.1357416981573 
953	 1.13289843965828 
954	 1.12712837345563 
955	 1.12579515167545 
956	 1.1247134265875 
957	 1.12080443972437 
958	 1.1190237815499 
959	 1.11590524916023 
960	 1.11573471567183 
961	 1.11858083521349 
962	 1.11442662133962 
963	 1.12058603232811 
964	 1.12218422061411 
965	 1.11315640997458 
966	 1.11303317472205 
967	 1.11731597126681 
968	 1.11831704143129 
969	 1.1140367370372 
970	 1.11227697491147 
971	 1.1146279953999 
972	 1.11440036828216 
973	 1.11101463066483 
974	 1.11409567393662 
975	 1.11321853158264 
976	 1.10855562783906 
977	 1.10517862569222 
978	 1.10984576380836 
979	 1.10918669884536 
980	 1.10753201894837 
981	 1.10804703644774 
982	 1.10883434263189 
983	 1.1034498846406 
984	 1.10387170699554 
985	 1.11074060177111 
986	 1.11310274987985 
987	 1.11367679701239 
988	 1.11202372356076 
989	 1.11097431672824 
990	 1.11371996524605 
991	 1.10950818982134 
992	 1.11118360189576 
993	 1.11680843811114 
994	 1.11648969149806 
995	 1.11812075639841 
996	 1.11445980922141 
997	 1.11160336024378 
998	 1.11688317896242 
999	 1.11441332312507 
1000	 1.10917987964601 
1001	 1.14265339766995 
1002	 1.14295110521342 
1003	 1.1432332878128 
1004	 1.14334613892282 
1005	 1.14360429603025 
1006	 1.14425254640469 
1007	 1.14481074504734 
1008	 1.1452134610709 
1009	 1.14538964202844 
1010	 1.14584452191846 
1011	 1.14585051861611 
1012	 1.14465519704622 
1013	 1.14455773984688 
1014	 1.14446465452774 
1015	 1.14401674964434 
1016	 1.14414540503557 
1017	 1.14413415147192 
1018	 1.14458888165565 
1019	 1.14546399392278 
1020	 1.14602125541822 
1021	 1.14714094790962 
1022	 1.14760472314039 
1023	 1.14757073164762 
1024	 1.14720212533571 
1025	 1.14759411040897 
1026	 1.14798957341327 
1027	 1.14815806534171 
1028	 1.14897544890789 
1029	 1.14936315582955 
1030	 1.14901943070274 
1031	 1.14911282860624 
1032	 1.14881255444083 
1033	 1.14852173952515 
1034	 1.14794889986599 
1035	 1.14790513643646 
1036	 1.14815490024795 
1037	 1.1480713053977 
1038	 1.14812082302453 
1039	 1.14792765888704 
1040	 1.14729844871104 
1041	 1.14707867271417 
1042	 1.14702767959925 
1043	 1.14690076478528 
1044	 1.14712226292946 
1045	 1.14723244472264 
1046	 1.146923848407 
1047	 1.14655104462971 
1048	 1.1460414695441 
1049	 1.14562088488406 
1050	 1.14536705238363 
1051	 1.14547120676098 
1052	 1.14524333445948 
1053	 1.14491179462331 
1054	 1.14472621969303 
1055	 1.1442785369738 
1056	 1.14407356145588 
1057	 1.14387215020338 
1058	 1.14379881810741 
1059	 1.14380887662191 
1060	 1.14310287128004 
1061	 1.14274279538705 
1062	 1.14231764856121 
1063	 1.14149904639726 
1064	 1.14158878286448 
1065	 1.14107216553104 
1066	 1.14036179057644 
1067	 1.13920763804732 
1068	 1.13870870349204 
1069	 1.13771212833456 
1070	 1.1376082279313 
1071	 1.13829786031642 
1072	 1.13791657601835 
1073	 1.13761233286816 
1074	 1.13715770667848 
1075	 1.13572268588829 
1076	 1.13426756520167 
1077	 1.13328813993046 
1078	 1.13237336855565 
1079	 1.13152763594378 
1080	 1.13076697806632 
1081	 1.12972455429271 
1082	 1.12839021870652 
1083	 1.12685891689148 
1084	 1.12561182429902 
1085	 1.12475998670983 
1086	 1.12382114551653 
1087	 1.12299348288921 
1088	 1.12239186887456 
1089	 1.12094264111995 
1090	 1.11922786262997 
1091	 1.11780373898633 
1092	 1.11580679196013 
1093	 1.11394678752037 
1094	 1.11252136531159 
1095	 1.11067188471078 
1096	 1.10885298292781 
1097	 1.10719977434492 
1098	 1.10508125282425 
1099	 1.10266070064587 
1100	 1.10019635975925 
1101	 1.09757568716699 
1102	 1.0952963521933 
1103	 1.09329089969947 
1104	 1.09133467030657 
1105	 1.08982101663816 
1106	 1.08767241660166 
1107	 1.08487522688452 
1108	 1.08222745418088 
1109	 1.078907251576 
1110	 1.07484743741605 
1111	 1.07092911981144 
1112	 1.066812505674 
1113	 1.06255298903806 
1114	 1.05794691009982 
1115	 1.05315382143152 
1116	 1.04819914678271 
1117	 1.04268561463442 
1118	 1.03708209185941 
1119	 1.03113497185257 
1120	 1.02539018454185 
1121	 1.02032877145311 
1122	 1.01533131556428 
1123	 1.01099115087568 
1124	 1.00719180480253 
1125	 1.00333004796689 
1126	 1.00011446809068 
1127	 0.997808693211582 
1128	 0.995170036840238 
1129	 0.993161232246625 
1130	 0.990685601263954 
1131	 0.988058962215528 
1132	 0.985479909225442 
1133	 0.98293955281893 
1134	 0.98043982009846 
1135	 0.977591879055237 
1136	 0.974154099574961 
1137	 0.970505228871963 
1138	 0.966545201856048 
1139	 0.96247536765822 
1140	 0.958045924307115 
1141	 0.952681551497883 
1142	 0.947274900778323 
1143	 0.941855966543968 
1144	 0.935865851700956 
1145	 0.930220540045975 
1146	 0.924478839730495 
1147	 0.919390044562822 
1148	 0.914331743497171 
1149	 0.910238706682368 
1150	 0.907528306758478 
1151	 0.904490516125579 
1152	 0.901493039677853 
1153	 0.899313930101189 
1154	 0.897547832044145 
1155	 0.89603865227033 
1156	 0.895191814196484 
1157	 0.894257908295406 
1158	 0.893451354002001 
1159	 0.892392693256368 
1160	 0.891639593059327 
1161	 0.891107017097077 
1162	 0.890687034395812 
1163	 0.890542220330197 
1164	 0.890055326625901 
1165	 0.889548465925259 
1166	 0.888812165409698 
1167	 0.887711100969417 
1168	 0.886815367722916 
1169	 0.885753792921039 
1170	 0.885075209596186 
1171	 0.884629804795364 
1172	 0.883812708381756 
1173	 0.883156062751229 
1174	 0.882474995101586 
1175	 0.881129924620876 
1176	 0.879829790319475 
1177	 0.878633372306759 
1178	 0.877231454766759 
1179	 0.876025391980665 
1180	 0.875074019918642 
1181	 0.873958338993153 
1182	 0.872660352820195 
1183	 0.871640723185211 
1184	 0.870762190304012 
1185	 0.869892785943386 
1186	 0.869252543518389 
1187	 0.868458916889514 
1188	 0.867495391898003 
1189	 0.866785954481507 
1190	 0.865923317446928 
1191	 0.865088524882225 
1192	 0.864735920941786 
1193	 0.864191226206061 
1194	 0.863482332729899 
1195	 0.862790201204044 
1196	 0.862099461109764 
1197	 0.860950090451824 
1198	 0.860451379396608 
1199	 0.860475416522611 
1200	 0.860172899383208 
1201	 0.860016651489128 
1202	 0.859735431373603 
1203	 0.859084595634211 
1204	 0.858855615459829 
1205	 0.858921590003218 
1206	 0.858883284497933 
1207	 0.859006879969848 
1208	 0.859074434809152 
1209	 0.858970946048387 
1210	 0.858973008284903 
1211	 0.859276950433155 
1212	 0.859769275465864 
1213	 0.860173646816676 
1214	 0.860662096576548 
1215	 0.861268157973316 
1216	 0.86183417398563 
1217	 0.862617085396411 
1218	 0.863772616836956 
1219	 0.864645225539605 
1220	 0.865469689463826 
1221	 0.866252379436597 
1222	 0.866846704075174 
1223	 0.867668030986051 
1224	 0.868714792978864 
1225	 0.86953207609307 
1226	 0.870360255878934 
1227	 0.871104135135701 
1228	 0.871657399737547 
1229	 0.872155994180781 
1230	 0.872827602082683 
1231	 0.873754323004524 
1232	 0.874427513478923 
1233	 0.87513691290125 
1234	 0.87572221444201 
1235	 0.876153951922772 
1236	 0.876607713200952 
1237	 0.87706060687508 
1238	 0.877440882512737 
1239	 0.877744046421586 
1240	 0.878027528055012 
1241	 0.878274857953229 
1242	 0.878508264428477 
1243	 0.878660872795812 
1244	 0.878874690849101 
1245	 0.879118521487199 
1246	 0.879337845572809 
1247	 0.879681762821467 
1248	 0.879832437827255 
1249	 0.879731744397508 
1250	 0.879807241109487 
1251	 0.879950326418235 
1252	 0.879997833786382 
1253	 0.879960817833286 
1254	 0.880000719319415 
1255	 0.879889775604686 
1256	 0.879537015158688 
1257	 0.879298715984681 
1258	 0.879174348789052 
1259	 0.878857552269003 
1260	 0.878296405910755 
1261	 0.877965407510063 
1262	 0.877661769952911 
1263	 0.877369361850265 
1264	 0.877316738900978 
1265	 0.877035058253128 
1266	 0.876607961975565 
1267	 0.876176891218124 
1268	 0.875497587541753 
1269	 0.875095620676942 
1270	 0.874986835527555 
1271	 0.874639242242334 
1272	 0.87420313468052 
1273	 0.874055033698165 
1274	 0.873496211766303 
1275	 0.872618302979675 
1276	 0.871927471337336 
1277	 0.87118114564166 
1278	 0.870506584726765 
1279	 0.86993889570795 
1280	 0.869168549024587 
1281	 0.868305120142662 
1282	 0.867494361110209 
1283	 0.866707921377195 
1284	 0.865686594348859 
1285	 0.864643840456497 
1286	 0.863478849726559 
1287	 0.861976924071962 
1288	 0.860624755104659 
1289	 0.859312254535771 
1290	 0.857991750447708 
1291	 0.856787580427601 
1292	 0.855359735355432 
1293	 0.853933606826924 
1294	 0.852277711922971 
1295	 0.850458475820332 
1296	 0.848279991391931 
1297	 0.846231635356515 
1298	 0.844091626943263 
1299	 0.841830674077213 
1300	 0.839452280190382 
1301	 0.837140593221722 
1302	 0.834771571568366 
1303	 0.832254172777351 
1304	 0.829749046438625 
1305	 0.827108155607645 
1306	 0.824221239581585 
1307	 0.821365343958187 
1308	 0.818603130664666 
1309	 0.815561582092311 
1310	 0.812251520640184 
1311	 0.808986216610047 
1312	 0.805640383847917 
1313	 0.802189594720644 
1314	 0.798686890119864 
1315	 0.7951471845156 
1316	 0.791495425161591 
1317	 0.787798548867525 
1318	 0.784136225955464 
1319	 0.780327590652885 
1320	 0.776234399088388 
1321	 0.772250648940701 
1322	 0.768203145333461 
1323	 0.76416210126628 
1324	 0.759675263256409 
1325	 0.754898606462017 
1326	 0.750089364091779 
1327	 0.744664503543475 
1328	 0.739718340181802 
1329	 0.735002353548775 
1330	 0.730132615873168 
1331	 0.725418475738161 
1332	 0.720463374265533 
1333	 0.715158574926724 
1334	 0.710452266508144 
1335	 0.706003891416465 
1336	 0.701574407172546 
1337	 0.697377748282601 
1338	 0.693327314654587 
1339	 0.689147044514026 
1340	 0.684982201609231 
1341	 0.680768898276266 
1342	 0.676523238149025 
1343	 0.671162537629657 
1344	 0.666477059522406 
1345	 0.661994674943374 
1346	 0.657306895863701 
1347	 0.652775481856675 
1348	 0.648160662422079 
1349	 0.642299023838535 
1350	 0.634545268828716 
1351	 0.627179962181221 
1352	 0.619477771982964 
1353	 0.60983707807257 
1354	 0.601116652888992 
1355	 0.589764007467348 
1356	 0.578044703406497 
1357	 0.564451451168946 
1358	 0.567945124518369 
1359	 0.5571786103765 
1360	 0.546201553481869 
1361	 0.532163628677804 
1362	 0.518191535673524 
1363	 0.499184642694284 
1364	 0.51529419350942 
1365	 0.502677631308489 
1366	 0.475150514745607 
1367	 0.455081757171186 
1368	 0.426010698395315 
1369	 0.421725316956863 
1370	 0.441177788796576 
1371	 0.439795688964375 
1372	 0.432563914181605 
1373	 0.432949389440439 
1374	 0.429638758577776 
1375	 0.426674278789743 
1376	 0.430628539072568 
1377	 0.428874047196782 
1378	 0.421253170834617 
1379	 0.401442755972408 
1380	 0.393871345549071 
1381	 0.39099808355747 
1382	 0.379655711639207 
1383	 0.368227317237654 
1384	 0.359589535350484 
1385	 0.346535874689867 
1386	 0.339071578140148 
1387	 0.3404294352531 
1388	 0.334256613583736 
1389	 0.325206656940537 
1390	 0.318273380142886 
1391	 0.31233903631001 
1392	 0.303770898789471 
1393	 0.291867212948471 
1394	 0.284012443299575 
1395	 0.273966243379356 
1396	 0.269856170994437 
1397	 0.274174313878012 
1398	 0.271806162345252 
1399	 0.268067022260209 
1400	 0.264034826115209 
1401	 0.256575481633587 
1402	 0.25089021746131 
1403	 0.24960923697112 
1404	 0.243890196089689 
1405	 0.235998156504692 
1406	 0.227333155808818 
1407	 0.219971553335181 
1408	 0.217419405030354 
1409	 0.21899275826547 
1410	 0.217935100308195 
1411	 0.215159838616872 
1412	 0.210908371475573 
1413	 0.208749265546216 
1414	 0.206159050553518 
1415	 0.20421525484788 
1416	 0.203583408146805 
1417	 0.201765416086077 
1418	 0.198708796119029 
1419	 0.197672443504723 
1420	 0.197763740832813 
1421	 0.196982242108328 
1422	 0.196762783815137 
1423	 0.195459375408653 
1424	 0.192427711047484 
1425	 0.191614660788478 
1426	 0.191852915606392 
1427	 0.191370423407946 
1428	 0.191825947310418 
1429	 0.19136693406278 
1430	 0.189337817812836 
1431	 0.188553056328337 
1432	 0.189049639438014 
1433	 0.188096088366814 
1434	 0.186446097356689 
1435	 0.185424533117519 
1436	 0.183196347054308 
1437	 0.182282400257271 
1438	 0.18314296405625 
1439	 0.183091699173702 
1440	 0.182842435210782 
1441	 0.1829199072192 
1442	 0.182615177067801 
1443	 0.182851670357245 
1444	 0.183452731664049 
1445	 0.183426721320183 
1446	 0.183766272987498 
1447	 0.184149997640441 
1448	 0.184657655030251 
1449	 0.185598666900578 
1450	 0.185712223403015 
1451	 0.185373650601124 
1452	 0.185621080154004 
1453	 0.185722307330713 
1454	 0.1860593075913 
1455	 0.186873687392868 
1456	 0.18733498477491 
1457	 0.187593686423477 
1458	 0.187982120163261 
1459	 0.188557054383082 
1460	 0.188844638046444 
1461	 0.188934916945483 
1462	 0.189189653948774 
1463	 0.189405479523386 
1464	 0.189671743099192 
1465	 0.190005674799141 
1466	 0.190481141296463 
1467	 0.190893281015157 
1468	 0.191547233118124 
1469	 0.192340067166496 
1470	 0.193483032708189 
1471	 0.194802947700438 
1472	 0.196264996521087 
1473	 0.198308222918825 
1474	 0.199696211038887 
1475	 0.200644887060907 
1476	 0.201889010380094 
1477	 0.202702350344513 
1478	 0.204031977197202 
1479	 0.205877653681397 
1480	 0.207510852041307 
1481	 0.209046633921069 
1482	 0.210875806920089 
1483	 0.212589551294392 
1484	 0.214644610762635 
1485	 0.217445896957164 
1486	 0.219591631241564 
1487	 0.221494332282989 
1488	 0.223290678707842 
1489	 0.225009757258858 
1490	 0.226567614281773 
1491	 0.228422427732135 
1492	 0.23062946080528 
1493	 0.232744812193828 
1494	 0.234615845035245 
1495	 0.236551691159149 
1496	 0.238585737127797 
1497	 0.240370635993138 
1498	 0.242015999669058 
1499	 0.24384140341 
1500	 0.245586826972663 
1501	 0.24755839686885 
1502	 0.249870247821268 
1503	 0.251752609812061 
1504	 0.253503164840253 
1505	 0.255361732211325 
1506	 0.256994602828265 
1507	 0.258849939925795 
1508	 0.260968465921946 
1509	 0.262832626026294 
1510	 0.264572703999232 
1511	 0.266421383484722 
1512	 0.268321797179556 
1513	 0.270081595273527 
1514	 0.271778735837747 
1515	 0.273584307483536 
1516	 0.27526631754576 
1517	 0.277158460838359 
1518	 0.279376056921719 
1519	 0.281340387652855 
1520	 0.28325502558778 
1521	 0.285157916913506 
1522	 0.286929890930788 
1523	 0.288817490147156 
1524	 0.290827806906628 
1525	 0.292710308064933 
1526	 0.294559781480727 
1527	 0.296418397996343 
1528	 0.298210505599797 
1529	 0.300035513995366 
1530	 0.301949742248681 
1531	 0.303745440825994 
1532	 0.305418741882422 
1533	 0.307215500912618 
1534	 0.309045294007428 
1535	 0.310845362619854 
1536	 0.31282254259357 
1537	 0.314551785755498 
1538	 0.316002676581008 
1539	 0.317642227554708 
1540	 0.319206065460255 
1541	 0.320871943129772 
1542	 0.322861387828082 
1543	 0.324566064083352 
1544	 0.326005974644735 
1545	 0.327652593269603 
1546	 0.32925679089358 
1547	 0.33091901107765 
1548	 0.333005366284407 
1549	 0.334674303551048 
1550	 0.335846813204513 
1551	 0.337396808380848 
1552	 0.339107720613141 
1553	 0.340576477903127 
1554	 0.342108336015784 
1555	 0.343683764441648 
1556	 0.344979061669648 
1557	 0.346369078706814 
1558	 0.348044598742245 
1559	 0.349610771790545 
1560	 0.351049833659287 
1561	 0.352493520353449 
1562	 0.354026610034602 
1563	 0.35543024462746 
1564	 0.35666704445455 
1565	 0.357994457150796 
1566	 0.359369991758148 
1567	 0.360513154783983 
1568	 0.361751752584725 
1569	 0.362981008998029 
1570	 0.364345518984638 
1571	 0.365682817714188 
1572	 0.367219604826326 
1573	 0.369027560322316 
1574	 0.370487447792055 
1575	 0.371907622394685 
1576	 0.373188597130445 
1577	 0.374211486840145 
1578	 0.375409858678595 
1579	 0.376616641130984 
1580	 0.377787950513096 
1581	 0.378924063654937 
1582	 0.380172153070761 
1583	 0.381453511435044 
1584	 0.382693531872285 
1585	 0.384028128521724 
1586	 0.385237747916344 
1587	 0.386354094559196 
1588	 0.387480606031137 
1589	 0.388642263266049 
1590	 0.389638045358515 
1591	 0.390493494136908 
1592	 0.391471069516546 
1593	 0.392413684069771 
1594	 0.393359994683871 
1595	 0.394424193405128 
1596	 0.395315983285875 
1597	 0.395957072954865 
1598	 0.397027874533395 
1599	 0.398301069555588 
1600	 0.399370016790256 
1601	 0.400646299886029 
1602	 0.401689254705536 
1603	 0.402387719679577 
1604	 0.403409227152114 
1605	 0.40459743062494 
1606	 0.405640536473925 
1607	 0.406739013958946 
1608	 0.407665619973055 
1609	 0.408375893248928 
1610	 0.409350290154643 
1611	 0.41041312315846 
1612	 0.411310152674736 
1613	 0.412324168160755 
1614	 0.413144300658243 
1615	 0.413606683995226 
1616	 0.414471174582346 
1617	 0.415567924736226 
1618	 0.41636982894298 
1619	 0.417247246520213 
1620	 0.41795628238043 
1621	 0.418289287590501 
1622	 0.41907123917971 
1623	 0.420139589290181 
1624	 0.420833238996432 
1625	 0.421535532132569 
1626	 0.422183592707877 
1627	 0.422542993915006 
1628	 0.423197309465262 
1629	 0.424084567891115 
1630	 0.424766276280845 
1631	 0.425455209075655 
1632	 0.425912033382661 
1633	 0.426267351275176 
1634	 0.426547699539289 
1635	 0.426577799416781 
1636	 0.426869862174064 
1637	 0.427150087471407 
1638	 0.427592958581179 
1639	 0.428299587840617 
1640	 0.428719132418943 
1641	 0.429012334853516 
1642	 0.429525825510004 
1643	 0.430109196759541 
1644	 0.430347175110488 
1645	 0.430681865851138 
1646	 0.430832819332786 
1647	 0.430550222655763 
1648	 0.43044020493042 
1649	 0.430393477260773 
1650	 0.430402078746153 
1651	 0.430394687296335 
1652	 0.430283363373613 
1653	 0.430310726872216 
1654	 0.430090650826951 
1655	 0.429526785765893 
1656	 0.429227164722519 
1657	 0.429090821028376 
1658	 0.428657336298074 
1659	 0.428070136798166 
1660	 0.427680624712573 
1661	 0.427429395677333 
1662	 0.427393991958419 
1663	 0.427558562134032 
1664	 0.427313621121198 
1665	 0.427080210976734 
1666	 0.42699681271675 
1667	 0.426830981696019 
1668	 0.426968875228574 
1669	 0.427425628733392 
1670	 0.427654664955871 
1671	 0.42770326027961 
1672	 0.428160506888944 
1673	 0.428360728329481 
1674	 0.428359141321871 
1675	 0.428752690573405 
1676	 0.428868886708098 
1677	 0.428659291569999 
1678	 0.428455487767395 
1679	 0.428360634189591 
1680	 0.428107644855235 
1681	 0.427719211225627 
1682	 0.427818320544102 
1683	 0.427943459680689 
1684	 0.427846636705234 
1685	 0.427695483979017 
1686	 0.427213620280514 
1687	 0.426522252907842 
1688	 0.425990856078231 
1689	 0.425819394675787 
1690	 0.425482832613962 
1691	 0.425092013754342 
1692	 0.424538574010512 
1693	 0.424042422699371 
1694	 0.423756801157045 
1695	 0.423175871589444 
1696	 0.422337570630621 
1697	 0.421662863837104 
1698	 0.420832161934329 
1699	 0.420054986760146 
1700	 0.419674330675027 
1701	 0.418929255621169 
1702	 0.417860930082236 
1703	 0.416942918994385 
1704	 0.415735208477137 
1705	 0.414758031418058 
1706	 0.414154096315006 
1707	 0.41330132423709 
1708	 0.41239436545067 
1709	 0.411532784764146 
1710	 0.410473762899723 
1711	 0.409582046988947 
1712	 0.408918117047199 
1713	 0.407966525524479 
1714	 0.406904245739997 
1715	 0.405969901749212 
1716	 0.404972859689578 
1717	 0.404126162113278 
1718	 0.403430123764496 
1719	 0.402560397735674 
1720	 0.401645085266374 
1721	 0.400553601915359 
1722	 0.3993150770099 
1723	 0.398358986381149 
1724	 0.397375451982709 
1725	 0.396356642736412 
1726	 0.395491972446144 
1727	 0.394669752459123 
1728	 0.393751351534687 
1729	 0.392962044321632 
1730	 0.392422921679353 
1731	 0.391590049237292 
1732	 0.390927995023631 
1733	 0.390239528559855 
1734	 0.388958668485112 
1735	 0.387924434712376 
1736	 0.386916121650504 
1737	 0.385629358038072 
1738	 0.385304531166073 
1739	 0.384653928599516 
1740	 0.383686985487091 
1741	 0.3834040013732 
1742	 0.382608931943736 
1743	 0.381964904926889 
1744	 0.3816836214865 
1745	 0.381219470539984 
1746	 0.380377972820501 
1747	 0.378998371949703 
1748	 0.377843431045622 
1749	 0.376655195732619 
1750	 0.375374043931513 
1751	 0.374942894280976 
1752	 0.374418596997408 
1753	 0.372921232804458 
1754	 0.37190887515657 
1755	 0.370789351621069 
1756	 0.368927960547031 
1757	 0.367127003440406 
1758	 0.366059840910747 
1759	 0.365787079110403 
1760	 0.364812124142955 
1761	 0.364078934350665 
1762	 0.363059762143434 
1763	 0.360980918665391 
1764	 0.359641863960987 
1765	 0.358760471392629 
1766	 0.357950123436154 
1767	 0.357546045706054 
1768	 0.356739546057198 
1769	 0.355718626554798 
1770	 0.355002470858533 
1771	 0.35423327830276 
1772	 0.353504689483782 
1773	 0.3533050676951 
1774	 0.351866638743077 
1775	 0.350772569385825 
1776	 0.349636970791625 
1777	 0.348459786575427 
1778	 0.348250458307521 
1779	 0.347543588663077 
1780	 0.346720742545709 
1781	 0.346194279201749 
1782	 0.345502840886804 
1783	 0.345141865536177 
1784	 0.344920882962251 
1785	 0.34530614649567 
1786	 0.345138839912225 
1787	 0.34399748113071 
1788	 0.342861926862476 
1789	 0.341626920360256 
1790	 0.340834859793854 
1791	 0.340001772946343 
1792	 0.339604234680856 
1793	 0.338444801836622 
1794	 0.336355777484214 
1795	 0.335613308333746 
1796	 0.334238650578018 
1797	 0.333720759888161 
1798	 0.333837635685035 
1799	 0.332488768702538 
1800	 0.3318694997173 
1801	 0.333378489177419 
1802	 0.334424394984093 
1803	 0.333103783201579 
1804	 0.328519643422956 
1805	 0.326537529697854 
1806	 0.324509666339502 
1807	 0.324074099824609 
1808	 0.327146132501157 
1809	 0.328622961406894 
1810	 0.328320261606331 
1811	 0.328613935846363 
1812	 0.326873499274324 
1813	 0.318809228983011 
1814	 0.315643966311057 
1815	 0.314549337898875 
1816	 0.313360705570848 
1817	 0.317629147589409 
1818	 0.317041346206675 
1819	 0.314316489909985 
1820	 0.306367750514921 
1821	 0.304919968641134 
1822	 0.301727225945632 
1823	 0.302942605654371 
1824	 0.319482133367192 
1825	 0.323835053219305 
1826	 0.316441395057378 
1827	 0.31749566749245 
1828	 0.319687778843681 
1829	 0.319107270860776 
1830	 0.315257230370148 
1831	 0.313103214676233 
1832	 0.32050463521698 
1833	 0.338058511618071 
1834	 0.331371727026835 
1835	 0.311195363357055 
1836	 0.319434766614491 
1837	 0.274885597669398 
1838	 0.275499373013297 
1839	 0.316252665551727 
1840	 0.507648742483416 
1841	 0.56865804369585 
1842	 0.592831769931186 
1843	 0.578811519682202 
1844	 0.479623865484569 
1845	 0.43499474347676 
1846	 0.362207283387454 
1847	 0.322729882426633 
1848	 0.299907045501851 
1849	 0.296070334774177 
1850	 0.308658174895396 
1851	 0.365959008334642 
1852	 0.377903986912495 
1853	 0.386386826921984 
1854	 0.39093392537116 
1855	 0.363974033790895 
1856	 0.358142630450985 
1857	 0.386233222646519 
1858	 0.374546869985693 
1859	 0.366801614774129 
1860	 0.353134373247609 
1861	 0.348305381239354 
1862	 0.337408509327363 
1863	 0.332578528716746 
1864	 0.328631524128013 
1865	 0.331077193470758 
1866	 0.355428729423056 
1867	 0.348646885200081 
1868	 0.364216589894749 
1869	 0.351276218061323 
1870	 0.340805990560627 
1871	 0.326280429757459 
1872	 0.306564086349582 
1873	 0.297284190188416 
1874	 0.260923082387371 
1875	 0.190562289813735 
1876	 0.164253328636385 
1877	 0.148166359909881 
1878	 0.138193720722289 
1879	 0.139940540535883 
1880	 0.170556322502443 
1881	 0.183293029044671 
1882	 0.205535020962023 
1883	 0.203547929129997 
1884	 0.194089435372731 
1885	 0.180432672703881 
1886	 0.14516757063918 
1887	 0.126935462484416 
1888	 0.118488814056174 
1889	 0.110082959316099 
1890	 0.120493299187623 
1891	 0.16833945783813 
1892	 0.175737187174559 
1893	 0.16557745736446 
1894	 0.175342300936244 
1895	 0.175309410078051 
1896	 0.176947654731705 
1897	 0.203315280796164 
1898	 0.242901952360439 
1899	 0.204220634307206 
1900	 0.171280720998185 
1901	 0.171843749987795 
1902	 0.179493889346931 
1903	 0.188269459225204 
1904	 0.279519112253896 
1905	 0.296409051077649 
1906	 0.212098730051851 
1907	 0.239465613767098 
1908	 0.325214292614097 
1909	 0.284308860498879 
1910	 0.258284547891719 
1911	 0.214799166101358 
1912	 0.193481299830957 
1913	 0.170604512482179 
1914	 0.145647889900909 
1915	 0.12269684301899 
1916	 0.120053647786883 
1917	 0.119335203154606 
1918	 0.10594789821574 
1919	 0.113193705007474 
1920	 0.119351858305755 
1921	 0.113655064661458 
1922	 9.21075049450878E-02 
1923	 8.51089804819229E-02 
1924	 7.86847669287687E-02 
1925	 0.079414849095939 
1926	 9.33311995165075E-02 
1927	 9.92756527800796E-02 
1928	 0.104569920656157 
1929	 0.104303009471387 
1930	 0.113680216158985 
1931	 0.11080663299825 
1932	 0.116469160483763 
1933	 0.129180812178954 
1934	 0.12700438053224 
1935	 0.117469262348788 
1936	 0.108175268571125 
1937	 8.70461265031998E-02 
1938	 8.24816367776087E-02 
1939	 8.46928753373024E-02 
1940	 8.54877182787858E-02 
1941	 8.95554171965572E-02 
1942	 9.29635371360902E-02 
1943	 8.66962694132188E-02 
1944	 8.54136754559154E-02 
1945	 8.60557758421809E-02 
1946	 8.51521100956832E-02 
1947	 8.81045082606793E-02 
1948	 9.76022980880326E-02 
1949	 9.84814175228045E-02 
1950	 9.62388733447013E-02 
1951	 9.70753988375321E-02 
1952	 9.75519969811273E-02 
1953	 9.60588707807509E-02 
1954	 9.59532213055532E-02 
1955	 9.89281391510534E-02 
1956	 9.43049182816172E-02 
1957	 8.50884643627093E-02 
1958	 8.28524656878394E-02 
1959	 8.36441484636514E-02 
1960	 0.083987010335584 
1961	 8.55670871016145E-02 
1962	 0.09061600925393 
1963	 9.11695808993835E-02 
1964	 8.82920983523102E-02 
1965	 8.58710977649196E-02 
1966	 8.47115919560723E-02 
1967	 8.60312913077085E-02 
1968	 8.90800867611921E-02 
1969	 9.04976888557718E-02 
1970	 9.21187291247661E-02 
1971	 9.31449365333737E-02 
1972	 9.30472470839566E-02 
1973	 9.37891205883197E-02 
1974	 9.62638548962982E-02 
1975	 9.63709325952294E-02 
1976	 9.61721829174041E-02 
1977	 9.54848301717061E-02 
1978	 9.28182214998521E-02 
1979	 9.32839111099874E-02 
1980	 9.46740332036471E-02 
1981	 9.50859107670171E-02 
1982	 9.55228749549907E-02 
1983	 9.65288269986049E-02 
1984	 0.095741917121513 
1985	 9.56762630965949E-02 
1986	 9.64952054458811E-02 
1987	 9.70493391060178E-02 
1988	 9.81768864543364E-02 
1989	 0.098671268305173 
1990	 9.78151366386173E-02 
1991	 9.75938545417766E-02 
1992	 9.90012473230776E-02 
1993	 0.099549399703702 
1994	 0.10069581915647 
1995	 0.10170572000984 
1996	 0.10340385588719 
1997	 0.102158644752607 
1998	 0.101644527643931 
1999	 0.101510005579315 
2000	 0.100374204029404 
2001	 0.102306023733859 
2002	 0.105126604200359 
2003	 0.108012324099997 
2004	 0.112656911623968 
2005	 0.114765807874778 
2006	 0.115223088634588 
2007	 0.113591007724499 
2008	 0.112392280720057 
2009	 0.108747416963164 
2010	 0.108012539707447 
2011	 0.111256549294287 
2012	 0.110848160391247 
2013	 0.112280658890745 
2014	 0.113977506929102 
2015	 0.111824595898485 
2016	 0.111720702536158 
2017	 0.113172210910495 
2018	 0.113743208812641 
2019	 0.114220440461975 
2020	 0.114570244179649 
2021	 0.11637881189865 
2022	 0.116962415455169 
2023	 0.117216452981809 
2024	 0.119224163533498 
2025	 0.119573713272295 
2026	 0.120714318362415 
2027	 0.121798719393235 
2028	 0.121282953575545 
2029	 0.122221898132078 
2030	 0.123197918919546 
2031	 0.123926311963873 
2032	 0.124717019270445 
2033	 0.126172357077411 
2034	 0.126666780951953 
2035	 0.126233284115956 
2036	 0.125956058217652 
2037	 0.12606449418512 
2038	 0.126842790744203 
2039	 0.12831846414802 
2040	 0.13016486743513 
2041	 0.13136212369396 
2042	 0.131664741666525 
2043	 0.1323922813078 
2044	 0.132709808481939 
2045	 0.132877954210648 
2046	 0.132940256312231 
2047	 0.133904700551986 
2048	 0.133479027434403 
2049	 0.132765648395725 
2050	 0.134602868732853 
2051	 0.136206365024314 
2052	 0.137593423693314 
2053	 0.139821898808012 
2054	 0.140006555165037 
2055	 0.139568110040496 
2056	 0.138751415663529 
2057	 0.136486703148447 
2058	 0.13670692659282 
2059	 0.137444821619042 
2060	 0.1386076837116 
2061	 0.139707177560069 
2062	 0.14324863675465 
2063	 0.145317421529259 
2064	 0.145690320095286 
2065	 0.146475164421858 
2066	 0.146449843339487 
2067	 0.145535165779822 
2068	 0.145346264982863 
2069	 0.146615156168266 
2070	 0.148488120752909 
2071	 0.150482705928109 
2072	 0.151857383812874 
2073	 0.153303706782873 
2074	 0.153354023861347 
2075	 0.153088134880634 
2076	 0.154127248061826 
2077	 0.153529325785154 
2078	 0.152881613727656 
2079	 0.154195130770656 
2080	 0.15337639370175 
2081	 0.153196852513427 
2082	 0.155551933205991 
2083	 0.155674060200903 
2084	 0.154748451365049 
2085	 0.155957967009971 
2086	 0.156821995284064 
2087	 0.157721070073863 
2088	 0.158981923004354 
2089	 0.161515667621834 
2090	 0.16221272986567 
2091	 0.161582888439639 
2092	 0.161396754633584 
2093	 0.161786690670463 
2094	 0.16215434277273 
2095	 0.163778308900918 
2096	 0.165153589885813 
2097	 0.165041383899778 
2098	 0.166363683691133 
2099	 0.167409283676607 
2100	 0.167584685812463 
2101	 0.168985558628401 
2102	 0.169392961870512 
2103	 0.168873932512608 
2104	 0.168205308535482 
2105	 0.167984056736404 
2106	 0.166831619050953 
2107	 0.167442811381119 
2108	 0.168225437346966 
2109	 0.170088539748454 
2110	 0.172245795917766 
2111	 0.172815758750662 
2112	 0.173926824071901 
2113	 0.173459079986037 
2114	 0.173422118544355 
2115	 0.174490363076327 
2116	 0.174661475013777 
2117	 0.175082303867259 
2118	 0.176105579161143 
2119	 0.176390002742695 
2120	 0.17622524435879 
2121	 0.175946586539854 
2122	 0.175769726861908 
2123	 0.177102469743583 
2124	 0.177904719902162 
2125	 0.177702263736604 
2126	 0.177233694882176 
2127	 0.176155572958764 
2128	 0.176702392578743 
2129	 0.178174261900499 
2130	 0.180225453062013 
2131	 0.181943234960708 
2132	 0.182568036683489 
2133	 0.18311085856977 
2134	 0.18384410247466 
2135	 0.184424991069436 
2136	 0.186165558246404 
2137	 0.187253736968998 
2138	 0.187202033931312 
2139	 0.18764520066835 
2140	 0.187082983263405 
2141	 0.186041647272809 
2142	 0.185694763966672 
2143	 0.185655001000549 
2144	 0.184634898766337 
2145	 0.183616495477527 
2146	 0.184252088439034 
2147	 0.184618412733502 
2148	 0.184602776263773 
2149	 0.185689362269628 
2150	 0.186030441144606 
2151	 0.186491698538412 
2152	 0.187511819067348 
2153	 0.188509293192281 
2154	 0.189169861210488 
2155	 0.190159160417521 
2156	 0.191276043596084 
2157	 0.190544108465429 
2158	 0.19115350963764 
2159	 0.191692684749127 
2160	 0.191951591160497 
2161	 0.193017421620833 
2162	 0.194558357500202 
2163	 0.196198395773316 
2164	 0.197357477297665 
2165	 0.199540312986614 
2166	 0.200097949387969 
2167	 0.198421658098598 
2168	 0.197984781460142 
2169	 0.19722328609972 
2170	 0.197497266298095 
2171	 0.197952032392031 
2172	 0.200714534727684 
2173	 0.203567096256561 
2174	 0.204334716262963 
2175	 0.205357442097749 
2176	 0.20611500337665 
2177	 0.206038793627523 
2178	 0.206785947037937 
2179	 0.207138840087032 
2180	 0.206365765490989 
2181	 0.205768453307338 
2182	 0.205977904482833 
2183	 0.206037359466452 
2184	 0.204986201777062 
2185	 0.203323463838513 
2186	 0.202711842204724 
2187	 0.202898304395748 
2188	 0.204449510452286 
2189	 0.205694724531059 
2190	 0.208306851749026 
2191	 0.207995028903888 
2192	 0.208039736054221 
2193	 0.207919337646346 
2194	 0.207059067943899 
2195	 0.208068476705347 
2196	 0.208292827407835 
2197	 0.207176931967152 
2198	 0.208311809205121 
2199	 0.209171963661182 
2200	 0.209530199170085 
2201	 0.211501064801383 
2202	 0.212468916044239 
2203	 0.211536730083892 
2204	 0.211457649858248 
2205	 0.212849245278697 
2206	 0.212963057962101 
2207	 0.21495495937494 
2208	 0.21619480998938 
2209	 0.216617371149237 
2210	 0.216816257152891 
2211	 0.217458916848908 
2212	 0.216728222099767 
2213	 0.214019821019387 
2214	 0.214483196683254 
2215	 0.214119658261633 
2216	 0.213563249063975 
2217	 0.216070371989158 
2218	 0.215918284918784 
2219	 0.215730292918964 
2220	 0.215404979219501 
2221	 0.213908012302781 
2222	 0.214383448100369 
2223	 0.213117384966124 
2224	 0.213626338504689 
2225	 0.213268476909722 
2226	 0.211802337974624 
2227	 0.213657411609362 
2228	 0.212286794257561 
2229	 0.211243620739199 
2230	 0.212649338316956 
2231	 0.212086750366501 
2232	 0.208917942943115 
2233	 0.208367683137065 
2234	 0.208777225732914 
2235	 0.208117556598428 
2236	 0.209125367811565 
2237	 0.210657568313812 
2238	 0.210316226707074 
2239	 0.208627410746174 
2240	 0.207980189544488 
2241	 0.206763704145619 
2242	 0.205825408642781 
2243	 0.20802059905231 
2244	 0.208079053189815 
2245	 0.207441416349981 
2246	 0.208174178593767 
2247	 0.206660596481052 
2248	 0.204424919465387 
2249	 0.203507304960345 
2250	 0.203313271949323 
2251	 0.202617337573717 
2252	 0.203776311116449 
2253	 0.205560277701685 
2254	 0.204560316102257 
2255	 0.202523644607032 
2256	 0.201122914705653 
2257	 0.198563781247101 
2258	 0.197275302995372 
2259	 0.198075322625072 
2260	 0.198286917596224 
2261	 0.19828207510279 
2262	 0.197477857920117 
2263	 0.195195867775831 
2264	 0.194537383203472 
2265	 0.195271846219227 
2266	 0.194339188460634 
2267	 0.192405724428252 
2268	 0.191622842476704 
2269	 0.192744906482466 
2270	 0.193114830318829 
2271	 0.193631305567829 
2272	 0.194056758682952 
2273	 0.192809448420413 
2274	 0.191430531613794 
2275	 0.189273272108551 
2276	 0.18905623744033 
2277	 0.187116651383886 
2278	 0.182854395842616 
2279	 0.181974672844148 
2280	 0.182923353148609 
2281	 0.184904903340636 
2282	 0.187481636712196 
2283	 0.188219251860224 
2284	 0.186351573850843 
2285	 0.183745115742368 
2286	 0.181968097770153 
2287	 0.180734356752543 
2288	 0.179706169169838 
2289	 0.176995300187112 
2290	 0.176889231767426 
2291	 0.176349344327805 
2292	 0.17519931718486 
2293	 0.180019390657806 
2294	 0.180389832296211 
2295	 0.179193823543378 
2296	 0.182362843711747 
2297	 0.178825177427291 
2298	 0.175441762072318 
2299	 0.176393116957748 
2300	 0.173102665310392 
2301	 0.17036642677742 
2302	 0.172000213192875 
2303	 0.170866324440616 
2304	 0.168692771013714 
2305	 0.171124447618283 
2306	 0.169374020219034 
2307	 0.165802626138427 
2308	 0.167541875108959 
2309	 0.169026479741859 
2310	 0.170799990265503 
2311	 0.170512562895939 
2312	 0.165759315192643 
2313	 0.160780870344548 
2314	 0.155856216011814 
2315	 0.153554463132786 
2316	 0.157090376267851 
2317	 0.161654474420125 
2318	 0.160852616036857 
2319	 0.158242403509558 
2320	 0.156721077182271 
2321	 0.15549157376754 
2322	 0.151605696195796 
2323	 0.152916379312347 
2324	 0.158877207212662 
2325	 0.162697835022846 
2326	 0.163757022024112 
2327	 0.165360128661359 
2328	 0.166152750508836 
2329	 0.162067208640071 
2330	 0.160042232835186 
2331	 0.16010292925723 
2332	 0.159619552931679 
2333	 0.159650021312706 
2334	 0.157807751231562 
2335	 0.157137711280961 
2336	 0.156845076823022 
2337	 0.1567962159969 
2338	 0.160401553704933 
2339	 0.163901903723387 
2340	 0.160655720391628 
2341	 0.157636839478851 
2342	 0.156814461068011 
2343	 0.150514773099705 
2344	 0.148891111143543 
2345	 0.153011486021923 
2346	 0.154756340735155 
2347	 0.157437147195977 
2348	 0.161257733354245 
2349	 0.156895601350441 
2350	 0.147045409666886 
2351	 0.140192714650301 
2352	 0.133545648621089 
2353	 0.136979416869085 
2354	 0.148816365040702 
2355	 0.156039906889291 
2356	 0.161110540507894 
2357	 0.15838771955949 
2358	 0.148023278267613 
2359	 0.142319847248545 
2360	 0.139219611667622 
2361	 0.139312367104615 
2362	 0.146377914475847 
2363	 0.150498756181644 
2364	 0.150451807419046 
2365	 0.149722924262528 
2366	 0.14574574965567 
2367	 0.138583938879272 
2368	 0.134127170662507 
2369	 0.13203983157271 
2370	 0.130139932616776 
2371	 0.136514413743464 
2372	 0.139151427202331 
2373	 0.140924764910872 
2374	 0.144999513256731 
2375	 0.148416647366578 
2376	 0.148071855318679 
2377	 0.154726362263208 
2378	 0.153000235079316 
2379	 0.137904888393842 
2380	 0.137101411705163 
2381	 0.137199716464947 
2382	 0.138273090601603 
2383	 0.154369794924384 
2384	 0.155731780341692 
2385	 0.146452150950265 
2386	 0.141617482802506 
2387	 0.131565749785882 
2388	 0.127002350251597 
2389	 0.12833396004112 
2390	 0.130081885404419 
2391	 0.130424674777202 
2392	 0.129260389366459 
2393	 0.129427481164782 
2394	 0.131209824421754 
2395	 0.138720029965676 
2396	 0.138898748925243 
2397	 0.134852201804156 
2398	 0.130739762980583 
2399	 0.111083257542358 
2400	 0.111724864982919 
2401	 0.129007764276591 
2402	 0.138130123773255 
2403	 0.144089026378213 
2404	 0.150361089311287 
2405	 0.13941582884765 
2406	 0.126212625093065 
2407	 0.121858269001458 
2408	 0.122123372068966 
2409	 0.129233897277177 
2410	 0.143513358560663 
2411	 0.151327137349729 
2412	 0.150137259265016 
2413	 0.138326485839803 
2414	 0.114922040584037 
2415	 0.103906410858747 
2416	 0.109014785092268 
2417	 0.113586458253688 
2418	 0.122355442162069 
2419	 0.136236561611387 
2420	 0.138391870400418 
2421	 0.140933100156478 
2422	 0.147224563667598 
2423	 0.141433311549879 
2424	 0.13616776231383 
2425	 0.138491204976386 
2426	 0.138179392550253 
2427	 0.137538787851929 
2428	 0.140214287280659 
2429	 0.136211791395018 
2430	 0.134115061264473 
2431	 0.146085699632457 
2432	 0.149627566961829 
2433	 0.142890112434706 
2434	 0.143667234865956 
2435	 0.146151397430101 
2436	 0.142528915367789 
2437	 0.143257355957779 
2438	 0.136051388212295 
2439	 0.100876679714515 
2440	 9.16671350945613E-02 
2441	 9.47040807561931E-02 
2442	 0.107002671610082 
2443	 0.158535748829689 
2444	 0.180349679259919 
2445	 0.205094769419046 
2446	 0.192487861349862 
2447	 0.110334165681783 
2448	 7.86338261902067E-02 
2449	 3.84780991443369E-02 
2450	 3.20524074044999E-02 
2451	 0.100365420492542 
2452	 0.112843466702132 
2453	 0.105398757825543 
2454	 0.111110380567942 
2455	 9.86631515980456E-02 
2456	 0.100399340885568 
2457	 0.123502619006987 
2458	 0.125744942823951 
2459	 0.11554332455322 
2460	 0.120479765214781 
2461	 0.135144007419064 
2462	 0.130672309377822 
2463	 0.117989421423536 
2464	 0.124392405088532 
2465	 0.112765081232211 
2466	 0.117986676901857 
2467	 0.169524950407146 
2468	 0.196245261119674 
2469	 0.214241776353026 
2470	 0.234486535091811 
2471	 0.252439925807137 
2472	 0.249524941363212 
2473	 0.233486042614329 
2474	 0.209772460801855 
2475	 0.153273219907939 
2476	 0.11005076023065 
2477	 2.34413353136343E-02 
2478	-3.55712555479408E-03 
2479	 3.81757990322242E-02 
2480	 6.67973010028758E-02 
2481	 0.162625398933055 
2482	 0.171235616831263 
2483	 0.124662954434164 
2484	 6.96702341112744E-02 
2485	-0.127294121599569 
2486	-0.01332220408712 
2487	 0.103039567110959 
2488	 0.245553362862537 
2489	 0.406399291236592 
2490	 0.51458524776495 
2491	 0.566204612008335 
2492	 0.463384108876513 
2493	 0.471263737069194 
2494	 0.465984106740902 
2495	 0.495429018988036 
2496	 0.678196380752144 
2497	 0.672622779832291 
2498	 0.522364443425185 
2499	 0.646097570935303 
2500	 0.544312824440623 
