Wavelength	ref00068.asd
350	 1.27692311876907E-02 
351	 1.25961343123408E-02 
352	 1.31194584218444E-02 
353	 1.34036278327444E-02 
354	 0.012533349752735 
355	 1.18130055626935E-02 
356	 1.19529727528289E-02 
357	 1.15913659242454E-02 
358	 1.16322790134473E-02 
359	 1.19189960194987E-02 
360	 1.20466265361309E-02 
361	 0.012068256920646 
362	 0.011564617139071 
363	 1.12758528273243E-02 
364	 1.22806596834898E-02 
365	 1.11212421500528E-02 
366	 1.05644402174468E-02 
367	 0.011535661903254 
368	 1.14344049379549E-02 
369	 1.10469989828421E-02 
370	 1.08126686707933E-02 
371	 1.09155010636599E-02 
372	 1.09650637042247E-02 
373	 1.10578029164669E-02 
374	 1.09420356856062E-02 
375	 1.03625442927643E-02 
376	 1.03131123128216E-02 
377	 1.05710628972425E-02 
378	 1.09219111403702E-02 
379	 1.13046000198586E-02 
380	 1.11140140195315E-02 
381	 1.10650395045858E-02 
382	 1.15351004366777E-02 
383	 1.11704492681335E-02 
384	 1.11281267517636E-02 
385	 1.14133187445186E-02 
386	 1.15862891415834E-02 
387	 1.19188222844155E-02 
388	 1.23551516902434E-02 
389	 1.26104579547053E-02 
390	 0.012279458793445 
391	 1.29220248135341E-02 
392	 1.34430421998968E-02 
393	 1.32178231212549E-02 
394	 1.37289056955643E-02 
395	 1.47167598319397E-02 
396	 0.015553942936377 
397	 1.57847299119311E-02 
398	 1.66099786653189E-02 
399	 1.72944622819868E-02 
400	 1.78163054270866E-02 
401	 1.87668884306111E-02 
402	 1.95941866976931E-02 
403	 2.04983423267932E-02 
404	 2.16648468089328E-02 
405	 2.30393224863204E-02 
406	 2.46876903214619E-02 
407	 2.63819170888086E-02 
408	 2.79286704858775E-02 
409	 2.98530304732036E-02 
410	 3.19889036225874E-02 
411	 3.42913795651369E-02 
412	 3.68198130360875E-02 
413	 3.91824452749841E-02 
414	 4.14665317708133E-02 
415	 4.38449568303693E-02 
416	 4.64851101530372E-02 
417	 4.93625165604591E-02 
418	 5.21643007408028E-02 
419	 5.46664634725507E-02 
420	 5.76002324472045E-02 
421	 6.05559796937258E-02 
422	 6.32959646554883E-02 
423	 6.58193991744271E-02 
424	 6.83882172134608E-02 
425	 7.11027701501625E-02 
426	 7.38443593144601E-02 
427	 7.60679148614547E-02 
428	 7.83906856991763E-02 
429	 8.09155151904001E-02 
430	 8.35025267478146E-02 
431	 8.58357697767296E-02 
432	 8.82555104659187E-02 
433	 0.090730148160866 
434	 9.29012786611877E-02 
435	 9.48446629527943E-02 
436	 9.64270095677427E-02 
437	 9.77194344965751E-02 
438	 9.92651630425314E-02 
439	 0.100683781450575 
440	 0.102043807412517 
441	 0.103491611785674 
442	 0.104762124758851 
443	 0.105841314115179 
444	 0.10673080492749 
445	 0.107440345954202 
446	 0.108070227166536 
447	 0.108776219526898 
448	 0.10963219436006 
449	 0.110541039166476 
450	 0.11129410844948 
451	 0.111897665719051 
452	 0.112482508260506 
453	 0.113230439491148 
454	 0.114069800879867 
455	 0.114988313988992 
456	 0.116067495192365 
457	 0.11723780684599 
458	 0.11842007378675 
459	 0.119588756528872 
460	 0.120840992275319 
461	 0.122389034902703 
462	 0.124045118536444 
463	 0.125432249680239 
464	 0.12668477857005 
465	 0.128045325899897 
466	 0.129534545785404 
467	 0.130833197535062 
468	 0.131889670701906 
469	 0.132894810362959 
470	 0.133976089676209 
471	 0.134738777376478 
472	 0.13525696634957 
473	 0.13561424775403 
474	 0.135885272976547 
475	 0.135963732554197 
476	 0.136032096577443 
477	 0.136193192760417 
478	 0.13632969763477 
479	 0.136520868199242 
480	 0.13681769133991 
481	 0.137250725842428 
482	 0.137796111752633 
483	 0.138419208974154 
484	 0.139150520423665 
485	 0.140068951434573 
486	 0.140895731042002 
487	 0.142076868081524 
488	 0.143836117723646 
489	 0.145525736117534 
490	 0.147022329987453 
491	 0.148401755476616 
492	 0.149884737667524 
493	 0.151644536972292 
494	 0.153752084269449 
495	 0.156180373142248 
496	 0.158800950539221 
497	 0.161467919798342 
498	 0.16442141389471 
499	 0.167816532900281 
500	 0.171189181570063 
501	 0.174837025031263 
502	 0.178797069015179 
503	 0.182936832761385 
504	 0.187206362901477 
505	 0.191391754327627 
506	 0.195447275655141 
507	 0.199613982579709 
508	 0.203659944496601 
509	 0.207738108726371 
510	 0.21201604028448 
511	 0.216207075676543 
512	 0.220409510049418 
513	 0.224512044864592 
514	 0.228249617738217 
515	 0.231961954151193 
516	 0.235599223052682 
517	 0.239134730196456 
518	 0.242798666988301 
519	 0.24673899414293 
520	 0.250518309029908 
521	 0.253625946552161 
522	 0.256512627654655 
523	 0.259362093166561 
524	 0.262110969272146 
525	 0.264414214445619 
526	 0.26642567776954 
527	 0.26855362020383 
528	 0.271048446433107 
529	 0.273567418448614 
530	 0.275681650084849 
531	 0.277361499358869 
532	 0.278851891625849 
533	 0.280411770570074 
534	 0.282181760037727 
535	 0.284048787094767 
536	 0.285551929904657 
537	 0.286914412319369 
538	 0.288204577174189 
539	 0.289436922969403 
540	 0.290548877943826 
541	 0.291801858705192 
542	 0.293174686095379 
543	 0.294402898746828 
544	 0.295595732589285 
545	 0.296789551683182 
546	 0.297971745990082 
547	 0.299024326057363 
548	 0.300086056687658 
549	 0.301190221504558 
550	 0.302301176959272 
551	 0.303260316658566 
552	 0.30420404207392 
553	 0.305262228243609 
554	 0.306522415571536 
555	 0.307750657141738 
556	 0.308949743520053 
557	 0.310153811021024 
558	 0.311247189372376 
559	 0.312535317872633 
560	 0.314019019814665 
561	 0.315493354152784 
562	 0.316875847832828 
563	 0.318189144063471 
564	 0.319510306222563 
565	 0.320954415290141 
566	 0.322626158116817 
567	 0.324470346887117 
568	 0.326356366331107 
569	 0.328151834968552 
570	 0.329819360174091 
571	 0.331515971669082 
572	 0.333547690890369 
573	 0.335545038071857 
574	 0.337521658684588 
575	 0.339569408208299 
576	 0.341729567774116 
577	 0.344030557007773 
578	 0.346378155445987 
579	 0.348638050158121 
580	 0.35087061942823 
581	 0.352925824574567 
582	 0.35480188851325 
583	 0.35671373224519 
584	 0.35840980266269 
585	 0.359978800380344 
586	 0.361577342307616 
587	 0.363335866657216 
588	 0.364747922275792 
589	 0.365861523266395 
590	 0.367134188537267 
591	 0.368703802098074 
592	 0.370346879144885 
593	 0.371880946520268 
594	 0.373183502341603 
595	 0.374698816695717 
596	 0.376330421116961 
597	 0.377852644020217 
598	 0.3793872624581 
599	 0.380985746607075 
600	 0.38256955966328 
601	 0.383934615535743 
602	 0.385090583402323 
603	 0.386199853217249 
604	 0.387317969862825 
605	 0.388135652778218 
606	 0.388879872350882 
607	 0.389577335883031 
608	 0.390164932525328 
609	 0.390696882838708 
610	 0.391188604863154 
611	 0.391645651906612 
612	 0.392069410360278 
613	 0.392383919814701 
614	 0.392678217915859 
615	 0.393025663936465 
616	 0.393260095338554 
617	 0.393548053334808 
618	 0.39392822173192 
619	 0.394338502519737 
620	 0.394685013422564 
621	 0.39501355921692 
622	 0.395351136084181 
623	 0.395646789540678 
624	 0.395915510747075 
625	 0.396203342981713 
626	 0.396560535038535 
627	 0.397002288271073 
628	 0.39743225159014 
629	 0.397799094367825 
630	 0.398100817805747 
631	 0.398397635955982 
632	 0.39868134528267 
633	 0.398936897277973 
634	 0.399182323636721 
635	 0.399321212625404 
636	 0.399357768869783 
637	 0.399357745036288 
638	 0.39945127562962 
639	 0.39938511937402 
640	 0.399070594091797 
641	 0.39867345293604 
642	 0.398411784103386 
643	 0.398130972989932 
644	 0.397675701726903 
645	 0.397229309672265 
646	 0.396848914877004 
647	 0.396476308138655 
648	 0.395998146982686 
649	 0.395552450114517 
650	 0.395145867609573 
651	 0.394767967048064 
652	 0.39438204718655 
653	 0.394198420513581 
654	 0.394068286537752 
655	 0.393690146659859 
656	 0.392609752279322 
657	 0.391680372230144 
658	 0.391124305305045 
659	 0.390427459354784 
660	 0.389383860211186 
661	 0.388151826343077 
662	 0.386871710648631 
663	 0.385465044445325 
664	 0.383912453223811 
665	 0.382344596072443 
666	 0.380891913217657 
667	 0.379455944235941 
668	 0.378008217301089 
669	 0.376643180995576 
670	 0.375524244680559 
671	 0.374469311854559 
672	 0.373583843003111 
673	 0.372937949484237 
674	 0.37237086443201 
675	 0.371957168795119 
676	 0.371681974779281 
677	 0.371536019265219 
678	 0.371691207270537 
679	 0.3721357023354 
680	 0.372900856111336 
681	 0.374076868972106 
682	 0.375836548360871 
683	 0.378261980857457 
684	 0.381307233129118 
685	 0.384713527688665 
686	 0.388242033848699 
687	 0.39196639722429 
688	 0.39569358439598 
689	 0.399183394527833 
690	 0.402488020197464 
691	 0.405786879924388 
692	 0.409020523926579 
693	 0.412067551403248 
694	 0.414963726166347 
695	 0.417687213746113 
696	 0.420079809855248 
697	 0.422188847305527 
698	 0.424286048852872 
699	 0.42660438099373 
700	 0.428503001937096 
701	 0.430316368912901 
702	 0.432170535824171 
703	 0.433843931290638 
704	 0.435465935038256 
705	 0.437081176661661 
706	 0.438685515304914 
707	 0.440135919632404 
708	 0.44160708162295 
709	 0.443048117889121 
710	 0.444344021579655 
711	 0.44579650858493 
712	 0.447227043749036 
713	 0.44860956447206 
714	 0.450135705463216 
715	 0.45173648558964 
716	 0.453526001415125 
717	 0.455515211930494 
718	 0.457112206864708 
719	 0.458399474761503 
720	 0.459467767903434 
721	 0.460515808240101 
722	 0.461862377082169 
723	 0.463345680431512 
724	 0.464870795786287 
725	 0.466247322864322 
726	 0.467525928734001 
727	 0.468708639813227 
728	 0.469833400290841 
729	 0.470941691025408 
730	 0.471870972745209 
731	 0.472737265782111 
732	 0.47369902786303 
733	 0.474475753499951 
734	 0.475236474522254 
735	 0.476098634145401 
736	 0.477079260400394 
737	 0.478006775609226 
738	 0.478833325566151 
739	 0.479558203250193 
740	 0.48016184471916 
741	 0.480951384228006 
742	 0.48174410626644 
743	 0.482303286546862 
744	 0.483032171325607 
745	 0.4835810507286 
746	 0.484030971569839 
747	 0.48475248326117 
748	 0.485306857061095 
749	 0.485740174136886 
750	 0.486191011761092 
751	 0.486837722122476 
752	 0.487312736742096 
753	 0.487664639086336 
754	 0.488034643296489 
755	 0.48840033651668 
756	 0.488891007958474 
757	 0.489627691930431 
758	 0.490614677731803 
759	 0.490802850439087 
760	 0.49027541895105 
761	 0.489661437381986 
762	 0.490573040598304 
763	 0.490944013089421 
764	 0.491027959456058 
765	 0.491248662096299 
766	 0.491495018054778 
767	 0.491905426230527 
768	 0.492307315718217 
769	 0.492528379774753 
770	 0.492809504802014 
771	 0.493168469152826 
772	 0.493538797730062 
773	 0.493797732403909 
774	 0.493917887293374 
775	 0.494116693131473 
776	 0.494435701827601 
777	 0.494553722062478 
778	 0.494903664636518 
779	 0.495289163597312 
780	 0.495463040879488 
781	 0.495649266016373 
782	 0.495879225918002 
783	 0.496184985370891 
784	 0.496569803144552 
785	 0.496895329686923 
786	 0.497176052531982 
787	 0.497437571521035 
788	 0.497706559177622 
789	 0.498187975925128 
790	 0.498550697067461 
791	 0.498646321699687 
792	 0.49891555718735 
793	 0.499190204484885 
794	 0.499428099412518 
795	 0.499670783745784 
796	 0.500160130780556 
797	 0.500560633600174 
798	 0.500807207830431 
799	 0.50101871309019 
800	 0.501276928690604 
801	 0.501581164769852 
802	 0.501887171317935 
803	 0.502125688538166 
804	 0.502370563623325 
805	 0.502753938060358 
806	 0.503194676896923 
807	 0.503140970859197 
808	 0.503455483465094 
809	 0.503909038448708 
810	 0.504130148501367 
811	 0.504669133264059 
812	 0.505270248317367 
813	 0.505788114576128 
814	 0.506165691554973 
815	 0.506468481838607 
816	 0.506722846081558 
817	 0.506975554689517 
818	 0.507283479764728 
819	 0.507506553883539 
820	 0.50772771497401 
821	 0.507900236283962 
822	 0.5076928259245 
823	 0.50758450495421 
824	 0.508014877145567 
825	 0.508878196114609 
826	 0.50870946978755 
827	 0.508398527350774 
828	 0.50825930961233 
829	 0.508343962791207 
830	 0.508617280291965 
831	 0.508648621181922 
832	 0.508484117376129 
833	 0.508512614572198 
834	 0.50864213029705 
835	 0.508780521163407 
836	 0.50892906435846 
837	 0.509189138541673 
838	 0.509218496755469 
839	 0.509238971732846 
840	 0.509413453086508 
841	 0.509564979178434 
842	 0.509762888050132 
843	 0.509861582774232 
844	 0.50982843151561 
845	 0.5101864827219 
846	 0.510548149726934 
847	 0.510706321265153 
848	 0.510627391282993 
849	 0.510627541904102 
850	 0.51079641713623 
851	 0.511146146856631 
852	 0.511535222004084 
853	 0.511084936337092 
854	 0.510801855953801 
855	 0.511248232850982 
856	 0.512143182420789 
857	 0.512753171741106 
858	 0.512783580967109 
859	 0.512498153206836 
860	 0.512807336555727 
861	 0.513217848495859 
862	 0.513570617819897 
863	 0.513755170372979 
864	 0.513600455182248 
865	 0.513179739411056 
866	 0.512902559707575 
867	 0.513180434654182 
868	 0.514005423663736 
869	 0.514357277467239 
870	 0.514339164046874 
871	 0.514529414530034 
872	 0.514732052423635 
873	 0.51494054566349 
874	 0.515095665817307 
875	 0.515144697911498 
876	 0.515356634519046 
877	 0.515631935179715 
878	 0.515814355349452 
879	 0.51576195030206 
880	 0.515598981301972 
881	 0.515608611286334 
882	 0.515868297407557 
883	 0.516145026877766 
884	 0.516267211920847 
885	 0.516150805892132 
886	 0.516012740667553 
887	 0.516523002510051 
888	 0.516851586342069 
889	 0.517118650179456 
890	 0.517508630795504 
891	 0.517716757927778 
892	 0.517970886002316 
893	 0.518096691712777 
894	 0.518000247028156 
895	 0.518370777745234 
896	 0.518315420776651 
897	 0.518169903630974 
898	 0.518546369926157 
899	 0.518588985413206 
900	 0.518642361740229 
901	 0.518884298008927 
902	 0.519404978802737 
903	 0.520573262818766 
904	 0.520942968952154 
905	 0.520515113738884 
906	 0.520168544431929 
907	 0.519498239171614 
908	 0.519506776907606 
909	 0.520034719166926 
910	 0.520031535072869 
911	 0.520585886183808 
912	 0.520955492168277 
913	 0.520696782627041 
914	 0.5200017992686 
915	 0.520150840826319 
916	 0.52024840260388 
917	 0.519939559831849 
918	 0.519803257199879 
919	 0.519754384895491 
920	 0.520279036590879 
921	 0.520885058320635 
922	 0.519991940062402 
923	 0.519668732028967 
924	 0.519731328473481 
925	 0.519905351413573 
926	 0.5203813924846 
927	 0.519897066672026 
928	 0.519805719131917 
929	 0.520181379857991 
930	 0.517573381449462 
931	 0.516749214525599 
932	 0.51661026682151 
933	 0.515358631159877 
934	 0.513744292918202 
935	 0.51364321484797 
936	 0.51540868880391 
937	 0.517707867290918 
938	 0.517614899814562 
939	 0.517130512924546 
940	 0.516270171386113 
941	 0.514574853176 
942	 0.511533636412888 
943	 0.509915026886706 
944	 0.508624659999662 
945	 0.506740815385941 
946	 0.505946574711587 
947	 0.505515495153775 
948	 0.504814892691678 
949	 0.50337045467737 
950	 0.501010831771268 
951	 0.499622826420087 
952	 0.498265355031054 
953	 0.496160672047966 
954	 0.494399242081154 
955	 0.492297634834625 
956	 0.490777554365499 
957	 0.489964497771108 
958	 0.487861813811061 
959	 0.485840249660857 
960	 0.484585055956933 
961	 0.484142608552853 
962	 0.483762813589993 
963	 0.483141217194781 
964	 0.482206984606446 
965	 0.481170718139738 
966	 0.480504498490664 
967	 0.480490675401808 
968	 0.480890160218644 
969	 0.480980644660085 
970	 0.479668427616112 
971	 0.478021977688223 
972	 0.477578639449115 
973	 0.478340319200756 
974	 0.478151909789445 
975	 0.477150599831071 
976	 0.47703860074129 
977	 0.477781907258753 
978	 0.477065424843707 
979	 0.477707251410823 
980	 0.477632516590126 
981	 0.476783540860302 
982	 0.477645499408545 
983	 0.477599824563913 
984	 0.477632395253501 
985	 0.478003910213216 
986	 0.478059278221931 
987	 0.478905310544449 
988	 0.479460017080175 
989	 0.479445555125432 
990	 0.479528792269185 
991	 0.480783666759196 
992	 0.481961948608176 
993	 0.482384986813218 
994	 0.482245989881575 
995	 0.48302479217087 
996	 0.484340479690691 
997	 0.485219626424905 
998	 0.485057129417525 
999	 0.485550718928276 
1000	 0.48627113852876 
1001	 0.47834283521156 
1002	 0.478904819524867 
1003	 0.479617586935302 
1004	 0.480476628862408 
1005	 0.481208812465457 
1006	 0.481995847857426 
1007	 0.482735689428716 
1008	 0.48329702529216 
1009	 0.483965807569787 
1010	 0.484696260253108 
1011	 0.485418084330828 
1012	 0.48607972152832 
1013	 0.486948766091414 
1014	 0.48793009953441 
1015	 0.488749308959775 
1016	 0.489723503120606 
1017	 0.490701498976516 
1018	 0.491508626980298 
1019	 0.492149830822526 
1020	 0.492931757394671 
1021	 0.493638576772332 
1022	 0.494438201702901 
1023	 0.49530567668316 
1024	 0.496299954702197 
1025	 0.497257908079643 
1026	 0.498052082783475 
1027	 0.498902172329717 
1028	 0.49971972960275 
1029	 0.500339238221404 
1030	 0.5010334106393 
1031	 0.501712573104865 
1032	 0.502432284685704 
1033	 0.503224899583669 
1034	 0.504078649401981 
1035	 0.504926369664064 
1036	 0.505954858939119 
1037	 0.506729125562845 
1038	 0.507330817163346 
1039	 0.508155556238666 
1040	 0.50883833281002 
1041	 0.509400424027802 
1042	 0.510156194276545 
1043	 0.510766308511329 
1044	 0.511350574190018 
1045	 0.511937129709362 
1046	 0.512440960412148 
1047	 0.513020369550132 
1048	 0.513550876814599 
1049	 0.514040966000263 
1050	 0.51452404471301 
1051	 0.514988103958286 
1052	 0.515479382118897 
1053	 0.516050058771103 
1054	 0.516429634307829 
1055	 0.516753664041634 
1056	 0.517145059539227 
1057	 0.517357865577662 
1058	 0.517687136557135 
1059	 0.518073424008359 
1060	 0.518303843802984 
1061	 0.518589178319687 
1062	 0.518797023908168 
1063	 0.518941854392296 
1064	 0.519080200741695 
1065	 0.519177732744724 
1066	 0.519173426749046 
1067	 0.519207642601103 
1068	 0.519277705740156 
1069	 0.519302495336368 
1070	 0.519344109118757 
1071	 0.519224911093137 
1072	 0.5190389215473 
1073	 0.519012290024182 
1074	 0.518906157517337 
1075	 0.518767205608856 
1076	 0.518647034251737 
1077	 0.518490609988069 
1078	 0.518330654518143 
1079	 0.518078990748066 
1080	 0.517838234903799 
1081	 0.517587394469202 
1082	 0.517284508307724 
1083	 0.516881641548493 
1084	 0.516546284838661 
1085	 0.516368932020893 
1086	 0.516200384356213 
1087	 0.515899226884573 
1088	 0.5157502582808 
1089	 0.515512129676015 
1090	 0.515078051107938 
1091	 0.51482767963419 
1092	 0.514583291897322 
1093	 0.514311175363256 
1094	 0.514062849699918 
1095	 0.513791708680974 
1096	 0.513556301940086 
1097	 0.513313091788526 
1098	 0.513061859693147 
1099	 0.512836800371498 
1100	 0.512653620079017 
1101	 0.51234260866494 
1102	 0.512026504171765 
1103	 0.51180231679128 
1104	 0.511515460838376 
1105	 0.511246714074032 
1106	 0.511163261580566 
1107	 0.511099038652349 
1108	 0.511024458726009 
1109	 0.51096570564786 
1110	 0.510771142849209 
1111	 0.510612818726079 
1112	 0.510292990487061 
1113	 0.510167285067748 
1114	 0.510254195795653 
1115	 0.510247360599539 
1116	 0.510265473168459 
1117	 0.510320819821019 
1118	 0.510372702966923 
1119	 0.510225599684817 
1120	 0.50999976848328 
1121	 0.509731666430793 
1122	 0.509280949777553 
1123	 0.508527677888815 
1124	 0.507752841281561 
1125	 0.506876888066411 
1126	 0.505632981256283 
1127	 0.504296326666896 
1128	 0.502475901329289 
1129	 0.500450375844239 
1130	 0.498122829300951 
1131	 0.495448764908877 
1132	 0.492755919870484 
1133	 0.489907832910641 
1134	 0.487016402950346 
1135	 0.484093489520427 
1136	 0.481263486769954 
1137	 0.478560359071453 
1138	 0.475669101051644 
1139	 0.472725013916366 
1140	 0.469715239440453 
1141	 0.466481251699904 
1142	 0.463233402978294 
1143	 0.460074524697856 
1144	 0.456946514485372 
1145	 0.453700114562048 
1146	 0.450458067454829 
1147	 0.447231891905298 
1148	 0.443940895756201 
1149	 0.440873178002125 
1150	 0.438020371901036 
1151	 0.435336399161827 
1152	 0.432853591362969 
1153	 0.43062619787438 
1154	 0.428545757658638 
1155	 0.426752942191717 
1156	 0.425171665449699 
1157	 0.423616811206532 
1158	 0.422233824404421 
1159	 0.421087188925241 
1160	 0.420080281497325 
1161	 0.419239557177973 
1162	 0.418450821153115 
1163	 0.417790703696804 
1164	 0.417121477806496 
1165	 0.416397089630212 
1166	 0.415842326647266 
1167	 0.415395845828827 
1168	 0.41497499158558 
1169	 0.414638269227339 
1170	 0.414337433335091 
1171	 0.414035138247182 
1172	 0.413728138506432 
1173	 0.413406268462226 
1174	 0.413129641518039 
1175	 0.412866943007037 
1176	 0.412653617347512 
1177	 0.412463770884299 
1178	 0.412327122435857 
1179	 0.412190932147497 
1180	 0.412176217087406 
1181	 0.411936078088573 
1182	 0.411609657050336 
1183	 0.411295892334356 
1184	 0.410746960456662 
1185	 0.410396162189343 
1186	 0.410225021994681 
1187	 0.409971541765611 
1188	 0.409740168797803 
1189	 0.409481273872431 
1190	 0.409260420663149 
1191	 0.409007282735714 
1192	 0.408788069663851 
1193	 0.408665497964266 
1194	 0.408493420676452 
1195	 0.408276138291244 
1196	 0.40815685609027 
1197	 0.408061940294364 
1198	 0.408030288303308 
1199	 0.408043174028627 
1200	 0.40812363986646 
1201	 0.408305506089177 
1202	 0.408436806139375 
1203	 0.408616289323747 
1204	 0.408796646178282 
1205	 0.408937306681653 
1206	 0.409110669508299 
1207	 0.409300384235904 
1208	 0.409528625527716 
1209	 0.409802575149509 
1210	 0.410036782108092 
1211	 0.410322936295994 
1212	 0.410636475998505 
1213	 0.410941519052065 
1214	 0.411236218228442 
1215	 0.411556181462238 
1216	 0.411875488060225 
1217	 0.412250453642079 
1218	 0.412679184285187 
1219	 0.413071628100222 
1220	 0.413492466159854 
1221	 0.413897447751881 
1222	 0.414244498301114 
1223	 0.414653887083355 
1224	 0.415117059296644 
1225	 0.415568590417257 
1226	 0.416073637164497 
1227	 0.416515369498812 
1228	 0.416903896388783 
1229	 0.417305823167255 
1230	 0.417778641206937 
1231	 0.418228232545711 
1232	 0.418637841247408 
1233	 0.419080315034367 
1234	 0.41948116353828 
1235	 0.419793279622853 
1236	 0.420161122987354 
1237	 0.420546472192658 
1238	 0.420980751712175 
1239	 0.421453875189391 
1240	 0.421877229307768 
1241	 0.422292766278436 
1242	 0.422772725622776 
1243	 0.423325502120117 
1244	 0.423738469598333 
1245	 0.424131116838258 
1246	 0.424534746169991 
1247	 0.424813310269619 
1248	 0.425119648192868 
1249	 0.425474554159462 
1250	 0.425851694884646 
1251	 0.426266445515378 
1252	 0.426564693176184 
1253	 0.426914125153125 
1254	 0.427339565407731 
1255	 0.427674918407655 
1256	 0.427926582986999 
1257	 0.428238156709445 
1258	 0.428576826298307 
1259	 0.42887732700947 
1260	 0.429159686460625 
1261	 0.429458153523098 
1262	 0.429728353496699 
1263	 0.430032869518126 
1264	 0.430437300609829 
1265	 0.430699234806344 
1266	 0.430916341311604 
1267	 0.43108073730482 
1268	 0.43110772857514 
1269	 0.431161833586422 
1270	 0.431240700006121 
1271	 0.431236609569623 
1272	 0.431181073054924 
1273	 0.431103197891616 
1274	 0.430953543265167 
1275	 0.430730831312094 
1276	 0.4304888203463 
1277	 0.43018589428342 
1278	 0.429908888998833 
1279	 0.429661478546697 
1280	 0.429265810324969 
1281	 0.428873717333624 
1282	 0.428310379212579 
1283	 0.427516539177481 
1284	 0.426831300336281 
1285	 0.426110585607225 
1286	 0.425378089254794 
1287	 0.424681794275037 
1288	 0.42392422406856 
1289	 0.423145012643402 
1290	 0.422283777176044 
1291	 0.421355983734887 
1292	 0.420406995468899 
1293	 0.419352227534381 
1294	 0.418314378748688 
1295	 0.417254699195086 
1296	 0.416229955695734 
1297	 0.415086254491613 
1298	 0.413900769478898 
1299	 0.412644103320751 
1300	 0.411284714026693 
1301	 0.409929240256221 
1302	 0.408563903859671 
1303	 0.407074301666025 
1304	 0.405453890921052 
1305	 0.40391272266757 
1306	 0.402291670119633 
1307	 0.400719776375789 
1308	 0.399284817827717 
1309	 0.397674514188352 
1310	 0.395976962173288 
1311	 0.394241176950039 
1312	 0.392398611214668 
1313	 0.390555109666439 
1314	 0.388709479429155 
1315	 0.386800291933638 
1316	 0.384822955282996 
1317	 0.382854123722203 
1318	 0.380851242126323 
1319	 0.378820234819901 
1320	 0.376706500003364 
1321	 0.374640662860276 
1322	 0.3726277142956 
1323	 0.37061024876598 
1324	 0.368543488707015 
1325	 0.366457952914503 
1326	 0.364419957554066 
1327	 0.362295037595278 
1328	 0.360191854672986 
1329	 0.358225612778902 
1330	 0.35607487104623 
1331	 0.353755890214043 
1332	 0.351555610906735 
1333	 0.349411434220441 
1334	 0.347233274772352 
1335	 0.345042750491515 
1336	 0.342950657458206 
1337	 0.340634408973522 
1338	 0.338736615799204 
1339	 0.337018471570953 
1340	 0.335455777687166 
1341	 0.334196915651415 
1342	 0.332891255512335 
1343	 0.331514783747363 
1344	 0.330273889951179 
1345	 0.329076172675261 
1346	 0.327831741637294 
1347	 0.326921868687632 
1348	 0.32624706618537 
1349	 0.325564759554101 
1350	 0.325408845575893 
1351	 0.324988231773011 
1352	 0.324915047212061 
1353	 0.324520466107236 
1354	 0.324232619692287 
1355	 0.323685331162166 
1356	 0.322516169250652 
1357	 0.322015823583995 
1358	 0.322853469387253 
1359	 0.323966100367896 
1360	 0.331763088569601 
1361	 0.33583481210058 
1362	 0.327974457865143 
1363	 0.327851907336648 
1364	 0.323814389091638 
1365	 0.323460685227601 
1366	 0.340352419847105 
1367	 0.340937371178891 
1368	 0.336661376460228 
1369	 0.32752186390753 
1370	 0.311777516906608 
1371	 0.303013956772477 
1372	 0.293604184153911 
1373	 0.287924835540727 
1374	 0.284614863083123 
1375	 0.281844851946331 
1376	 0.284009506060738 
1377	 0.283391603263728 
1378	 0.278759179160131 
1379	 0.272650588921153 
1380	 0.266661058915588 
1381	 0.255105054343562 
1382	 0.248659028294264 
1383	 0.248671296681893 
1384	 0.241483196433301 
1385	 0.232188822667132 
1386	 0.223914533289892 
1387	 0.21380163587431 
1388	 0.207560259041229 
1389	 0.204895496166434 
1390	 0.199628390898366 
1391	 0.19439810181001 
1392	 0.189150653137541 
1393	 0.183101471593691 
1394	 0.176641290688541 
1395	 0.170076710663145 
1396	 0.164179785946926 
1397	 0.156712368249452 
1398	 0.151902547688902 
1399	 0.149817418063207 
1400	 0.146075095720365 
1401	 0.142985333822627 
1402	 0.139066451880796 
1403	 0.134405466144255 
1404	 0.129698561380402 
1405	 0.124062778778152 
1406	 0.120910253638517 
1407	 0.117529823811127 
1408	 0.114545095928729 
1409	 0.112448709411148 
1410	 0.109660023680037 
1411	 0.107156144298583 
1412	 0.104365706097895 
1413	 0.102573943238611 
1414	 0.101102380569646 
1415	 0.099896030765907 
1416	 9.94536487949076E-02 
1417	 9.79903460021528E-02 
1418	 9.61438830534361E-02 
1419	 0.09473395001783 
1420	 9.30516050042483E-02 
1421	 9.17844110912865E-02 
1422	 9.07643256434544E-02 
1423	 9.00361271234672E-02 
1424	 8.95566059941599E-02 
1425	 8.88310289721614E-02 
1426	 8.82610521246882E-02 
1427	 8.75560132138804E-02 
1428	 8.63968489089919E-02 
1429	 8.56631525327733E-02 
1430	 8.51419445112275E-02 
1431	 8.46560802568259E-02 
1432	 8.44052304425111E-02 
1433	 0.083942311594144 
1434	 8.34348329699617E-02 
1435	 8.29214592327907E-02 
1436	 8.21090168053317E-02 
1437	 0.081630588475619 
1438	 0.081435256576009 
1439	 8.11211565480746E-02 
1440	 8.08928103147133E-02 
1441	 8.07201228415142E-02 
1442	 8.06093906982618E-02 
1443	 8.03792714546136E-02 
1444	 7.99660464708023E-02 
1445	 7.96475874169368E-02 
1446	 7.94377010043739E-02 
1447	 7.90733323972566E-02 
1448	 0.078918305572353 
1449	 7.89609297368632E-02 
1450	 7.89805306687498E-02 
1451	 7.90222065075986E-02 
1452	 7.89886960524841E-02 
1453	 7.90010640750093E-02 
1454	 0.07898546733866 
1455	 7.87984409283446E-02 
1456	 7.88866859186659E-02 
1457	 7.91559895687054E-02 
1458	 7.93369676155286E-02 
1459	 7.96563957178814E-02 
1460	 7.97835976403775E-02 
1461	 7.97637273939284E-02 
1462	 7.98433624717944E-02 
1463	 7.97632606440888E-02 
1464	 8.00218737038429E-02 
1465	 8.05804184912059E-02 
1466	 8.10254118034396E-02 
1467	 8.15933198939351E-02 
1468	 8.21671821901933E-02 
1469	 8.26592166899542E-02 
1470	 8.32413292871567E-02 
1471	 8.38359132690577E-02 
1472	 8.46008666095116E-02 
1473	 8.55151069119482E-02 
1474	 8.62186879129754E-02 
1475	 8.69893716855177E-02 
1476	 8.76168634735326E-02 
1477	 8.78555899258339E-02 
1478	 8.83913047939135E-02 
1479	 8.89858792408221E-02 
1480	 8.96888369194353E-02 
1481	 0.090622274485222 
1482	 9.14194281586044E-02 
1483	 9.21716264293618E-02 
1484	 9.29663388009802E-02 
1485	 9.36570983798118E-02 
1486	 9.44385352144503E-02 
1487	 9.52914207097527E-02 
1488	 9.61648156763283E-02 
1489	 9.69706880382791E-02 
1490	 9.77782639594489E-02 
1491	 9.86045319349503E-02 
1492	 9.94305514671444E-02 
1493	 0.100279632674709 
1494	 0.101122794077494 
1495	 0.101976958307576 
1496	 0.102821447274596 
1497	 0.10368732862681 
1498	 0.104617774957681 
1499	 0.105504205900274 
1500	 0.106423075060172 
1501	 0.107248347188443 
1502	 0.107947730868532 
1503	 0.108902456932134 
1504	 0.109919325654713 
1505	 0.110926776778066 
1506	 0.112130259742428 
1507	 0.11315569759726 
1508	 0.114016870404714 
1509	 0.115012066538977 
1510	 0.116067925929463 
1511	 0.117077312449199 
1512	 0.118103745546348 
1513	 0.119110897054562 
1514	 0.1200752407951 
1515	 0.121097586880719 
1516	 0.122170606358832 
1517	 0.123208320159768 
1518	 0.124253096456581 
1519	 0.125308198714364 
1520	 0.126409721858973 
1521	 0.127406480383308 
1522	 0.128326256115887 
1523	 0.12933609440512 
1524	 0.130291792236936 
1525	 0.131314348609738 
1526	 0.132481697214724 
1527	 0.133560796895534 
1528	 0.134598415594845 
1529	 0.135648523161039 
1530	 0.136722500983964 
1531	 0.137748391036917 
1532	 0.138725101991827 
1533	 0.139743789957372 
1534	 0.140718310276816 
1535	 0.141761140337218 
1536	 0.142912220961462 
1537	 0.143987447507809 
1538	 0.145098595244212 
1539	 0.146123092541568 
1540	 0.14701302860798 
1541	 0.147992133448249 
1542	 0.148954077179673 
1543	 0.149953671306201 
1544	 0.151056708839064 
1545	 0.15209664446855 
1546	 0.153142746048324 
1547	 0.154134520791151 
1548	 0.155027753033135 
1549	 0.155996791672068 
1550	 0.156938405467731 
1551	 0.157946751206228 
1552	 0.159144663882343 
1553	 0.160180658691361 
1554	 0.161106035608612 
1555	 0.162095707825965 
1556	 0.16300060674972 
1557	 0.16395629384705 
1558	 0.165062985824563 
1559	 0.166072881339999 
1560	 0.167032387546885 
1561	 0.167970606692157 
1562	 0.168873340884074 
1563	 0.16974261909786 
1564	 0.170529036304013 
1565	 0.171382650480637 
1566	 0.172261048244164 
1567	 0.173144984610458 
1568	 0.174033169035083 
1569	 0.174982863640791 
1570	 0.175894493570029 
1571	 0.176772873255444 
1572	 0.177656017128282 
1573	 0.178547937650459 
1574	 0.179440963141887 
1575	 0.180297252664158 
1576	 0.181181959409571 
1577	 0.182097952676574 
1578	 0.182956798137305 
1579	 0.183783518195975 
1580	 0.184592255482457 
1581	 0.185354149903901 
1582	 0.186173760900283 
1583	 0.187003857524695 
1584	 0.187811144821365 
1585	 0.188628923482629 
1586	 0.189468609066756 
1587	 0.19032360950192 
1588	 0.191098256440222 
1589	 0.191869165661643 
1590	 0.19265423913862 
1591	 0.193362473201654 
1592	 0.194132460717835 
1593	 0.195021147652647 
1594	 0.195732143735446 
1595	 0.196312503617109 
1596	 0.197045575867086 
1597	 0.197776753339062 
1598	 0.198522732928108 
1599	 0.199419932837381 
1600	 0.200100441127425 
1601	 0.200632052565495 
1602	 0.201269460799718 
1603	 0.201823948504158 
1604	 0.202531254184604 
1605	 0.203392830503553 
1606	 0.204084260809036 
1607	 0.20476358078532 
1608	 0.205427147668398 
1609	 0.20600816344651 
1610	 0.206582306168624 
1611	 0.207147195369774 
1612	 0.207747507353404 
1613	 0.2082661616503 
1614	 0.208924035517359 
1615	 0.209772896603775 
1616	 0.210365680640238 
1617	 0.210836917370079 
1618	 0.2114669436297 
1619	 0.212066357917875 
1620	 0.212632113840824 
1621	 0.213343852455308 
1622	 0.21386789457812 
1623	 0.214151346019102 
1624	 0.214669470460797 
1625	 0.215302869139674 
1626	 0.215823806271637 
1627	 0.216361890660912 
1628	 0.216897874252373 
1629	 0.217367512542676 
1630	 0.21787671904821 
1631	 0.218470587902504 
1632	 0.218966391766992 
1633	 0.219388300674115 
1634	 0.219882434569089 
1635	 0.220412962969248 
1636	 0.22082320226733 
1637	 0.221196608479744 
1638	 0.221595892456312 
1639	 0.221897842475618 
1640	 0.222306594638798 
1641	 0.222836710796471 
1642	 0.223219067870286 
1643	 0.223537940973486 
1644	 0.22388735188388 
1645	 0.224195930627346 
1646	 0.224513148150647 
1647	 0.224825638087586 
1648	 0.225175605807554 
1649	 0.225513448816752 
1650	 0.225893514979493 
1651	 0.226399243038218 
1652	 0.226684151489119 
1653	 0.226834201472578 
1654	 0.227141295163275 
1655	 0.227365876045895 
1656	 0.227718313458581 
1657	 0.228315915861278 
1658	 0.228534694704986 
1659	 0.228735066375779 
1660	 0.22894920622727 
1661	 0.229003693540511 
1662	 0.229152730994711 
1663	 0.229476042574681 
1664	 0.229621243784533 
1665	 0.229785908233737 
1666	 0.230154577575649 
1667	 0.23040392776592 
1668	 0.230802476662656 
1669	 0.231202039982869 
1670	 0.231389673821516 
1671	 0.231525675833718 
1672	 0.231447865811286 
1673	 0.231460302479727 
1674	 0.231539337307273 
1675	 0.231523828830409 
1676	 0.231665352372204 
1677	 0.231777760969417 
1678	 0.231810762359284 
1679	 0.231836102091584 
1680	 0.231683140765257 
1681	 0.231514550775185 
1682	 0.23144007312515 
1683	 0.231356827800721 
1684	 0.231317375755442 
1685	 0.231214564268866 
1686	 0.23106971222661 
1687	 0.230967110167652 
1688	 0.230821448002508 
1689	 0.230774247851021 
1690	 0.230691189109485 
1691	 0.230489047107355 
1692	 0.230169183042007 
1693	 0.229960490116784 
1694	 0.229664826761262 
1695	 0.229462352854536 
1696	 0.229521583874257 
1697	 0.22943664851117 
1698	 0.229297498392536 
1699	 0.229112772850525 
1700	 0.228852789769452 
1701	 0.228545914338898 
1702	 0.228069898828671 
1703	 0.227807751100147 
1704	 0.227710258702862 
1705	 0.227452749902895 
1706	 0.227305146125397 
1707	 0.227006619985361 
1708	 0.226434348730526 
1709	 0.226007769755248 
1710	 0.225646044103963 
1711	 0.225233932574815 
1712	 0.224809038068308 
1713	 0.224373920640077 
1714	 0.223847726004763 
1715	 0.223458403089342 
1716	 0.223263031357288 
1717	 0.222847238304147 
1718	 0.222372290223442 
1719	 0.221888893769135 
1720	 0.221207187451768 
1721	 0.220651166809352 
1722	 0.220219131206651 
1723	 0.219742917554884 
1724	 0.219233891575253 
1725	 0.218735247315768 
1726	 0.218235052598542 
1727	 0.217800857624436 
1728	 0.217451524136505 
1729	 0.216892957052995 
1730	 0.21625772186404 
1731	 0.215586016789365 
1732	 0.215021069356821 
1733	 0.214731446401272 
1734	 0.214435414725251 
1735	 0.213968751000013 
1736	 0.213477982666545 
1737	 0.212943028610601 
1738	 0.212303830624423 
1739	 0.211830947395093 
1740	 0.211327611587453 
1741	 0.210590096029426 
1742	 0.209880472057393 
1743	 0.209169580039588 
1744	 0.208564999174756 
1745	 0.208149067473551 
1746	 0.207620000626679 
1747	 0.206915113469165 
1748	 0.206140593570272 
1749	 0.205293742241578 
1750	 0.20456185171441 
1751	 0.203873780276827 
1752	 0.203226661928776 
1753	 0.2026836585001 
1754	 0.201967953071484 
1755	 0.201308543823181 
1756	 0.200659899655349 
1757	 0.199854259090272 
1758	 0.19920373926406 
1759	 0.19876751616704 
1760	 0.198156461790972 
1761	 0.197522136602575 
1762	 0.196844843508606 
1763	 0.195865645943391 
1764	 0.195163486994122 
1765	 0.194619566313622 
1766	 0.194055899985728 
1767	 0.193659031392677 
1768	 0.193271740289775 
1769	 0.192881122033915 
1770	 0.19249224249205 
1771	 0.192191974552262 
1772	 0.191959054711483 
1773	 0.191612958537044 
1774	 0.191315514829311 
1775	 0.191201369104285 
1776	 0.190892581158908 
1777	 0.190826165255372 
1778	 0.190845378751645 
1779	 0.190521287113086 
1780	 0.190001593612923 
1781	 0.189601632292432 
1782	 0.189394842329882 
1783	 0.189188080992303 
1784	 0.189338793257482 
1785	 0.189375873282099 
1786	 0.189073912493064 
1787	 0.189276294698565 
1788	 0.189321156866942 
1789	 0.189412931413155 
1790	 0.190203362647295 
1791	 0.190903423322152 
1792	 0.191553161133003 
1793	 0.19158265496287 
1794	 0.191258184802387 
1795	 0.191322158056786 
1796	 0.191498423893239 
1797	 0.19246282454619 
1798	 0.193461587166885 
1799	 0.193841178134697 
1800	 0.193716566712999 
1801	 0.185054019231359 
1802	 0.187421131969721 
1803	 0.188596679570117 
1804	 0.190520849130924 
1805	 0.191235613732346 
1806	 0.189752906927337 
1807	 0.189660894502234 
1808	 0.189721073371539 
1809	 0.189815971388851 
1810	 0.190304449413393 
1811	 0.192228910524607 
1812	 0.192574545231392 
1813	 0.192079670384029 
1814	 0.191883740036673 
1815	 0.190094976239866 
1816	 0.189866825838089 
1817	 0.190705027374382 
1818	 0.191649424126666 
1819	 0.193270287646383 
1820	 0.198232974529861 
1821	 0.19793844432815 
1822	 0.193817688105979 
1823	 0.192082011242885 
1824	 0.18461731795729 
1825	 0.182493292124968 
1826	 0.189215998975437 
1827	 0.191621576233778 
1828	 0.194004335682458 
1829	 0.199856910436294 
1830	 0.200443491325225 
1831	 0.192258285744435 
1832	 0.184298281747786 
1833	 0.160576199616717 
1834	 0.144892895559488 
1835	 0.133009276189242 
1836	 0.122883211656206 
1837	 0.148416624925785 
1838	 0.165370121795167 
1839	 0.183013013580483 
1840	 0.196329738406337 
1841	 0.213124615882367 
1842	 0.24055977866415 
1843	 0.239136984799143 
1844	 0.236972146143676 
1845	 0.214256694636744 
1846	 0.120977888906706 
1847	 9.75158227549362E-02 
1848	 9.56065615915648E-02 
1849	 0.109490927738186 
1850	 0.111094465274155 
1851	 0.162974328581892 
1852	 0.17425966996282 
1853	 0.143904894805297 
1854	 0.135507798857042 
1855	 0.142168083688139 
1856	 0.139329673155273 
1857	 0.143525787378732 
1858	 0.116612323436624 
1859	 0.114399104203252 
1860	 0.122436267250438 
1861	 0.11598242118293 
1862	 9.00040475893852E-02 
1863	 0.10439265046642 
1864	 0.154817698726217 
1865	 0.166388345712674 
1866	 0.19417273615629 
1867	 0.22183533647797 
1868	 0.167007980197822 
1869	 6.93587093448919E-02 
1870	 5.32551470670235E-02 
1871	 8.65188475107037E-02 
1872	 8.63677228196789E-02 
1873	 0.125629708561925 
1874	 0.128458505720159 
1875	 8.83402046313532E-02 
1876	 7.84541822512055E-02 
1877	 7.50779389947791E-02 
1878	 7.94204889592586E-02 
1879	 9.10938729870469E-02 
1880	 9.99877154192605E-02 
1881	 9.89356597220422E-02 
1882	 9.74866178489754E-02 
1883	 9.37009392653579E-02 
1884	 7.84443572326571E-02 
1885	 7.32390178223668E-02 
1886	 7.78839823909312E-02 
1887	 7.07472199976486E-02 
1888	 6.12201611320153E-02 
1889	 5.65298616095592E-02 
1890	 4.99423645491967E-02 
1891	 3.80757316297446E-02 
1892	 3.33868990318142E-02 
1893	 0.03405859498754 
1894	 3.03514286634816E-02 
1895	 2.40620199336567E-02 
1896	 2.05061547069377E-02 
1897	 1.55727420899093E-02 
1898	 1.29386591850562E-02 
1899	 1.52152486888279E-02 
1900	 1.57641355198327E-02 
1901	 1.86881222949379E-02 
1902	 3.02288766874185E-02 
1903	 2.91697473879922E-02 
1904	 5.96687963623672E-03 
1905	 8.64836918230539E-03 
1906	 2.18779658042656E-02 
1907	 2.17169630389302E-02 
1908	 0.023874896114075 
1909	 4.91243528112042E-02 
1910	 4.81691732638068E-02 
1911	 3.83415055136406E-02 
1912	 3.57346694052199E-02 
1913	 3.41813677160613E-02 
1914	 3.51723651061893E-02 
1915	 3.96566477470081E-02 
1916	 0.038230598164638 
1917	 3.63998833244762E-02 
1918	 3.67289502347667E-02 
1919	 3.05433304986476E-02 
1920	 0.02165020732973 
1921	 1.69196038585059E-02 
1922	 1.25145436087195E-02 
1923	 1.29715032248659E-02 
1924	 0.019093505698982 
1925	 2.00253379041279E-02 
1926	 2.18228488553379E-02 
1927	 2.33815495706588E-02 
1928	 2.40718992496593E-02 
1929	 2.09143396640143E-02 
1930	 2.25061096438926E-02 
1931	 2.19208698804971E-02 
1932	 2.08627515403388E-02 
1933	 0.020170188408592 
1934	 2.02257220835842E-02 
1935	 2.15850657535883E-02 
1936	 2.17503068301773E-02 
1937	 2.19602508552172E-02 
1938	 2.19365361675522E-02 
1939	 0.021757258144421 
1940	 2.08797080414278E-02 
1941	 0.019092443371323 
1942	 1.66438226467774E-02 
1943	 1.59674609991236E-02 
1944	 1.58818273522591E-02 
1945	 1.74896156711793E-02 
1946	 0.019767495885697 
1947	 0.020876002102971 
1948	 2.17391622772049E-02 
1949	 2.19050660704764E-02 
1950	 2.10101795322048E-02 
1951	 2.08414136432523E-02 
1952	 2.08803656349669E-02 
1953	 2.10247683995348E-02 
1954	 0.021585065332297 
1955	 2.20856733911583E-02 
1956	 2.22450993217709E-02 
1957	 2.21625053134472E-02 
1958	 2.26642118398144E-02 
1959	 2.39766819262015E-02 
1960	 2.42716220676089E-02 
1961	 2.44010143065596E-02 
1962	 2.42524854360472E-02 
1963	 2.39236579700658E-02 
1964	 2.37281158596893E-02 
1965	 2.46060778677443E-02 
1966	 2.50381719306272E-02 
1967	 2.54856692323158E-02 
1968	 2.60889448749104E-02 
1969	 2.60405341349145E-02 
1970	 2.52346848524226E-02 
1971	 2.53883737021359E-02 
1972	 2.58787850858962E-02 
1973	 2.56546830674704E-02 
1974	 0.025950597177753 
1975	 2.65527239416354E-02 
1976	 2.65977535562866E-02 
1977	 2.64535247052136E-02 
1978	 0.026808001070287 
1979	 2.73673028883863E-02 
1980	 2.80169729583694E-02 
1981	 0.028759094735281 
1982	 2.90461358754609E-02 
1983	 2.89847496986064E-02 
1984	 2.89147255481222E-02 
1985	 2.91871708449533E-02 
1986	 2.94209149818725E-02 
1987	 3.01646448819314E-02 
1988	 3.09307402906151E-02 
1989	 3.12846804872814E-02 
1990	 3.16962947416591E-02 
1991	 3.18873984257866E-02 
1992	 3.18149376134659E-02 
1993	 3.14410763637716E-02 
1994	 3.11182638233338E-02 
1995	 3.13055343043387E-02 
1996	 3.19596715331248E-02 
1997	 3.28985580491572E-02 
1998	 0.034087056691705 
1999	 3.48488623009457E-02 
2000	 3.47438810827674E-02 
2001	 3.49213873645656E-02 
2002	 3.53712729910427E-02 
2003	 3.60063724143924E-02 
2004	 3.67516535604661E-02 
2005	 3.76461880558726E-02 
2006	 3.85486344059818E-02 
2007	 3.93979100591534E-02 
2008	 3.96205620354525E-02 
2009	 4.01384829193959E-02 
2010	 4.01431511381796E-02 
2011	 3.92367333556193E-02 
2012	 3.95799791883774E-02 
2013	 0.040344155466304 
2014	 4.08082716650249E-02 
2015	 4.18835353959053E-02 
2016	 4.30483446564356E-02 
2017	 4.38040952419553E-02 
2018	 4.51152219139197E-02 
2019	 4.60421053762114E-02 
2020	 4.69065253496674E-02 
2021	 4.71853508132989E-02 
2022	 0.047455735997648 
2023	 4.71368635023511E-02 
2024	 4.70428683120321E-02 
2025	 4.73207941596414E-02 
2026	 4.76813743247995E-02 
2027	 4.83838008697284E-02 
2028	 4.86516260941331E-02 
2029	 4.87474652507984E-02 
2030	 4.90303715770079E-02 
2031	 4.91379266018908E-02 
2032	 4.94119844310009E-02 
2033	 0.049892405941808 
2034	 5.03219167808984E-02 
2035	 5.06112507078805E-02 
2036	 5.10598568168544E-02 
2037	 0.05117238565858 
2038	 5.15761162424936E-02 
2039	 5.23862014273369E-02 
2040	 5.29143291322886E-02 
2041	 5.35999569970592E-02 
2042	 5.41388818545643E-02 
2043	 5.42491698970899E-02 
2044	 5.45090355636337E-02 
2045	 5.48006209757106E-02 
2046	 5.51139186111722E-02 
2047	 5.56028627416111E-02 
2048	 5.61156849019763E-02 
2049	 5.64376144097426E-02 
2050	 0.056960622115394 
2051	 0.057189795315288 
2052	 5.73771821388138E-02 
2053	 5.80696929501581E-02 
2054	 5.87395367996282E-02 
2055	 5.95843062746985E-02 
2056	 6.04244093326407E-02 
2057	 6.09213433991165E-02 
2058	 6.13641987606028E-02 
2059	 6.17484620764726E-02 
2060	 6.19981160094307E-02 
2061	 6.23038047001102E-02 
2062	 6.27789217152571E-02 
2063	 6.32144434261746E-02 
2064	 6.33532368049962E-02 
2065	 6.38824796003386E-02 
2066	 6.46063663577528E-02 
2067	 6.49752663233889E-02 
2068	 6.55655755200547E-02 
2069	 6.61664032273929E-02 
2070	 6.63506720136847E-02 
2071	 6.67080082058217E-02 
2072	 6.72861124310728E-02 
2073	 6.82006584993486E-02 
2074	 6.87021160653557E-02 
2075	 6.89815973987207E-02 
2076	 6.93245847775369E-02 
2077	 6.92174406528365E-02 
2078	 0.069185860382012 
2079	 6.95289383428861E-02 
2080	 6.97032479504243E-02 
2081	 7.03123248981091E-02 
2082	 0.070878426654815 
2083	 7.14981037707707E-02 
2084	 7.25998446417139E-02 
2085	 7.31645261884178E-02 
2086	 7.40796577427874E-02 
2087	 7.48107525151299E-02 
2088	 7.55260157041931E-02 
2089	 7.58749162976966E-02 
2090	 7.63424574138508E-02 
2091	 7.62266048321375E-02 
2092	 7.64359338734936E-02 
2093	 7.68755608452366E-02 
2094	 7.70352593096916E-02 
2095	 7.76442463458679E-02 
2096	 7.82958783602786E-02 
2097	 7.84511731424086E-02 
2098	 7.89019045581159E-02 
2099	 7.93830129426118E-02 
2100	 7.95458321436816E-02 
2101	 0.079945409804772 
2102	 8.03000050806522E-02 
2103	 0.080618489887753 
2104	 0.080960739812806 
2105	 8.15289388570127E-02 
2106	 0.082187542740886 
2107	 8.30186810330896E-02 
2108	 8.35839766101805E-02 
2109	 8.40764009874434E-02 
2110	 8.48086495942886E-02 
2111	 8.52671997400852E-02 
2112	 8.60775489186973E-02 
2113	 0.086853455099234 
2114	 8.71440391202624E-02 
2115	 8.78092124348029E-02 
2116	 8.81662513850268E-02 
2117	 0.08845896056643 
2118	 8.87140862247555E-02 
2119	 8.89895940348904E-02 
2120	 8.89093668356314E-02 
2121	 8.95883348318838E-02 
2122	 9.01826836569082E-02 
2123	 9.07354602392503E-02 
2124	 9.14171452091622E-02 
2125	 0.091506666055238 
2126	 9.15984142956401E-02 
2127	 9.16179421813862E-02 
2128	 9.19579999708594E-02 
2129	 9.28881876866852E-02 
2130	 9.34518167711978E-02 
2131	 9.43756586961419E-02 
2132	 9.55733645301497E-02 
2133	 9.57640118538466E-02 
2134	 0.096072633243362 
2135	 9.62874848039104E-02 
2136	 9.68734188868031E-02 
2137	 9.69927358136543E-02 
2138	 9.73524728115322E-02 
2139	 9.80945737940565E-02 
2140	 9.83442463193387E-02 
2141	 9.85985338643531E-02 
2142	 0.098713044102429 
2143	 9.82040734513722E-02 
2144	 9.81368989380133E-02 
2145	 9.81996064500825E-02 
2146	 9.86527326548411E-02 
2147	 9.97203400929559E-02 
2148	 0.100459422005526 
2149	 0.101002251220866 
2150	 0.100836909823232 
2151	 0.100885566642744 
2152	 0.100676300088124 
2153	 0.101016934319205 
2154	 0.10152472973299 
2155	 0.102416497957588 
2156	 0.103287352233276 
2157	 0.103494170313547 
2158	 0.10331940688288 
2159	 0.103155132093181 
2160	 0.103472618567066 
2161	 0.104042373496993 
2162	 0.104657915296274 
2163	 0.1058071953197 
2164	 0.106253480571434 
2165	 0.106262061886155 
2166	 0.106636414417109 
2167	 0.106090496955149 
2168	 0.106047753826056 
2169	 0.10649393851711 
2170	 0.106703814050176 
2171	 0.106652387989342 
2172	 0.10730381818918 
2173	 0.107920784388165 
2174	 0.107943334406868 
2175	 0.108251176655134 
2176	 0.107959258695955 
2177	 0.107864266785706 
2178	 0.108187750814062 
2179	 0.108205595397419 
2180	 0.108812797431535 
2181	 0.109382666120285 
2182	 0.109294072833595 
2183	 0.109490035587568 
2184	 0.109719782234152 
2185	 0.109496083641425 
2186	 0.10956921187448 
2187	 0.109743063957766 
2188	 0.110108587409522 
2189	 0.110218529450979 
2190	 0.110455078507021 
2191	 0.110304878973121 
2192	 0.109846729411946 
2193	 0.109877772709219 
2194	 0.110162747738487 
2195	 0.110266166987864 
2196	 0.110936331033295 
2197	 0.111132124899279 
2198	 0.111177390731061 
2199	 0.111653252711355 
2200	 0.111502545215713 
2201	 0.11171466567567 
2202	 0.111962318804679 
2203	 0.111954413943305 
2204	 0.112406024988416 
2205	 0.112768261196908 
2206	 0.112878478145985 
2207	 0.112691213052031 
2208	 0.112662281054617 
2209	 0.112769185650801 
2210	 0.112501489067942 
2211	 0.111940066710007 
2212	 0.111826598900777 
2213	 0.111585479555105 
2214	 0.11123163677149 
2215	 0.111421769081457 
2216	 0.111596561278184 
2217	 0.111595950231912 
2218	 0.111307512169635 
2219	 0.111195341999394 
2220	 0.111724753772307 
2221	 0.112155087394648 
2222	 0.112567070343203 
2223	 0.113107475513299 
2224	 0.113199978024552 
2225	 0.113413482981732 
2226	 0.113889781429732 
2227	 0.11369680356535 
2228	 0.113247423322766 
2229	 0.113225716007522 
2230	 0.113119250917347 
2231	 0.112768670540892 
2232	 0.112473594638538 
2233	 0.112125931879826 
2234	 0.111502534737294 
2235	 0.110739000845132 
2236	 0.110296203409678 
2237	 0.110749755012377 
2238	 0.110840751212232 
2239	 0.1108066523595 
2240	 0.110973870216095 
2241	 0.110595667165303 
2242	 0.110236160181992 
2243	 0.110220426676522 
2244	 0.109862713648869 
2245	 0.109677122205103 
2246	 0.109612755765474 
2247	 0.108678402517042 
2248	 0.108063499340853 
2249	 0.107803319101725 
2250	 0.107280801051273 
2251	 0.10681184025718 
2252	 0.106506859610427 
2253	 0.106181804536762 
2254	 0.105307586466074 
2255	 0.105007696046231 
2256	 0.104784388364898 
2257	 0.104673767329708 
2258	 0.104105673325423 
2259	 0.104718704245823 
2260	 0.10544144614879 
2261	 0.105427698513322 
2262	 0.105680175095343 
2263	 0.105612531572802 
2264	 0.104960508667135 
2265	 0.104632177284964 
2266	 0.104492600212524 
2267	 0.103687443255394 
2268	 0.102669388845118 
2269	 0.102264113205638 
2270	 0.102131308088722 
2271	 0.102245771870101 
2272	 0.102541093829533 
2273	 0.102348502944237 
2274	 0.101730822953822 
2275	 0.101035767714144 
2276	 9.99243042829013E-02 
2277	 9.90611672911841E-02 
2278	 9.82931199180802E-02 
2279	 9.72901588217924E-02 
2280	 9.72149588721217E-02 
2281	 0.097685629218444 
2282	 9.76067130913907E-02 
2283	 9.72686102010445E-02 
2284	 9.69877402988587E-02 
2285	 9.57950679005801E-02 
2286	 0.094944040532464 
2287	 9.41118146656249E-02 
2288	 9.41999926264003E-02 
2289	 0.093986398030463 
2290	 9.41172850985228E-02 
2291	 9.44367447643086E-02 
2292	 9.42489587964566E-02 
2293	 9.39556341529992E-02 
2294	 0.093423049779604 
2295	 9.27607195001824E-02 
2296	 9.26436126260708E-02 
2297	 9.20134746842173E-02 
2298	 9.13066970601842E-02 
2299	 9.06333577996116E-02 
2300	 8.91020967786967E-02 
2301	 8.86607811912961E-02 
2302	 0.088466185458479 
2303	 8.83518560916753E-02 
2304	 8.87587184067573E-02 
2305	 8.80133315550183E-02 
2306	 8.80376514627742E-02 
2307	 8.83088345217974E-02 
2308	 0.087706852526307 
2309	 8.80108041224523E-02 
2310	 8.74916113691564E-02 
2311	 0.085837999975664 
2312	 8.52710189892404E-02 
2313	 0.084859083855636 
2314	 8.41338903228814E-02 
2315	 8.44347961136653E-02 
2316	 8.50892046166293E-02 
2317	 8.41422720185582E-02 
2318	 8.29886926233231E-02 
2319	 8.25578558440122E-02 
2320	 8.19029456042702E-02 
2321	 8.13038479768966E-02 
2322	 8.10449075159992E-02 
2323	 8.16389000435633E-02 
2324	 8.28103033372113E-02 
2325	 8.30090325473647E-02 
2326	 8.29795919764386E-02 
2327	 8.30192160848999E-02 
2328	 8.13730757874397E-02 
2329	 8.03203234721682E-02 
2330	 8.05111044614676E-02 
2331	 8.03547779446222E-02 
2332	 7.96760915088664E-02 
2333	 7.83669359525009E-02 
2334	 7.68039005717454E-02 
2335	 7.59583330581548E-02 
2336	 7.45953535356487E-02 
2337	 7.21538936692958E-02 
2338	 7.08262663572456E-02 
2339	 7.10827796859277E-02 
2340	 7.25207998931264E-02 
2341	 7.38325367010109E-02 
2342	 7.49162813179396E-02 
2343	 7.49312496889667E-02 
2344	 7.32348745159511E-02 
2345	 7.25148175236046E-02 
2346	 7.14338364233318E-02 
2347	 6.94279798078076E-02 
2348	 6.88335096475569E-02 
2349	 6.89427293653092E-02 
2350	 6.96305909388526E-02 
2351	 7.01569391994009E-02 
2352	 7.04930237322087E-02 
2353	 7.06163734830149E-02 
2354	 6.87390414269077E-02 
2355	 6.81341422320674E-02 
2356	 6.77392612713301E-02 
2357	 6.60153276419466E-02 
2358	 6.65802389342388E-02 
2359	 6.68203001987296E-02 
2360	 6.68499708657956E-02 
2361	 6.79645316451026E-02 
2362	 6.72064070192926E-02 
2363	 0.067514637286145 
2364	 6.85657330586565E-02 
2365	 6.80683999965783E-02 
2366	 6.79691378317175E-02 
2367	 6.60750008265153E-02 
2368	 6.45341797263777E-02 
2369	 0.064566063900678 
2370	 6.38857518448097E-02 
2371	 0.063345933547454 
2372	 6.24441667894783E-02 
2373	 5.89545435714374E-02 
2374	 5.93802499840444E-02 
2375	 6.26520691259618E-02 
2376	 6.40879375254557E-02 
2377	 6.75856080039934E-02 
2378	 6.65606127600658E-02 
2379	 6.18680840501585E-02 
2380	 5.97657876520077E-02 
2381	 5.53672890657686E-02 
2382	 5.42346930485999E-02 
2383	 5.62748853384785E-02 
2384	 5.73786112090125E-02 
2385	 6.00956972882994E-02 
2386	 6.14854860452568E-02 
2387	 6.23638110783318E-02 
2388	 6.19326897437232E-02 
2389	 6.05695028681763E-02 
2390	 5.98012658661324E-02 
2391	 5.70366191779228E-02 
2392	 5.69004396098067E-02 
2393	 5.90679292416687E-02 
2394	 5.93923672866364E-02 
2395	 6.09656490527836E-02 
2396	 6.14532008723118E-02 
2397	 6.01701507213598E-02 
2398	 5.87355712398067E-02 
2399	 5.68351373686092E-02 
2400	 5.54251489587786E-02 
2401	 5.42270288431251E-02 
2402	 5.03587191146188E-02 
2403	 0.049822175260075 
2404	 5.14148359352952E-02 
2405	 0.05047217130748 
2406	 0.051360181031543 
2407	 5.12610219589038E-02 
2408	 4.57960437994092E-02 
2409	 4.25396446943691E-02 
2410	 4.22657412261958E-02 
2411	 4.19311468651036E-02 
2412	 4.39348677175007E-02 
2413	 4.67250666624222E-02 
2414	 4.71023179030616E-02 
2415	 4.44525414163865E-02 
2416	 0.043184623392747 
2417	 4.31422913031857E-02 
2418	 4.38976127543441E-02 
2419	 4.49112047532991E-02 
2420	 4.58397005929766E-02 
2421	 4.93542421250261E-02 
2422	 5.03045921066564E-02 
2423	 5.35873821962641E-02 
2424	 5.82097127757977E-02 
2425	 5.29497175412866E-02 
2426	 4.85259116575133E-02 
2427	 0.049441144059531 
2428	 4.80714000943251E-02 
2429	 4.54865993320202E-02 
2430	 4.34765363359976E-02 
2431	 3.98885025299238E-02 
2432	 3.49292710078232E-02 
2433	 3.99076162517999E-02 
2434	 4.04412737547755E-02 
2435	 3.82535274688472E-02 
2436	 3.77427809612363E-02 
2437	 3.76576999843811E-02 
2438	 0.03745784787627 
2439	 3.79459946906475E-02 
2440	 3.70135011594203E-02 
2441	 3.18454022553787E-02 
2442	 2.87920271178425E-02 
2443	 0.029193239676819 
2444	 2.67559264336529E-02 
2445	 2.36576293323582E-02 
2446	 2.39324583235858E-02 
2447	 0.020866366935254 
2448	 2.07694179014583E-02 
2449	 2.85402294517579E-02 
2450	 2.94102512410363E-02 
2451	 2.91223405669303E-02 
2452	 2.76077204842433E-02 
2453	 1.85612808142894E-02 
2454	 1.59910570520826E-02 
2455	 1.47032828104181E-02 
2456	 0.017288764098026 
2457	 0.028390220574245 
2458	 3.27291251077738E-02 
2459	 3.61428110517514E-02 
2460	 3.76953928015593E-02 
2461	 3.37884284489818E-02 
2462	 3.23761739069632E-02 
2463	 3.67682771509287E-02 
2464	 3.04663973820962E-02 
2465	 1.07724476684037E-02 
2466	 0.005709621526543 
2467	 2.25977394318384E-03 
2468	 1.04007872509943E-03 
2469	 1.11650261144954E-02 
2470	 2.01488952691695E-02 
2471	 2.82139574966629E-02 
2472	 3.24297145863541E-02 
2473	 4.79331522780926E-02 
2474	 4.91002691479958E-02 
2475	 2.97797569542546E-02 
2476	 2.19977623657007E-02 
2477	 9.35419138394543E-03 
2478	 5.23105595047893E-03 
2479	 1.92503151898663E-02 
2480	 1.39584084668475E-02 
2481	-6.80845795367328E-03 
2482	-7.72283045514986E-03 
2483	-1.28719403783358E-02 
2484	-1.03520991111531E-02 
2485	 3.18168670724695E-02 
2486	 1.69576460566442E-02 
2487	 8.76344341813399E-03 
2488	 2.44130922320371E-03 
2489	-0.031606407307323 
2490	-2.09975954022553E-02 
2491	-1.66347240596073E-04 
2492	 6.0596704795696E-04 
2493	 6.87114067895372E-02 
2494	 0.102474038809582 
2495	 0.067789832408301 
2496	 2.34685541530737E-02 
2497	-4.23057583271106E-02 
2498	-4.01812631534809E-02 
2499	-1.88511041421537E-02 
2500	-9.49768394438848E-03 
