Wavelength	ref00140.asd
350	 7.85407047504374 
351	 7.92642066092069 
352	 8.21283029903885 
353	 8.09204681233562 
354	 8.2778901260292 
355	 8.48623702024505 
356	 8.45994979992131 
357	 8.40548366866263 
358	 8.59122849050617 
359	 8.72119397870239 
360	 8.5068245343064 
361	 8.51724376812589 
362	 8.63028411323726 
363	 8.73925169001466 
364	 8.76847040838436 
365	 8.78135336786223 
366	 8.80269362257086 
367	 8.84282490147371 
368	 8.90278675208508 
369	 8.8853324145823 
370	 8.90336869871598 
371	 9.00966654931147 
372	 8.91938385300224 
373	 8.82838610089233 
374	 8.8296125840207 
375	 8.93059686413819 
376	 8.93008149621544 
377	 8.87366285317274 
378	 8.83360296448624 
379	 8.87606778294288 
380	 8.8468833614384 
381	 8.78624022462926 
382	 8.7571483467128 
383	 8.76843711638492 
384	 8.79038560932783 
385	 8.79980979548629 
386	 8.78027746873477 
387	 8.74479976139137 
388	 8.62241331154748 
389	 8.512505593385 
390	 8.64599589889489 
391	 8.62024985179982 
392	 8.58207684316123 
393	 8.64201825890166 
394	 8.61204391128684 
395	 8.54756862704921 
396	 8.49830481034597 
397	 8.48815276581123 
398	 8.41807850831855 
399	 8.40501387876907 
400	 8.41530545774501 
401	 8.31113740763415 
402	 8.30550148784302 
403	 8.32161502305594 
404	 8.29450753910939 
405	 8.26268073252832 
406	 8.2205005188014 
407	 8.18742654496226 
408	 8.17778512613955 
409	 8.14604560143352 
410	 8.11538641719068 
411	 8.08054332865641 
412	 8.01638421543983 
413	 7.99531967345923 
414	 7.99707192927131 
415	 7.98576156173319 
416	 7.92043389788213 
417	 7.8809356467835 
418	 7.86625813407131 
419	 7.84726257319421 
420	 7.8017404021297 
421	 7.76969631420356 
422	 7.75390647957415 
423	 7.72522256574235 
424	 7.70091048351655 
425	 7.6741606014204 
426	 7.64886132302403 
427	 7.66315608551896 
428	 7.65067911964587 
429	 7.61607245739244 
430	 7.58481313755817 
431	 7.54667939467979 
432	 7.50418005287229 
433	 7.46618734654848 
434	 7.44449996952752 
435	 7.42299755717958 
436	 7.40915704679166 
437	 7.39895223599004 
438	 7.35410946590656 
439	 7.33070219013047 
440	 7.31098992949116 
441	 7.26529057297503 
442	 7.24151403336733 
443	 7.21436089956379 
444	 7.18131205008098 
445	 7.16240057230527 
446	 7.12986604243095 
447	 7.10138741954976 
448	 7.08577082584947 
449	 7.05283220329966 
450	 7.01276535673716 
451	 6.9818774042554 
452	 6.97073581272485 
453	 6.93683261377162 
454	 6.90222907752856 
455	 6.8749432925605 
456	 6.8417587112543 
457	 6.80588056583957 
458	 6.76952491270519 
459	 6.73451808656801 
460	 6.70244354218013 
461	 6.66780589460849 
462	 6.63468642295108 
463	 6.61067872222053 
464	 6.58727344412687 
465	 6.5572920533254 
466	 6.52291108485194 
467	 6.49906369037974 
468	 6.47273756803394 
469	 6.44516916562356 
470	 6.41962209099358 
471	 6.39250906522417 
472	 6.36112667816786 
473	 6.33100969189335 
474	 6.31140614924004 
475	 6.28729388903341 
476	 6.26600814849925 
477	 6.24971477836671 
478	 6.225456460234 
479	 6.20447541174736 
480	 6.18693051147754 
481	 6.17018287957498 
482	 6.15633103249894 
483	 6.14855309151692 
484	 6.1422717771188 
485	 6.12611295137825 
486	 6.10983029179848 
487	 6.09110336512428 
488	 6.06948499490607 
489	 6.05510657955532 
490	 6.03499086391462 
491	 6.01472613780278 
492	 6.00449198543216 
493	 5.9927931452599 
494	 5.97740682847733 
495	 5.95955203047001 
496	 5.94356385427562 
497	 5.93349067875556 
498	 5.92207693291531 
499	 5.90430431255833 
500	 5.89266604315024 
501	 5.87305574301795 
502	 5.84594364082303 
503	 5.820969533934 
504	 5.80339917503035 
505	 5.78207458929648 
506	 5.7558198869948 
507	 5.7425416514596 
508	 5.7224536498647 
509	 5.69903303072932 
510	 5.68025737234268 
511	 5.66264056015067 
512	 5.63747363017997 
513	 5.6090842741977 
514	 5.59152988255163 
515	 5.57361011422147 
516	 5.55722884990139 
517	 5.54248304805204 
518	 5.52046747230544 
519	 5.49232942123509 
520	 5.46433396916925 
521	 5.44229684603459 
522	 5.41699506512587 
523	 5.39610871087516 
524	 5.38156521623408 
525	 5.36834377441151 
526	 5.35052417097909 
527	 5.3295540416208 
528	 5.30974719841625 
529	 5.29823773864806 
530	 5.28509422557838 
531	 5.27148840324412 
532	 5.26328619358777 
533	 5.24955488886114 
534	 5.23630105537773 
535	 5.22660772807326 
536	 5.21608636488308 
537	 5.19771277531671 
538	 5.18252021971568 
539	 5.18048132753906 
540	 5.17181504661114 
541	 5.15822627042699 
542	 5.14359250609685 
543	 5.13255157659372 
544	 5.12212559036282 
545	 5.11113725405948 
546	 5.10016000036317 
547	 5.09351989468163 
548	 5.0854599376621 
549	 5.07587778771998 
550	 5.06643987077219 
551	 5.05404573788553 
552	 5.04089055402718 
553	 5.02911552187208 
554	 5.02032526947593 
555	 5.00222016341198 
556	 4.98262946983984 
557	 4.96909050194609 
558	 4.95180128982103 
559	 4.93324524333725 
560	 4.91540886092723 
561	 4.89963326335636 
562	 4.88598517238894 
563	 4.86874383495818 
564	 4.84827962847966 
565	 4.83695337481448 
566	 4.8245107288769 
567	 4.80774163413379 
568	 4.78772466555064 
569	 4.77357452861849 
570	 4.76087627189356 
571	 4.74669919151729 
572	 4.73028104008151 
573	 4.71495764206331 
574	 4.69861127483758 
575	 4.68025269682299 
576	 4.66468044027513 
577	 4.64857619042488 
578	 4.63345792395203 
579	 4.62214616284066 
580	 4.61040874578937 
581	 4.59804500742207 
582	 4.58652275543376 
583	 4.57893118236301 
584	 4.56923386901453 
585	 4.55705036424291 
586	 4.54406940005539 
587	 4.5330168972506 
588	 4.52228599472203 
589	 4.51157118193992 
590	 4.50190137773488 
591	 4.49483366170591 
592	 4.49208267600864 
593	 4.49184651701428 
594	 4.48637323316232 
595	 4.48376501760873 
596	 4.48336221745761 
597	 4.48160543742481 
598	 4.47635573843859 
599	 4.47093625287815 
600	 4.46646853991862 
601	 4.46170856827125 
602	 4.45801459103802 
603	 4.45500273726191 
604	 4.45253617821917 
605	 4.4524477959216 
606	 4.45023643050633 
607	 4.44797999972549 
608	 4.44961080919573 
609	 4.44654064483641 
610	 4.44111880850073 
611	 4.43579260991848 
612	 4.43149461221346 
613	 4.42882679806913 
614	 4.42631370989538 
615	 4.42232717172973 
616	 4.41696872741747 
617	 4.41139047255866 
618	 4.40558761020249 
619	 4.39862072728361 
620	 4.38993519293867 
621	 4.3813926135896 
622	 4.37374139703524 
623	 4.36501584206245 
624	 4.35695678392989 
625	 4.34836407639291 
626	 4.33788279950658 
627	 4.32855382478709 
628	 4.3185287948784 
629	 4.30823978077861 
630	 4.30041127759454 
631	 4.29321974738498 
632	 4.28457356804611 
633	 4.27465006993253 
634	 4.26915346451624 
635	 4.26578565363232 
636	 4.26223346020648 
637	 4.25705377985111 
638	 4.25529413901528 
639	 4.25540597396762 
640	 4.25568261455402 
641	 4.25496271903278 
642	 4.25566150979238 
643	 4.25746108145314 
644	 4.25881775305901 
645	 4.25634084717744 
646	 4.25557857540434 
647	 4.25599645716607 
648	 4.25416687052262 
649	 4.25804509495871 
650	 4.26185719132416 
651	 4.26202276066753 
652	 4.26125779688705 
653	 4.25951478268902 
654	 4.25924507330835 
655	 4.26282344252081 
656	 4.26936158684704 
657	 4.27552062831656 
658	 4.28007163920819 
659	 4.28503518564898 
660	 4.29299997113186 
661	 4.30193002065169 
662	 4.31002796748807 
663	 4.31766526323629 
664	 4.32701958554073 
665	 4.33628161280388 
666	 4.34352032819889 
667	 4.35342559267288 
668	 4.36338232757072 
669	 4.37203729277027 
670	 4.37972371195508 
671	 4.38752455842809 
672	 4.39445475011677 
673	 4.39998890397776 
674	 4.40578648548462 
675	 4.41184761621083 
676	 4.41574410481276 
677	 4.41568561502762 
678	 4.41917924778704 
679	 4.42386785082407 
680	 4.42596372748888 
681	 4.42141207605547 
682	 4.41902167693714 
683	 4.41215147043397 
684	 4.39685106356026 
685	 4.38346055565828 
686	 4.37057029081888 
687	 4.35274173419496 
688	 4.32669629122116 
689	 4.30913086148592 
690	 4.28707325284899 
691	 4.25709965994025 
692	 4.22878054986361 
693	 4.19433989745308 
694	 4.15975262779251 
695	 4.13159668755185 
696	 4.11097486735467 
697	 4.09131465877778 
698	 4.06760621874553 
699	 4.03807270501311 
700	 4.01393593713404 
701	 3.99054863494786 
702	 3.96674376254379 
703	 3.94667930956265 
704	 3.9292027847931 
705	 3.91171194757779 
706	 3.89261955387878 
707	 3.8739529809898 
708	 3.85760420518383 
709	 3.84166466059187 
710	 3.82350508630014 
711	 3.80784387223322 
712	 3.79130900102 
713	 3.77332479772404 
714	 3.75687471950828 
715	 3.7348218215936 
716	 3.7062873685195 
717	 3.67300914644944 
718	 3.6418471158651 
719	 3.62251168049271 
720	 3.61453523460612 
721	 3.6097585335094 
722	 3.60390019327093 
723	 3.58925964255325 
724	 3.56650965152166 
725	 3.54724008535874 
726	 3.53303336299641 
727	 3.52131953495263 
728	 3.50949091931881 
729	 3.49863401210548 
730	 3.48803310626284 
731	 3.47983176010543 
732	 3.47594842005627 
733	 3.47297875235458 
734	 3.46708144595246 
735	 3.45749472448897 
736	 3.44644147751664 
737	 3.43790120931656 
738	 3.42940150022914 
739	 3.41958045303995 
740	 3.41222336309409 
741	 3.4059651699734 
742	 3.39885706486872 
743	 3.38968643333138 
744	 3.38116739994047 
745	 3.37201229331128 
746	 3.36304758434768 
747	 3.35632272296687 
748	 3.34808507309978 
749	 3.33888253731755 
750	 3.32983601533339 
751	 3.32195721650379 
752	 3.31416235330283 
753	 3.30662909862723 
754	 3.29928742622162 
755	 3.28994565674787 
756	 3.28112468150501 
757	 3.27219702128577 
758	 3.2612469723685 
759	 3.2547318901095 
760	 3.24647159171267 
761	 3.23217599725336 
762	 3.22110594887538 
763	 3.2177851586273 
764	 3.21404123068169 
765	 3.20691709861375 
766	 3.20508644258647 
767	 3.19941589263139 
768	 3.19197217759588 
769	 3.18649818744226 
770	 3.17961861904739 
771	 3.1722931812134 
772	 3.16576095232415 
773	 3.16078587290355 
774	 3.15150909161512 
775	 3.14360651910184 
776	 3.13903285191397 
777	 3.13059755112958 
778	 3.1226771892057 
779	 3.11596213396489 
780	 3.10999331245472 
781	 3.10379581440487 
782	 3.0975580258702 
783	 3.09142548425119 
784	 3.08519772162864 
785	 3.07657875691799 
786	 3.06764203597642 
787	 3.05938016971859 
788	 3.05123674129423 
789	 3.04214054548667 
790	 3.03457849830103 
791	 3.02930310980004 
792	 3.02216081743788 
793	 3.01648348596923 
794	 3.01118715992985 
795	 3.00412284094255 
796	 2.99432310833502 
797	 2.98737318916477 
798	 2.98259392315306 
799	 2.97590584401577 
800	 2.9687125391294 
801	 2.96113391131045 
802	 2.95409635212339 
803	 2.94917427682352 
804	 2.94406776426359 
805	 2.93813887146446 
806	 2.93185045719002 
807	 2.92723941622018 
808	 2.91972103506886 
809	 2.91148805745169 
810	 2.90478381751884 
811	 2.89314071568928 
812	 2.88055730574325 
813	 2.86812211563179 
814	 2.85543285664743 
815	 2.84424594074419 
816	 2.8344280512186 
817	 2.82643967098373 
818	 2.8213466157685 
819	 2.82031076798249 
820	 2.81988207282061 
821	 2.8170753463017 
822	 2.8109255430273 
823	 2.80474690061141 
824	 2.79966770262785 
825	 2.79591722553368 
826	 2.79295171566211 
827	 2.78930865745088 
828	 2.78483850904653 
829	 2.77984116635049 
830	 2.77233396746955 
831	 2.76900692136088 
832	 2.76837718686809 
833	 2.76370180705096 
834	 2.76077429230786 
835	 2.75838382147421 
836	 2.75553053932894 
837	 2.75242847473462 
838	 2.74998400897542 
839	 2.74667517348064 
840	 2.74160249610149 
841	 2.73578405334563 
842	 2.73358456964481 
843	 2.73114584613691 
844	 2.72488237354226 
845	 2.72054034215686 
846	 2.71567259894214 
847	 2.71090578339269 
848	 2.70745586910821 
849	 2.70259749083617 
850	 2.6964126947988 
851	 2.69057723518638 
852	 2.6873873517576 
853	 2.68558864773418 
854	 2.6817144521317 
855	 2.67459037798843 
856	 2.66637600598533 
857	 2.66291108477715 
858	 2.65922077123903 
859	 2.65328063211132 
860	 2.65052252761358 
861	 2.64500088768816 
862	 2.64029358300762 
863	 2.63914816697277 
864	 2.63650016645379 
865	 2.63202216901074 
866	 2.6275711702464 
867	 2.62443286960874 
868	 2.61808937474297 
869	 2.61161930177526 
870	 2.60716418127111 
871	 2.60498678323653 
872	 2.59974998787787 
873	 2.59572855258405 
874	 2.592511361518 
875	 2.58672462951055 
876	 2.5814414467535 
877	 2.57739524128269 
878	 2.57367165845841 
879	 2.5683551134572 
880	 2.56460590400084 
881	 2.56006127303025 
882	 2.55472733270885 
883	 2.55247054517643 
884	 2.54792517992412 
885	 2.54307389847996 
886	 2.53957544449193 
887	 2.53581534358949 
888	 2.53075426175579 
889	 2.52551689246969 
890	 2.52064563477923 
891	 2.51381233477399 
892	 2.50528755220706 
893	 2.49648793919159 
894	 2.48830286441082 
895	 2.47789495035127 
896	 2.4720109756723 
897	 2.46670033578142 
898	 2.45655147913194 
899	 2.45223355029552 
900	 2.4488097670959 
901	 2.44507034922584 
902	 2.44221141006407 
903	 2.44209656086868 
904	 2.4372198069674 
905	 2.43038816689069 
906	 2.42918943040624 
907	 2.42685308468116 
908	 2.41848415440215 
909	 2.40811110035654 
910	 2.40517301007068 
911	 2.40083374730174 
912	 2.39632117320544 
913	 2.39137992879628 
914	 2.38439979711555 
915	 2.38384771808739 
916	 2.38129446197827 
917	 2.37735391216974 
918	 2.38303000490826 
919	 2.38063530697612 
920	 2.37803506731931 
921	 2.37786436125227 
922	 2.37200360694964 
923	 2.37108556115232 
924	 2.36771877902335 
925	 2.35875833780027 
926	 2.35210085659072 
927	 2.33850342907326 
928	 2.32796991082669 
929	 2.32344798861036 
930	 2.30706010109292 
931	 2.29690511026559 
932	 2.28537523051227 
933	 2.26755879401476 
934	 2.25936408236709 
935	 2.25375163579336 
936	 2.2427260173611 
937	 2.23081944566238 
938	 2.24312279118438 
939	 2.2418196858999 
940	 2.24096189018643 
941	 2.24985565777389 
942	 2.24659970956031 
943	 2.24544560814644 
944	 2.24958498246554 
945	 2.25383531901426 
946	 2.24172717364396 
947	 2.23724313770738 
948	 2.23322560268284 
949	 2.2258962738869 
950	 2.23495519556747 
951	 2.2379094473791 
952	 2.23607468446493 
953	 2.23477100444641 
954	 2.23389172757579 
955	 2.23591794121614 
956	 2.24128117917142 
957	 2.24688902930487 
958	 2.24485120164259 
959	 2.24219373367486 
960	 2.24567513221739 
961	 2.25484460364499 
962	 2.25752370878342 
963	 2.26534087084426 
964	 2.26526954078808 
965	 2.2571801309135 
966	 2.26873387256852 
967	 2.27370849251219 
968	 2.27333149922221 
969	 2.2719504522736 
970	 2.26946210335926 
971	 2.27568565446238 
972	 2.27556108211057 
973	 2.26723538749861 
974	 2.27268979301254 
975	 2.27203417752195 
976	 2.26599261912564 
977	 2.26151110002444 
978	 2.26628709739197 
979	 2.26528420842595 
980	 2.26578691025275 
981	 2.26808760912382 
982	 2.26251882712188 
983	 2.25463973459668 
984	 2.25581747171241 
985	 2.26208235789903 
986	 2.25836218012693 
987	 2.26252774541138 
988	 2.26081176078151 
989	 2.25285318088261 
990	 2.24960835783971 
991	 2.24723442062238 
992	 2.25104703848202 
993	 2.25945782861882 
994	 2.26515804684291 
995	 2.26005502096755 
996	 2.24649908297751 
997	 2.2408416734612 
998	 2.25299626935415 
999	 2.24485590636886 
1000	 2.23083979765502 
1001	 2.27091448430703 
1002	 2.26805390109849 
1003	 2.26526470603075 
1004	 2.26246474930546 
1005	 2.25975599212121 
1006	 2.2576854337585 
1007	 2.25521045509114 
1008	 2.25258245352055 
1009	 2.24936260856722 
1010	 2.24608880113487 
1011	 2.24250310902247 
1012	 2.23770495865256 
1013	 2.23443799666631 
1014	 2.23179567744166 
1015	 2.22880819638299 
1016	 2.22598573041458 
1017	 2.22276646170426 
1018	 2.2200774920458 
1019	 2.21767903619991 
1020	 2.21510645628898 
1021	 2.2132165866943 
1022	 2.21027339414214 
1023	 2.2067352536525 
1024	 2.20256650590943 
1025	 2.19910388086457 
1026	 2.19580557794122 
1027	 2.19245824034672 
1028	 2.1899326564126 
1029	 2.18658729032841 
1030	 2.1829260316654 
1031	 2.18038110848112 
1032	 2.17742710346661 
1033	 2.17413697324807 
1034	 2.17060132450145 
1035	 2.16743087179708 
1036	 2.16388779081129 
1037	 2.1605208392202 
1038	 2.15741421756438 
1039	 2.15481306378495 
1040	 2.15110676903946 
1041	 2.14742325715865 
1042	 2.14447931421255 
1043	 2.14173553616871 
1044	 2.13927352475869 
1045	 2.13724636582574 
1046	 2.1343780486122 
1047	 2.13067616439399 
1048	 2.12748558946139 
1049	 2.12519812107615 
1050	 2.12283402511611 
1051	 2.12118307017617 
1052	 2.1184973043973 
1053	 2.11556205099778 
1054	 2.11302200352888 
1055	 2.11030887914186 
1056	 2.10849709236296 
1057	 2.10676955896347 
1058	 2.10508271969014 
1059	 2.10348893528377 
1060	 2.1008288548931 
1061	 2.09861463294419 
1062	 2.09645252010039 
1063	 2.09386044940159 
1064	 2.09267342207552 
1065	 2.09096789425908 
1066	 2.08960483753381 
1067	 2.08758951559785 
1068	 2.0860031092086 
1069	 2.08356579661727 
1070	 2.08201576891452 
1071	 2.08121780556478 
1072	 2.0788423337688 
1073	 2.07714532533608 
1074	 2.07584063633886 
1075	 2.07311262836513 
1076	 2.07035825893428 
1077	 2.06818120845333 
1078	 2.06601252862196 
1079	 2.06420725201486 
1080	 2.06337654700461 
1081	 2.061484799721 
1082	 2.05915830277126 
1083	 2.05579606166023 
1084	 2.05341996765829 
1085	 2.05131817243672 
1086	 2.04951742488599 
1087	 2.04854484973635 
1088	 2.04699132088304 
1089	 2.04384484028981 
1090	 2.0403601227293 
1091	 2.03719117237487 
1092	 2.03330611043792 
1093	 2.02968222064543 
1094	 2.02682881089686 
1095	 2.02395715350011 
1096	 2.02099009428084 
1097	 2.01875617685357 
1098	 2.01521275337521 
1099	 2.01094163223586 
1100	 2.006566734931 
1101	 2.00160961163481 
1102	 1.99701023869161 
1103	 1.99367670470861 
1104	 1.99004852414518 
1105	 1.98648569593756 
1106	 1.98290941319561 
1107	 1.97820720101968 
1108	 1.97302159050597 
1109	 1.96749796570714 
1110	 1.96119060602704 
1111	 1.95412342958465 
1112	 1.9453748604638 
1113	 1.93750590692771 
1114	 1.92924987940085 
1115	 1.9201900019798 
1116	 1.91086857501675 
1117	 1.90153714039139 
1118	 1.89088207591088 
1119	 1.87895073820505 
1120	 1.86907704695463 
1121	 1.86056521777402 
1122	 1.85263867767642 
1123	 1.84831167509291 
1124	 1.8448532863735 
1125	 1.84179819378539 
1126	 1.84172120268467 
1127	 1.84443359040941 
1128	 1.84635549351526 
1129	 1.85033717304551 
1130	 1.85399697232025 
1131	 1.85690562597433 
1132	 1.86109386604159 
1133	 1.86648134170063 
1134	 1.87138863462767 
1135	 1.87695197921155 
1136	 1.8800475085486 
1137	 1.88273202850948 
1138	 1.88574517117163 
1139	 1.88660322269671 
1140	 1.88802477420774 
1141	 1.88883453145906 
1142	 1.88839551644237 
1143	 1.8888289680178 
1144	 1.88877081289567 
1145	 1.89008104399196 
1146	 1.89228629372041 
1147	 1.89466124368759 
1148	 1.89709690414051 
1149	 1.90090536055169 
1150	 1.90542718819715 
1151	 1.91004967034918 
1152	 1.91529497016234 
1153	 1.92078883410191 
1154	 1.92641230789519 
1155	 1.93177778491431 
1156	 1.9369578424484 
1157	 1.94266503892826 
1158	 1.94807113869672 
1159	 1.95168315073221 
1160	 1.95541229586402 
1161	 1.95928177210167 
1162	 1.9622922649955 
1163	 1.96474171153246 
1164	 1.96686618841114 
1165	 1.96859522195028 
1166	 1.96989218203218 
1167	 1.97081086743492 
1168	 1.97149268389054 
1169	 1.9719072303988 
1170	 1.97207203593828 
1171	 1.97179686662644 
1172	 1.97127856810684 
1173	 1.97133662889665 
1174	 1.97141255128713 
1175	 1.97090764933426 
1176	 1.97025909527168 
1177	 1.96937805023243 
1178	 1.96771348941889 
1179	 1.96635771274808 
1180	 1.96513741948508 
1181	 1.96396494893833 
1182	 1.96239357075616 
1183	 1.96139197397199 
1184	 1.96069692445396 
1185	 1.96016476672008 
1186	 1.96038726532871 
1187	 1.95990843490373 
1188	 1.95917717691797 
1189	 1.95859101842178 
1190	 1.95752922666389 
1191	 1.956473649199 
1192	 1.95625285671363 
1193	 1.9559422662602 
1194	 1.95518797150926 
1195	 1.9544804667048 
1196	 1.95329752405534 
1197	 1.95133766865837 
1198	 1.94998331861071 
1199	 1.94870998191098 
1200	 1.94745756691465 
1201	 1.94644231483366 
1202	 1.94521574001632 
1203	 1.94373580039161 
1204	 1.94248670043227 
1205	 1.94135060021804 
1206	 1.94024552618737 
1207	 1.93945689475928 
1208	 1.93838292109311 
1209	 1.93716300866848 
1210	 1.93574487717291 
1211	 1.93480105331103 
1212	 1.93381125151206 
1213	 1.93272400218267 
1214	 1.93175069706789 
1215	 1.93090513728445 
1216	 1.92984305291007 
1217	 1.92914932843737 
1218	 1.92918840943443 
1219	 1.92833121972711 
1220	 1.92696845478063 
1221	 1.92592282711864 
1222	 1.92437467965201 
1223	 1.92344749204741 
1224	 1.92356079688301 
1225	 1.92264872431338 
1226	 1.92131340334608 
1227	 1.92008607566536 
1228	 1.91852907613083 
1229	 1.91651157634043 
1230	 1.91535152501814 
1231	 1.91466931856887 
1232	 1.9137252749028 
1233	 1.91307017415326 
1234	 1.91198381509847 
1235	 1.9105945519488 
1236	 1.90941886260207 
1237	 1.90808845924202 
1238	 1.90692820062766 
1239	 1.90613985267241 
1240	 1.90490801111155 
1241	 1.90349577141705 
1242	 1.90203641237126 
1243	 1.90016438549715 
1244	 1.89863441809756 
1245	 1.89722744367251 
1246	 1.89587167816737 
1247	 1.8946272029681 
1248	 1.89346378242757 
1249	 1.89252975766627 
1250	 1.8913490951642 
1251	 1.89004516083993 
1252	 1.88888680367139 
1253	 1.88756577748479 
1254	 1.88596450195386 
1255	 1.88461105568508 
1256	 1.88346932971849 
1257	 1.88197352383635 
1258	 1.88024695866569 
1259	 1.87874621247677 
1260	 1.87711096090369 
1261	 1.8756044771409 
1262	 1.87447374053564 
1263	 1.87297514529349 
1264	 1.87099177811734 
1265	 1.86959177842255 
1266	 1.86820790728056 
1267	 1.86717728271202 
1268	 1.86697908046236 
1269	 1.86635164224579 
1270	 1.86569658324005 
1271	 1.8650428292204 
1272	 1.86413374831266 
1273	 1.86343444075433 
1274	 1.86279238881683 
1275	 1.86223596640174 
1276	 1.86178082485475 
1277	 1.86140111978194 
1278	 1.86109914363463 
1279	 1.86094762365835 
1280	 1.86073654257058 
1281	 1.86061543506148 
1282	 1.86037153733481 
1283	 1.86008724741055 
1284	 1.85977721566294 
1285	 1.85921219629341 
1286	 1.85902759399706 
1287	 1.85917386238083 
1288	 1.8590380229363 
1289	 1.85911300568123 
1290	 1.85889567949161 
1291	 1.85814209847309 
1292	 1.85771816586371 
1293	 1.85762892291156 
1294	 1.85714012469662 
1295	 1.85673013725292 
1296	 1.85587283093037 
1297	 1.85515253646887 
1298	 1.85396687279707 
1299	 1.85339822135369 
1300	 1.85320291835782 
1301	 1.85277573363578 
1302	 1.85252365852638 
1303	 1.85201021164627 
1304	 1.85133555072817 
1305	 1.85063477483769 
1306	 1.84971966953665 
1307	 1.84905150342948 
1308	 1.84853873732887 
1309	 1.84781822356834 
1310	 1.84700247890571 
1311	 1.8463705617752 
1312	 1.8455056322422 
1313	 1.84500182888309 
1314	 1.84518735597054 
1315	 1.84488438223392 
1316	 1.84427562625187 
1317	 1.8439180310809 
1318	 1.84375240219399 
1319	 1.84316336498341 
1320	 1.84233729820065 
1321	 1.84202164977174 
1322	 1.84073092685518 
1323	 1.83850869482099 
1324	 1.83692816632521 
1325	 1.83543600435556 
1326	 1.83333003772209 
1327	 1.8308427327456 
1328	 1.828843732644 
1329	 1.82615107567485 
1330	 1.8245152775151 
1331	 1.82413492325589 
1332	 1.82306778823277 
1333	 1.82186715766086 
1334	 1.82107783273479 
1335	 1.8207440714433 
1336	 1.81989095938939 
1337	 1.81962939068852 
1338	 1.81825702893989 
1339	 1.8160345638471 
1340	 1.81308130235646 
1341	 1.80916686159458 
1342	 1.80427877351532 
1343	 1.79655663876924 
1344	 1.78919705912993 
1345	 1.78060930662744 
1346	 1.76949488758861 
1347	 1.75850559261106 
1348	 1.74643761996489 
1349	 1.73165413852791 
1350	 1.71178521500618 
1351	 1.69265615258053 
1352	 1.67111351608804 
1353	 1.64660018754837 
1354	 1.62662934444312 
1355	 1.5980113515418 
1356	 1.57302936366805 
1357	 1.53620453675571 
1358	 1.52087648665672 
1359	 1.47569201444304 
1360	 1.42879743453027 
1361	 1.36999152041145 
1362	 1.34766896819728 
1363	 1.30315294764938 
1364	 1.32917915051465 
1365	 1.33244558530661 
1366	 1.3364662705891 
1367	 1.33805566487931 
1368	 1.34529476290484 
1369	 1.34946109419685 
1370	 1.35298154101935 
1371	 1.35238948215359 
1372	 1.34774473503961 
1373	 1.34683700216653 
1374	 1.34388649703378 
1375	 1.34337677631365 
1376	 1.34163261951022 
1377	 1.34964129180078 
1378	 1.34697767540096 
1379	 1.33471406607764 
1380	 1.33959084337721 
1381	 1.35001690268368 
1382	 1.35571783863632 
1383	 1.36934009614238 
1384	 1.38030555608904 
1385	 1.38030085337012 
1386	 1.39162114709588 
1387	 1.41036933604492 
1388	 1.42295971634986 
1389	 1.43232163504194 
1390	 1.44668546534789 
1391	 1.46337585066302 
1392	 1.47694633845896 
1393	 1.49002326069509 
1394	 1.50562693881876 
1395	 1.52311271531935 
1396	 1.53734245574775 
1397	 1.5501051480037 
1398	 1.56647229072623 
1399	 1.58254276126398 
1400	 1.5981266198165 
1401	 1.61786306679169 
1402	 1.63434293702574 
1403	 1.64000462009421 
1404	 1.65627718318464 
1405	 1.67788920533819 
1406	 1.69708431341744 
1407	 1.71834674464912 
1408	 1.7404598016653 
1409	 1.7572502147403 
1410	 1.77679850354647 
1411	 1.79507597164235 
1412	 1.81391734737238 
1413	 1.83048421357324 
1414	 1.84633499582556 
1415	 1.85965942369632 
1416	 1.87069553104677 
1417	 1.8835800429986 
1418	 1.89487029789841 
1419	 1.90846548001388 
1420	 1.92443111712114 
1421	 1.9383415655907 
1422	 1.95313349595283 
1423	 1.9645233472752 
1424	 1.97456761155617 
1425	 1.98385718267459 
1426	 1.99210364886165 
1427	 1.99981525097178 
1428	 2.00774954839342 
1429	 2.01432192892026 
1430	 2.02067319619311 
1431	 2.02506077161141 
1432	 2.02782183218717 
1433	 2.03093768335332 
1434	 2.03176442352073 
1435	 2.03469332854802 
1436	 2.03922016741554 
1437	 2.04283578939965 
1438	 2.0465302891428 
1439	 2.05043158302691 
1440	 2.05264534729231 
1441	 2.0571300279634 
1442	 2.06358656869379 
1443	 2.06887427325393 
1444	 2.07565848206238 
1445	 2.08301210119912 
1446	 2.09063172229676 
1447	 2.0993502379922 
1448	 2.10585067646516 
1449	 2.11190490294438 
1450	 2.11798916831009 
1451	 2.12235168220627 
1452	 2.1284057923654 
1453	 2.13603262651875 
1454	 2.14158513037022 
1455	 2.14772242410442 
1456	 2.15088934737014 
1457	 2.15303431141116 
1458	 2.15351612635318 
1459	 2.15205677880199 
1460	 2.15031375542857 
1461	 2.14687221612041 
1462	 2.14396035324892 
1463	 2.14018801118527 
1464	 2.13660791341173 
1465	 2.13324302304628 
1466	 2.12928089560124 
1467	 2.12376357936014 
1468	 2.1205386105008 
1469	 2.11796686995574 
1470	 2.11629133918799 
1471	 2.11722754669047 
1472	 2.11715727485936 
1473	 2.11651155466462 
1474	 2.11698632331503 
1475	 2.11784630991759 
1476	 2.119120116185 
1477	 2.12108780525762 
1478	 2.12328961620972 
1479	 2.12631265987074 
1480	 2.12842860542786 
1481	 2.12995144054979 
1482	 2.13217497020284 
1483	 2.13402296095183 
1484	 2.13631563475199 
1485	 2.13980984723862 
1486	 2.14252468013729 
1487	 2.14511120165865 
1488	 2.14679381686635 
1489	 2.14891035302874 
1490	 2.15134894828274 
1491	 2.15457610706141 
1492	 2.15769376686084 
1493	 2.15968542441521 
1494	 2.1606199138542 
1495	 2.16128480791153 
1496	 2.16075024110101 
1497	 2.16088770710586 
1498	 2.16126843534804 
1499	 2.1610851308655 
1500	 2.1606521345534 
1501	 2.16001780367342 
1502	 2.15898707425552 
1503	 2.15813559092264 
1504	 2.15740774234376 
1505	 2.15610376029089 
1506	 2.15451126078252 
1507	 2.1530589232702 
1508	 2.15115930936223 
1509	 2.14969352720423 
1510	 2.14865328736225 
1511	 2.14730928760343 
1512	 2.14584965500987 
1513	 2.14441508223108 
1514	 2.14283451011361 
1515	 2.14145997849543 
1516	 2.14017827306154 
1517	 2.13893722785514 
1518	 2.13792336479021 
1519	 2.13660158133006 
1520	 2.13519936159223 
1521	 2.1336731215246 
1522	 2.13185467714921 
1523	 2.13025504406878 
1524	 2.12885391322655 
1525	 2.12709601620443 
1526	 2.12514267738577 
1527	 2.12331091870516 
1528	 2.12106307348444 
1529	 2.11928009509781 
1530	 2.11794277842105 
1531	 2.11646455944314 
1532	 2.11525066975306 
1533	 2.11373529674515 
1534	 2.11203286446538 
1535	 2.11030835681848 
1536	 2.10837759271974 
1537	 2.10652775870562 
1538	 2.10470785651769 
1539	 2.10287705581682 
1540	 2.10091669388748 
1541	 2.09915947386632 
1542	 2.09774060119157 
1543	 2.09593630190761 
1544	 2.09403669814135 
1545	 2.09213262167169 
1546	 2.08957150957547 
1547	 2.08765997497313 
1548	 2.08649669080848 
1549	 2.08483205596424 
1550	 2.08291210651035 
1551	 2.0814838882252 
1552	 2.08042414625138 
1553	 2.07875433928534 
1554	 2.07704304575568 
1555	 2.07545277488578 
1556	 2.07322246536518 
1557	 2.07122042502755 
1558	 2.06976398239715 
1559	 2.06817322665608 
1560	 2.06621015045951 
1561	 2.06454206110704 
1562	 2.06322992669055 
1563	 2.06177078417858 
1564	 2.06008403113562 
1565	 2.05899940810501 
1566	 2.05762991663186 
1567	 2.05538910722124 
1568	 2.05365300502067 
1569	 2.0516253564217 
1570	 2.05048267002393 
1571	 2.0498722460198 
1572	 2.04885777561309 
1573	 2.0482975167153 
1574	 2.04712689982634 
1575	 2.04551997505577 
1576	 2.04393040055031 
1577	 2.04226028955337 
1578	 2.04058395534669 
1579	 2.0384886255525 
1580	 2.03730433574221 
1581	 2.03683384173685 
1582	 2.03526562039776 
1583	 2.0335278592496 
1584	 2.03224185677281 
1585	 2.03054029164438 
1586	 2.02890701444535 
1587	 2.02803009638739 
1588	 2.02629914218584 
1589	 2.02344481073805 
1590	 2.02185617109917 
1591	 2.02097403082706 
1592	 2.0193301245617 
1593	 2.01792376478386 
1594	 2.01585416318991 
1595	 2.01278722813688 
1596	 2.01087173043911 
1597	 2.00909488349322 
1598	 2.00770661234271 
1599	 2.00728204034181 
1600	 2.0057254883839 
1601	 2.00392129705507 
1602	 2.00191369944968 
1603	 1.99896032922122 
1604	 1.99731942390388 
1605	 1.99626404197034 
1606	 1.99496288006152 
1607	 1.99455422942623 
1608	 1.99271657802316 
1609	 1.98977101874756 
1610	 1.98794934814095 
1611	 1.98569678402211 
1612	 1.98466180341141 
1613	 1.98524636776903 
1614	 1.98399416612512 
1615	 1.98228192403309 
1616	 1.98092565014877 
1617	 1.97895976849646 
1618	 1.97719577909138 
1619	 1.97578238604111 
1620	 1.97452036005037 
1621	 1.97278844785777 
1622	 1.97177570494133 
1623	 1.9719687591728 
1624	 1.97074349328849 
1625	 1.96876948277165 
1626	 1.96747063564456 
1627	 1.96590141888966 
1628	 1.96468787127877 
1629	 1.96410083718876 
1630	 1.96296255848896 
1631	 1.96138904332131 
1632	 1.96018286129902 
1633	 1.95924553222306 
1634	 1.95793054747789 
1635	 1.95652623736993 
1636	 1.95512359786166 
1637	 1.95322870821693 
1638	 1.95210972934033 
1639	 1.95147878489924 
1640	 1.95076546309997 
1641	 1.95035819002129 
1642	 1.9498039744446 
1643	 1.94938204290556 
1644	 1.94839434638394 
1645	 1.9468650706795 
1646	 1.94648844270263 
1647	 1.94640206580914 
1648	 1.94585607698908 
1649	 1.94588470289704 
1650	 1.9456642231429 
1651	 1.94468247367246 
1652	 1.94433868849736 
1653	 1.94472682516354 
1654	 1.94462735095801 
1655	 1.94421287708476 
1656	 1.94390570411641 
1657	 1.94380521046691 
1658	 1.94312724200576 
1659	 1.94228826121222 
1660	 1.94245263917073 
1661	 1.94303686141401 
1662	 1.94378748653696 
1663	 1.9445911223179 
1664	 1.94429916169048 
1665	 1.94384609767176 
1666	 1.94387387353897 
1667	 1.94415314815033 
1668	 1.9447002545085 
1669	 1.94515049218373 
1670	 1.94584339524238 
1671	 1.94587504510155 
1672	 1.94560512295631 
1673	 1.94605463210802 
1674	 1.94584151025143 
1675	 1.9457218646578 
1676	 1.94615888929774 
1677	 1.94634590505201 
1678	 1.94662305281837 
1679	 1.94680521671542 
1680	 1.94708474992919 
1681	 1.94756614849652 
1682	 1.94827060025404 
1683	 1.94939837367151 
1684	 1.95064169204198 
1685	 1.95144849877866 
1686	 1.95189000572157 
1687	 1.95221172320801 
1688	 1.95256288982659 
1689	 1.95341751531564 
1690	 1.95424951397636 
1691	 1.95498217664441 
1692	 1.95570818596889 
1693	 1.95608996568903 
1694	 1.95607914368379 
1695	 1.95636669733944 
1696	 1.95606770068191 
1697	 1.95655980870813 
1698	 1.95799244530529 
1699	 1.95921367837124 
1700	 1.96136640316235 
1701	 1.96260398300873 
1702	 1.96320492550062 
1703	 1.96363768498517 
1704	 1.96293564848585 
1705	 1.96314281576688 
1706	 1.96355923751349 
1707	 1.96436754966642 
1708	 1.96603934159645 
1709	 1.9676123874962 
1710	 1.96957812306828 
1711	 1.97088043200558 
1712	 1.9718820170552 
1713	 1.97263711325939 
1714	 1.97271164796867 
1715	 1.97356230982881 
1716	 1.97501536089531 
1717	 1.97598500364078 
1718	 1.97673538175996 
1719	 1.97752969194148 
1720	 1.9784047996354 
1721	 1.97874796427861 
1722	 1.97864328971419 
1723	 1.97945567597403 
1724	 1.98045955911416 
1725	 1.98080690403217 
1726	 1.98179826653981 
1727	 1.98177514936263 
1728	 1.98021571224068 
1729	 1.9799303596817 
1730	 1.98008376782758 
1731	 1.98059700849993 
1732	 1.98069343832288 
1733	 1.98031653353647 
1734	 1.97966620918536 
1735	 1.97770283077872 
1736	 1.97617216825498 
1737	 1.97497416093654 
1738	 1.97450186680998 
1739	 1.97456009651084 
1740	 1.97351111967974 
1741	 1.97275843974674 
1742	 1.97217547357683 
1743	 1.97250293215062 
1744	 1.97392014498237 
1745	 1.97487685744398 
1746	 1.9747895485745 
1747	 1.97395894508712 
1748	 1.97407787919044 
1749	 1.97421641524604 
1750	 1.97554548208579 
1751	 1.97810993379726 
1752	 1.97837900412984 
1753	 1.97911295170674 
1754	 1.98000525787196 
1755	 1.97898740740223 
1756	 1.97876980657275 
1757	 1.97724932102771 
1758	 1.97640704785467 
1759	 1.97664771129961 
1760	 1.97596515400995 
1761	 1.97487810129059 
1762	 1.97414972717593 
1763	 1.97295437394641 
1764	 1.97165192276856 
1765	 1.9711454056196 
1766	 1.97012953687381 
1767	 1.96820748689255 
1768	 1.96657889551556 
1769	 1.9648179540725 
1770	 1.96309905250031 
1771	 1.96151203527309 
1772	 1.95941241092591 
1773	 1.95750963248089 
1774	 1.95332249979698 
1775	 1.95038921633548 
1776	 1.9484147528125 
1777	 1.94505539899907 
1778	 1.94283773589925 
1779	 1.94090245555876 
1780	 1.9380486659423 
1781	 1.93523368910287 
1782	 1.93157017459097 
1783	 1.92910184204241 
1784	 1.92649989511107 
1785	 1.92435116671364 
1786	 1.92411072432796 
1787	 1.91881929087053 
1788	 1.91183278087693 
1789	 1.90692754970476 
1790	 1.90043219876048 
1791	 1.89536090098177 
1792	 1.89023143693222 
1793	 1.88263760788125 
1794	 1.87458418547611 
1795	 1.86606401687369 
1796	 1.85902610344018 
1797	 1.85338975681371 
1798	 1.84516229460378 
1799	 1.83800458662117 
1800	 1.83110423124168 
1801	 1.80565978696161 
1802	 1.79501558281634 
1803	 1.78395926036117 
1804	 1.76955579747674 
1805	 1.75828026148435 
1806	 1.75095442024382 
1807	 1.73995943649281 
1808	 1.72781548533223 
1809	 1.71551439939719 
1810	 1.70501969628279 
1811	 1.69207284521465 
1812	 1.68315746523748 
1813	 1.68547310004596 
1814	 1.67513919180446 
1815	 1.65342140043582 
1816	 1.64083692556073 
1817	 1.62637436537001 
1818	 1.6119437911671 
1819	 1.60045440228006 
1820	 1.60284166087934 
1821	 1.59479547384343 
1822	 1.57981564718434 
1823	 1.56816659666422 
1824	 1.55708664515453 
1825	 1.54649682812645 
1826	 1.53887934467818 
1827	 1.52356015476524 
1828	 1.50361887844851 
1829	 1.47643865054594 
1830	 1.45413642791888 
1831	 1.41500861963613 
1832	 1.39011533327986 
1833	 1.4278190457173 
1834	 1.40711192036535 
1835	 1.35406314944423 
1836	 1.31051775963504 
1837	 1.23099038228174 
1838	 1.17381387723423 
1839	 1.13062514076868 
1840	 1.08467331668626 
1841	 1.0984591544896 
1842	 1.21801837536794 
1843	 1.21410384748906 
1844	 1.17291651430797 
1845	 1.18357608240747 
1846	 1.14944332196579 
1847	 1.13688439417992 
1848	 1.14852874894748 
1849	 1.25071388255821 
1850	 1.25767617520941 
1851	 1.23911903802507 
1852	 1.19079184597784 
1853	 1.03709102869533 
1854	 1.01577571229333 
1855	 1.01351209311914 
1856	 1.03885571471801 
1857	 1.14763074701029 
1858	 1.2617867390598 
1859	 1.26246613851654 
1860	 1.20927010564086 
1861	 1.19678396827091 
1862	 1.11233549705339 
1863	 1.12190094138682 
1864	 1.23354481789168 
1865	 1.28268673697265 
1866	 1.43488348457231 
1867	 1.4030548039057 
1868	 1.35446726606485 
1869	 1.32265356630012 
1870	 1.30733773756208 
1871	 1.30242400497542 
1872	 1.31738140014345 
1873	 1.37054417441998 
1874	 1.36652037955462 
1875	 1.27496322206877 
1876	 1.28937531896768 
1877	 1.30921955829997 
1878	 1.38450703930912 
1879	 1.42248684085816 
1880	 1.54775592856655 
1881	 1.57670748511623 
1882	 1.56031045382148 
1883	 1.54613472714798 
1884	 1.49397185507707 
1885	 1.48748774797758 
1886	 1.47681121600068 
1887	 1.51642270245922 
1888	 1.52413624853604 
1889	 1.53369446512807 
1890	 1.56308699788865 
1891	 1.59641026740872 
1892	 1.60474080323697 
1893	 1.63841948888193 
1894	 1.64728184280424 
1895	 1.58257139260028 
1896	 1.57675190781283 
1897	 1.6014286904427 
1898	 1.66735321951387 
1899	 1.76749055321247 
1900	 1.77255021547915 
1901	 1.77651394269742 
1902	 1.69918061594747 
1903	 1.68155677368491 
1904	 1.61900499529587 
1905	 1.62536273094912 
1906	 1.68695354694008 
1907	 1.79445847861332 
1908	 1.85594114263492 
1909	 1.90839924601699 
1910	 1.91351199881191 
1911	 1.90473054769548 
1912	 1.91634797923789 
1913	 1.92004089146753 
1914	 1.92557728339073 
1915	 1.93229284542375 
1916	 1.9488068995623 
1917	 1.94385108214152 
1918	 1.99297110987149 
1919	 2.05392473530661 
1920	 2.07215658600898 
1921	 2.06656629189689 
1922	 2.04836020831984 
1923	 2.04146143481255 
1924	 1.99608207408194 
1925	 2.00958210131051 
1926	 2.06586641087394 
1927	 2.10059474180403 
1928	 2.14594923055731 
1929	 2.20051676069575 
1930	 2.20944119591276 
1931	 2.20024841767709 
1932	 2.18756711350973 
1933	 2.18055960545901 
1934	 2.18693807240672 
1935	 2.200851899338 
1936	 2.22072149470039 
1937	 2.25750406963062 
1938	 2.27345048229229 
1939	 2.28597907316022 
1940	 2.29319877614068 
1941	 2.29969521569792 
1942	 2.30096927987744 
1943	 2.3149112823752 
1944	 2.33106052332257 
1945	 2.34155253613291 
1946	 2.34519439259715 
1947	 2.35314492197968 
1948	 2.36554596789626 
1949	 2.37164915245302 
1950	 2.37586086128912 
1951	 2.38342945793009 
1952	 2.37779847725544 
1953	 2.3645215378277 
1954	 2.36271437611336 
1955	 2.36731232777196 
1956	 2.37347777475183 
1957	 2.37857850529568 
1958	 2.38426273193131 
1959	 2.38654871153631 
1960	 2.3904467682382 
1961	 2.39493401486776 
1962	 2.40270021538296 
1963	 2.40837979117825 
1964	 2.41120235549901 
1965	 2.41374429087118 
1966	 2.41451087222604 
1967	 2.41676698449345 
1968	 2.41845851890464 
1969	 2.42035312861503 
1970	 2.42569431319929 
1971	 2.4270993348089 
1972	 2.42601568116981 
1973	 2.42455500034563 
1974	 2.42847541063808 
1975	 2.42891976630314 
1976	 2.42716614466605 
1977	 2.42472482241868 
1978	 2.41670879747091 
1979	 2.41120845884364 
1980	 2.40807971960464 
1981	 2.40695190341283 
1982	 2.40602614937335 
1983	 2.40805156780808 
1984	 2.40260523388519 
1985	 2.40048116867407 
1986	 2.40247556254557 
1987	 2.39862376201447 
1988	 2.39676124802581 
1989	 2.39446463783497 
1990	 2.38736066953003 
1991	 2.38216904632012 
1992	 2.38032206397107 
1993	 2.37991354694596 
1994	 2.3791340510055 
1995	 2.37770848506956 
1996	 2.3768745554679 
1997	 2.37481257574599 
1998	 2.37086705932498 
1999	 2.36495486902603 
2000	 2.36050498474025 
2001	 2.36144008489051 
2002	 2.358646567869 
2003	 2.35852625566748 
2004	 2.36275330894826 
2005	 2.35801789702706 
2006	 2.35509697062975 
2007	 2.35263202322373 
2008	 2.35159417148195 
2009	 2.34841788824043 
2010	 2.35280462863473 
2011	 2.35248625376562 
2012	 2.34741380285278 
2013	 2.3435201362978 
2014	 2.33750007152091 
2015	 2.33760541858987 
2016	 2.34156623265857 
2017	 2.34715963486453 
2018	 2.34854612017107 
2019	 2.34730892888864 
2020	 2.34208884389839 
2021	 2.34108625583768 
2022	 2.34288834160494 
2023	 2.34610936476727 
2024	 2.35327950784807 
2025	 2.3610732165767 
2026	 2.36471869646468 
2027	 2.36731140594224 
2028	 2.37124696266398 
2029	 2.374954091031 
2030	 2.37782552474485 
2031	 2.3826341282401 
2032	 2.38528637414805 
2033	 2.38713117084471 
2034	 2.38552862222312 
2035	 2.38805996692961 
2036	 2.3925075504862 
2037	 2.3956876153069 
2038	 2.40131189705081 
2039	 2.40494069709349 
2040	 2.40478811490136 
2041	 2.4073721713206 
2042	 2.4119775485407 
2043	 2.4144329041018 
2044	 2.41729891583107 
2045	 2.41961819654808 
2046	 2.42062966509492 
2047	 2.41988750164977 
2048	 2.42585174201394 
2049	 2.43108522031637 
2050	 2.43247367349316 
2051	 2.43921900229062 
2052	 2.44241396009818 
2053	 2.44289968125389 
2054	 2.44714226792873 
2055	 2.44666558486226 
2056	 2.446114117024 
2057	 2.44971766743575 
2058	 2.45147503118693 
2059	 2.45354999904931 
2060	 2.45724313937196 
2061	 2.46202658065392 
2062	 2.46398601118149 
2063	 2.46366088216141 
2064	 2.46602541781016 
2065	 2.46617594606112 
2066	 2.46215105955808 
2067	 2.46357683614028 
2068	 2.46532758687897 
2069	 2.46622566691587 
2070	 2.47132066827929 
2071	 2.47576080252081 
2072	 2.47927191912069 
2073	 2.48340671112434 
2074	 2.48647496405974 
2075	 2.48539356310701 
2076	 2.48391130060255 
2077	 2.48333388421013 
2078	 2.48331189457902 
2079	 2.4863154281331 
2080	 2.49012124535468 
2081	 2.49358383665879 
2082	 2.49583152882206 
2083	 2.4926857070336 
2084	 2.4887371858996 
2085	 2.48791962894875 
2086	 2.48994254661044 
2087	 2.4915922581064 
2088	 2.49642863209116 
2089	 2.50131961979021 
2090	 2.50069840830295 
2091	 2.49581179495307 
2092	 2.49600144528878 
2093	 2.49529731225231 
2094	 2.49300662054038 
2095	 2.49369339221468 
2096	 2.48994252456854 
2097	 2.48689252751776 
2098	 2.48760302489463 
2099	 2.48714998730934 
2100	 2.48844371692256 
2101	 2.49018575478513 
2102	 2.49084116393411 
2103	 2.49063891732408 
2104	 2.49197841339477 
2105	 2.49420060713705 
2106	 2.49399065505076 
2107	 2.49511441333845 
2108	 2.49796448736734 
2109	 2.49612561644773 
2110	 2.49538868040399 
2111	 2.49550632802231 
2112	 2.48974242043828 
2113	 2.48410108070975 
2114	 2.48214140950106 
2115	 2.47902950673286 
2116	 2.47900476145001 
2117	 2.47993300133793 
2118	 2.48332954622786 
2119	 2.4837570193738 
2120	 2.48425653395565 
2121	 2.4847502849422 
2122	 2.48285016297845 
2123	 2.48130840182186 
2124	 2.47716243702658 
2125	 2.47544098531068 
2126	 2.47606903814197 
2127	 2.47745558993885 
2128	 2.47978973652278 
2129	 2.48022428124378 
2130	 2.47900418777198 
2131	 2.47776907496165 
2132	 2.47555068953698 
2133	 2.47212858548488 
2134	 2.47107255081997 
2135	 2.47088211312976 
2136	 2.46890553687492 
2137	 2.46836293083184 
2138	 2.47171497876267 
2139	 2.46838986798027 
2140	 2.46588170888643 
2141	 2.46745108260631 
2142	 2.46296228374332 
2143	 2.46159446746932 
2144	 2.4626308113272 
2145	 2.45945104813975 
2146	 2.45978331688863 
2147	 2.46017797876507 
2148	 2.45415996937153 
2149	 2.44822874731493 
2150	 2.44543930444484 
2151	 2.44368655863965 
2152	 2.44436752742122 
2153	 2.44469103973136 
2154	 2.44871850793526 
2155	 2.4461766891292 
2156	 2.43806465574864 
2157	 2.43156563215067 
2158	 2.42359688210182 
2159	 2.41547761430743 
2160	 2.41740517602256 
2161	 2.41799357926227 
2162	 2.41608851559598 
2163	 2.41850889192059 
2164	 2.41736836423068 
2165	 2.41557408001347 
2166	 2.41445238814012 
2167	 2.41327372113535 
2168	 2.41183082194574 
2169	 2.40922335442008 
2170	 2.40656145066088 
2171	 2.40385550830543 
2172	 2.40169710691204 
2173	 2.40089437924009 
2174	 2.39963453109407 
2175	 2.40034518179102 
2176	 2.40064102090167 
2177	 2.3968228016607 
2178	 2.39263096445905 
2179	 2.38684085371114 
2180	 2.38114131916717 
2181	 2.37621869151237 
2182	 2.37295962474724 
2183	 2.3753129758041 
2184	 2.37503277009467 
2185	 2.36949073734787 
2186	 2.36724808306044 
2187	 2.36558233824054 
2188	 2.36136915417076 
2189	 2.3588164063061 
2190	 2.36036554718116 
2191	 2.35859800078025 
2192	 2.35321479415496 
2193	 2.35144077397534 
2194	 2.35069743953887 
2195	 2.3499089341997 
2196	 2.34697805701177 
2197	 2.34053811956824 
2198	 2.33716382695896 
2199	 2.33635409477735 
2200	 2.3378197017179 
2201	 2.34272615034496 
2202	 2.3445363197073 
2203	 2.33746718221666 
2204	 2.33018432617646 
2205	 2.32694303545501 
2206	 2.32167469993257 
2207	 2.32280094848525 
2208	 2.32568095885862 
2209	 2.33229751373645 
2210	 2.33317141288769 
2211	 2.33389147748392 
2212	 2.33829139553494 
2213	 2.33085273246799 
2214	 2.32434066926377 
2215	 2.32186835707674 
2216	 2.31235585517185 
2217	 2.31017515937937 
2218	 2.31430287623639 
2219	 2.31600093624079 
2220	 2.31808291707662 
2221	 2.32320443951117 
2222	 2.32602888524111 
2223	 2.32432276929679 
2224	 2.32532183675356 
2225	 2.32301733262247 
2226	 2.32154944241015 
2227	 2.32508321702984 
2228	 2.32891469140524 
2229	 2.33573302351879 
2230	 2.34104879903305 
2231	 2.34550547345322 
2232	 2.35154638234967 
2233	 2.35494152569553 
2234	 2.35501926445933 
2235	 2.3571240396728 
2236	 2.35881461965648 
2237	 2.36024414016908 
2238	 2.36645252630943 
2239	 2.37134224890434 
2240	 2.37669250447379 
2241	 2.38392712924144 
2242	 2.39179566567086 
2243	 2.3995816920843 
2244	 2.40222250857818 
2245	 2.40888136361271 
2246	 2.41300818935959 
2247	 2.41295753950823 
2248	 2.42473497427606 
2249	 2.43278795023105 
2250	 2.43633314129817 
2251	 2.44739349085039 
2252	 2.45703407043725 
2253	 2.46466979212502 
2254	 2.47995368636863 
2255	 2.49693210054122 
2256	 2.50483667427992 
2257	 2.50575607552922 
2258	 2.51032361458895 
2259	 2.51253164429776 
2260	 2.5070746293685 
2261	 2.50957074560161 
2262	 2.51351575458622 
2263	 2.51763534706026 
2264	 2.52381519043373 
2265	 2.52911473517011 
2266	 2.53811643531736 
2267	 2.54511285155601 
2268	 2.55513065163849 
2269	 2.56904014702206 
2270	 2.57575411216939 
2271	 2.58091031660287 
2272	 2.58114287854953 
2273	 2.58203427498456 
2274	 2.58906458956006 
2275	 2.59133673283723 
2276	 2.591959004898 
2277	 2.59414605478286 
2278	 2.58850007368551 
2279	 2.58239534211942 
2280	 2.58383250529811 
2281	 2.57817923560932 
2282	 2.57975144055114 
2283	 2.59140714395309 
2284	 2.59537705920001 
2285	 2.59784956418603 
2286	 2.60270418398643 
2287	 2.60895097822323 
2288	 2.60649934367542 
2289	 2.60225147556519 
2290	 2.61156344460523 
2291	 2.61399224511558 
2292	 2.61355879936765 
2293	 2.62679356533246 
2294	 2.63214657648894 
2295	 2.62983855890105 
2296	 2.63686319645732 
2297	 2.64035632625221 
2298	 2.64085485886566 
2299	 2.65193316183695 
2300	 2.65735719711574 
2301	 2.66606458445908 
2302	 2.67820316627417 
2303	 2.68313905391066 
2304	 2.68712766348408 
2305	 2.67978638590189 
2306	 2.67172470645711 
2307	 2.67532877405247 
2308	 2.69293729455433 
2309	 2.71590682883312 
2310	 2.72712966315781 
2311	 2.7299446771647 
2312	 2.7234693300993 
2313	 2.71938791365987 
2314	 2.72235761962321 
2315	 2.70818269490204 
2316	 2.6937332159963 
2317	 2.69285555775796 
2318	 2.6913741260859 
2319	 2.69197294649613 
2320	 2.69802834815099 
2321	 2.70498586546675 
2322	 2.7004762195441 
2323	 2.70053750061307 
2324	 2.7102655754465 
2325	 2.7215867080553 
2326	 2.71126501796834 
2327	 2.70862849820078 
2328	 2.7134359116612 
2329	 2.71629875033073 
2330	 2.71894599033879 
2331	 2.72138117159753 
2332	 2.72071346327178 
2333	 2.70499736977335 
2334	 2.7016532738589 
2335	 2.70930664806707 
2336	 2.71200189488598 
2337	 2.72040999644998 
2338	 2.71802221397347 
2339	 2.71143432489033 
2340	 2.70639973002301 
2341	 2.70167231867818 
2342	 2.69842752463064 
2343	 2.6924453682139 
2344	 2.69080724962476 
2345	 2.69344131457629 
2346	 2.71057600692781 
2347	 2.72711932798977 
2348	 2.73141184182206 
2349	 2.73591113910902 
2350	 2.73552572062002 
2351	 2.73126057430653 
2352	 2.73322879404297 
2353	 2.7429301102527 
2354	 2.73807384817527 
2355	 2.73071195067984 
2356	 2.74980830191888 
2357	 2.75790273305621 
2358	 2.74430908889351 
2359	 2.73396082226763 
2360	 2.70377296994713 
2361	 2.68654763991793 
2362	 2.69685816684355 
2363	 2.69097559119897 
2364	 2.68933656728432 
2365	 2.68062183187958 
2366	 2.66307759766488 
2367	 2.67367165363769 
2368	 2.69960163664987 
2369	 2.71653576454198 
2370	 2.73727616914596 
2371	 2.75080387028889 
2372	 2.74742371649736 
2373	 2.71859278616278 
2374	 2.71218233733505 
2375	 2.70060431810683 
2376	 2.69434780435672 
2377	 2.70005565665968 
2378	 2.69180366653457 
2379	 2.67593341179299 
2380	 2.66709648166437 
2381	 2.66030205102773 
2382	 2.66243010551887 
2383	 2.66805188518225 
2384	 2.6725001595456 
2385	 2.68495317489239 
2386	 2.67891765749329 
2387	 2.65933681782305 
2388	 2.65990242743462 
2389	 2.66414289471808 
2390	 2.66860885008967 
2391	 2.69042063652355 
2392	 2.68994309583364 
2393	 2.65987109385942 
2394	 2.66181594673594 
2395	 2.68082389186276 
2396	 2.69175618720747 
2397	 2.73142554930391 
2398	 2.73370683631093 
2399	 2.69187185064314 
2400	 2.68190319452884 
2401	 2.67119748117828 
2402	 2.66104037795706 
2403	 2.68306566383579 
2404	 2.70294756766581 
2405	 2.70552562291217 
2406	 2.69629671172825 
2407	 2.67493803288586 
2408	 2.65626812316977 
2409	 2.64278151510784 
2410	 2.65218534174509 
2411	 2.66285992916106 
2412	 2.66711872387633 
2413	 2.69364386247246 
2414	 2.68282688081559 
2415	 2.67525774316688 
2416	 2.72868253699066 
2417	 2.74891530316976 
2418	 2.75717745409112 
2419	 2.77353616225623 
2420	 2.77572913936208 
2421	 2.78021001083365 
2422	 2.81364644643793 
2423	 2.86155324731345 
2424	 2.8385135184867 
2425	 2.7735125291873 
2426	 2.72909296428864 
2427	 2.71587404888415 
2428	 2.73277925744877 
2429	 2.78671031268624 
2430	 2.84830396516253 
2431	 2.89981660524935 
2432	 2.93540840081396 
2433	 2.94144020123834 
2434	 2.93598411654767 
2435	 2.89431095052316 
2436	 2.87386892553243 
2437	 2.83260403825832 
2438	 2.82518553645642 
2439	 2.83732999526613 
2440	 2.85324590551842 
2441	 2.92549308096875 
2442	 2.94694476398525 
2443	 2.94817335532532 
2444	 2.93511116925991 
2445	 2.83392739683746 
2446	 2.82860048449264 
2447	 2.92472382129858 
2448	 2.94902951567708 
2449	 3.00719073764939 
2450	 3.01732927782878 
2451	 2.84725265752828 
2452	 2.82751669882496 
2453	 2.93332985025947 
2454	 2.95956721422193 
2455	 3.06283471021128 
2456	 3.06042458659313 
2457	 2.92805270843674 
2458	 2.85835142675133 
2459	 2.74903991909023 
2460	 2.7351922878951 
2461	 2.77645136231956 
2462	 2.78072293015834 
2463	 2.83670551136058 
2464	 2.85514093559405 
2465	 2.84037390458337 
2466	 2.85297261801505 
2467	 2.86931040238801 
2468	 2.89505257012069 
2469	 2.93906248394274 
2470	 2.95641659406373 
2471	 2.99514171491703 
2472	 3.00625484863494 
2473	 2.91084205724429 
2474	 2.88934807325284 
2475	 2.88095527348405 
2476	 2.94047533801995 
2477	 3.24540234711133 
2478	 3.30521562152009 
2479	 3.20144027106772 
2480	 3.13613486802585 
2481	 2.78012354063278 
2482	 2.73503376521312 
2483	 3.07529707534997 
2484	 3.15709458584014 
2485	 3.25953773431037 
2486	 2.94412258246055 
2487	 2.48911165795181 
2488	 2.49569071970196 
2489	 2.54003171238021 
2490	 2.79369815231395 
2491	 3.72379179099621 
2492	 3.24523892757349 
2493	 2.86289324994092 
2494	 2.97732069464643 
2495	 2.51092359695216 
2496	 2.83847086694373 
2497	 3.51238490076322 
2498	 3.14221370364383 
2499	 3.30080301208385 
2500	 3.13333563197982 
