Wavelength	ref00076.asd
350	 9.42634995274955E-02 
351	 9.45537882475711E-02 
352	 9.41729588297932E-02 
353	 0.094913028041436 
354	 9.44163265267776E-02 
355	 9.41069334202623E-02 
356	 9.49499910784881E-02 
357	 9.56510155484454E-02 
358	 9.62124350755187E-02 
359	 9.65331902154057E-02 
360	 0.096574527776195 
361	 9.63855668573263E-02 
362	 9.68432697185352E-02 
363	 9.74725772411871E-02 
364	 9.70931629870677E-02 
365	 9.68533047770336E-02 
366	 0.09674572965552 
367	 9.67827384100847E-02 
368	 9.72060450885456E-02 
369	 9.77828621178511E-02 
370	 9.80532678687479E-02 
371	 9.78784200582595E-02 
372	 0.098197877404239 
373	 9.84182852304418E-02 
374	 9.84810336721711E-02 
375	 9.85796491367379E-02 
376	 9.84669857652563E-02 
377	 9.88791317066463E-02 
378	 9.95901656145974E-02 
379	 9.92002696749183E-02 
380	 9.92663269332934E-02 
381	 9.98011145144009E-02 
382	 0.100379233036542 
383	 0.100319625945185 
384	 0.100681516178328 
385	 0.101279857150229 
386	 0.101453151522134 
387	 0.101400845181874 
388	 0.101642223702535 
389	 0.102014486485734 
390	 0.101718585159793 
391	 0.102235385084544 
392	 0.102890238233518 
393	 0.103171471954815 
394	 0.103878996080567 
395	 0.104338532729036 
396	 0.104365891675927 
397	 0.104106542639345 
398	 0.104291246112765 
399	 0.104526904067259 
400	 0.104651276823834 
401	 0.104765292723039 
402	 0.105186077381318 
403	 0.105405212134685 
404	 0.105315817787628 
405	 0.105905008987384 
406	 0.106097520913247 
407	 0.106101927329618 
408	 0.106424324568315 
409	 0.106676343453795 
410	 0.106931511940828 
411	 0.107267895059341 
412	 0.107716715171501 
413	 0.107798938475672 
414	 0.107871528982133 
415	 0.108177410174661 
416	 0.108445996848617 
417	 0.108725294388325 
418	 0.108987038198289 
419	 0.109199082454832 
420	 0.109403661812807 
421	 0.10959331093619 
422	 0.109858115096822 
423	 0.110332361190554 
424	 0.110365909566149 
425	 0.110595004737342 
426	 0.11128585050081 
427	 0.111423566865206 
428	 0.111720302750874 
429	 0.112108435570299 
430	 0.112319479519341 
431	 0.112508390637442 
432	 0.112797954976378 
433	 0.113052178285896 
434	 0.112975966881602 
435	 0.113389730733532 
436	 0.113801349261776 
437	 0.113913000594351 
438	 0.114274755493944 
439	 0.11459318267403 
440	 0.11480263450283 
441	 0.114961448269495 
442	 0.115366508190811 
443	 0.115642042089932 
444	 0.115790850684966 
445	 0.116186604608258 
446	 0.116531459048298 
447	 0.116819132620158 
448	 0.117090188967321 
449	 0.117368053825434 
450	 0.117581084902751 
451	 0.117768062715258 
452	 0.118009185156171 
453	 0.11832154583647 
454	 0.11856616309632 
455	 0.118732841636173 
456	 0.118971767961414 
457	 0.119174866906394 
458	 0.119411104350449 
459	 0.119714194235109 
460	 0.11989891184515 
461	 0.120081627259826 
462	 0.120256216092125 
463	 0.120369856925044 
464	 0.120568879013681 
465	 0.120837976454167 
466	 0.121102190172703 
467	 0.121226102224868 
468	 0.121405948425628 
469	 0.121591220235082 
470	 0.121709663253024 
471	 0.121879619957853 
472	 0.122098042689413 
473	 0.122356446837074 
474	 0.122631769278775 
475	 0.122779804514287 
476	 0.122970700596384 
477	 0.123251909094766 
478	 0.123346904942671 
479	 0.123564126712114 
480	 0.12385685078278 
481	 0.124087123677023 
482	 0.124329009052614 
483	 0.124451554081112 
484	 0.124589153673703 
485	 0.125109213423534 
486	 0.125448982403074 
487	 0.125725605770472 
488	 0.126086925807729 
489	 0.126384977624027 
490	 0.126770339076481 
491	 0.127186029177901 
492	 0.12751958268551 
493	 0.127892091116375 
494	 0.128314282824185 
495	 0.128795665583241 
496	 0.129352719216387 
497	 0.12977546882014 
498	 0.130208641236069 
499	 0.130808714111214 
500	 0.131456258464934 
501	 0.132216757247616 
502	 0.132987190522698 
503	 0.133608679478867 
504	 0.13443975294723 
505	 0.135184780984987 
506	 0.135776546125097 
507	 0.136644751838253 
508	 0.137464973294242 
509	 0.138292458231651 
510	 0.139234834419764 
511	 0.140121925429076 
512	 0.140946412659423 
513	 0.141775404043784 
514	 0.142725897702931 
515	 0.143666085220601 
516	 0.144653117192217 
517	 0.145685160531969 
518	 0.146549432987787 
519	 0.147438523850216 
520	 0.148318603721471 
521	 0.149092480401821 
522	 0.149822542777921 
523	 0.150574708937883 
524	 0.151319182724608 
525	 0.151915818313201 
526	 0.152645482553472 
527	 0.153457675496394 
528	 0.154214110510508 
529	 0.154755853253914 
530	 0.155311253625778 
531	 0.155892241150577 
532	 0.156410385108745 
533	 0.157067440995679 
534	 0.157684368618183 
535	 0.158145299794956 
536	 0.158502237559439 
537	 0.159001540316791 
538	 0.159574746593051 
539	 0.160105054860431 
540	 0.160778166485125 
541	 0.161454336362997 
542	 0.162003639555511 
543	 0.16234907725563 
544	 0.162918636257187 
545	 0.16351374179003 
546	 0.163969503475893 
547	 0.164434451242069 
548	 0.165002031166603 
549	 0.165566308319783 
550	 0.165982842646795 
551	 0.16648806957156 
552	 0.166964881679173 
553	 0.167383479405391 
554	 0.167847368956836 
555	 0.168342559266227 
556	 0.168849260973562 
557	 0.169346583258567 
558	 0.169814100990126 
559	 0.170328553070068 
560	 0.170835652787226 
561	 0.171227956089963 
562	 0.171761257971122 
563	 0.172260185764495 
564	 0.17264374892312 
565	 0.173085523288079 
566	 0.173587328119915 
567	 0.17405281627079 
568	 0.174394678723312 
569	 0.174752735915893 
570	 0.175127805326925 
571	 0.175490368432374 
572	 0.175794883680483 
573	 0.176103016128248 
574	 0.176476623273515 
575	 0.176897977960501 
576	 0.177134793055008 
577	 0.177387869666239 
578	 0.177658466778213 
579	 0.17787510975086 
580	 0.178167569604639 
581	 0.178430667694948 
582	 0.178616830452707 
583	 0.178780257831627 
584	 0.179044149474457 
585	 0.179319332125969 
586	 0.179518331635426 
587	 0.179789297533213 
588	 0.180167526982236 
589	 0.180547808970239 
590	 0.180743924787144 
591	 0.181032830162445 
592	 0.181285469257919 
593	 0.181414502344612 
594	 0.181484726045012 
595	 0.181567556360837 
596	 0.181626251212495 
597	 0.18162922404571 
598	 0.181776489719614 
599	 0.181957525082169 
600	 0.18211041194804 
601	 0.182238152424876 
602	 0.182373880446381 
603	 0.18248981705595 
604	 0.182572369488224 
605	 0.182679228844232 
606	 0.182770342635559 
607	 0.182837873733435 
608	 0.182901652247936 
609	 0.183066125365567 
610	 0.183209134168647 
611	 0.183270990786103 
612	 0.183309999877927 
613	 0.183378611004385 
614	 0.183424498879874 
615	 0.183405710314227 
616	 0.183437804514408 
617	 0.183465437096228 
618	 0.183486080119451 
619	 0.183527336362153 
620	 0.183487418602104 
621	 0.183489871369329 
622	 0.183616221493837 
623	 0.183820786352887 
624	 0.183960222545535 
625	 0.184106617788519 
626	 0.184365576407734 
627	 0.184566041126756 
628	 0.184767388844534 
629	 0.184950876440772 
630	 0.185023746304862 
631	 0.185233367893574 
632	 0.185413275100285 
633	 0.185470074133414 
634	 0.185727655511626 
635	 0.185859796893804 
636	 0.185860267123203 
637	 0.185847860205613 
638	 0.185712471217225 
639	 0.185548892647274 
640	 0.185345860041237 
641	 0.184946591820583 
642	 0.184627118554882 
643	 0.184249410502458 
644	 0.183700822584934 
645	 0.183302416582447 
646	 0.182963350325383 
647	 0.182615033709082 
648	 0.182215270979442 
649	 0.181862432152682 
650	 0.18156145966445 
651	 0.181342193346777 
652	 0.181279121984613 
653	 0.181266281028374 
654	 0.181265146035909 
655	 0.181277369734832 
656	 0.181401297453513 
657	 0.181404086020262 
658	 0.181216062800683 
659	 0.180919733694679 
660	 0.180544772745884 
661	 0.180066038865749 
662	 0.179486635019673 
663	 0.178840447189667 
664	 0.178318659020051 
665	 0.177799791512466 
666	 0.177126730662524 
667	 0.17658905984575 
668	 0.176124614123902 
669	 0.175718259545351 
670	 0.175406923856288 
671	 0.175278703237604 
672	 0.175238386093297 
673	 0.175200958785381 
674	 0.175170707854939 
675	 0.175301316010657 
676	 0.175541662094601 
677	 0.175757088868326 
678	 0.175893298313083 
679	 0.176021446501318 
680	 0.176246252625224 
681	 0.176685236469648 
682	 0.177211667420545 
683	 0.177869967869252 
684	 0.178765614974387 
685	 0.180089750302753 
686	 0.181572145772305 
687	 0.183436194087877 
688	 0.185870309523089 
689	 0.188309848078501 
690	 0.190831495581706 
691	 0.193560670795953 
692	 0.196390017523897 
693	 0.199430370074535 
694	 0.202442803145061 
695	 0.205154022849545 
696	 0.207492949998856 
697	 0.209680109653472 
698	 0.211864983561659 
699	 0.214097996107803 
700	 0.21619520222245 
701	 0.2181502118034 
702	 0.219951173844397 
703	 0.221560272660154 
704	 0.22287431494735 
705	 0.224158515653056 
706	 0.22558210429322 
707	 0.22681323311669 
708	 0.227962224257957 
709	 0.229065356229412 
710	 0.230124082230198 
711	 0.231183209948195 
712	 0.232150333074866 
713	 0.233036033556708 
714	 0.233982838758682 
715	 0.235077252397259 
716	 0.236486516993636 
717	 0.238267233267542 
718	 0.240031192437236 
719	 0.241163798609106 
720	 0.241485445354342 
721	 0.241353916400202 
722	 0.241500916416638 
723	 0.242331785551504 
724	 0.243634245966399 
725	 0.244442964178186 
726	 0.245111796971077 
727	 0.245615459287918 
728	 0.24600753343539 
729	 0.246649794281685 
730	 0.247127441313797 
731	 0.247399892008352 
732	 0.247564245767421 
733	 0.247508744585046 
734	 0.247629157125159 
735	 0.247993782196049 
736	 0.248366531642819 
737	 0.248846501624669 
738	 0.249360295126686 
739	 0.249794320436561 
740	 0.249959427387197 
741	 0.250323987859709 
742	 0.250784796882414 
743	 0.25112156967545 
744	 0.251590912368336 
745	 0.252035060095149 
746	 0.252434323365376 
747	 0.252873116142416 
748	 0.253243998513337 
749	 0.253648386448709 
750	 0.254113968539287 
751	 0.254499724593052 
752	 0.254842695829245 
753	 0.255272497632809 
754	 0.25582556235553 
755	 0.256122755232669 
756	 0.256443044142851 
757	 0.256820523581725 
758	 0.257163022514299 
759	 0.257609351708196 
760	 0.258152519814917 
761	 0.25874522055804 
762	 0.259209735564996 
763	 0.259499944726708 
764	 0.259819733058717 
765	 0.260217326859692 
766	 0.26048161461873 
767	 0.260771704183359 
768	 0.261116319828194 
769	 0.26149015630965 
770	 0.261790162402048 
771	 0.262196941319002 
772	 0.262659679104148 
773	 0.26295768958031 
774	 0.263411643903189 
775	 0.263830324285342 
776	 0.264092085628123 
777	 0.264324702323175 
778	 0.264606920755661 
779	 0.264939282952328 
780	 0.265317139397912 
781	 0.265858697840336 
782	 0.266222783299944 
783	 0.266498339950089 
784	 0.266957867401821 
785	 0.267329385695077 
786	 0.267810117469844 
787	 0.268412373251587 
788	 0.268916982585018 
789	 0.269374761662461 
790	 0.269777587911148 
791	 0.270107719527683 
792	 0.270322800783955 
793	 0.270773746854011 
794	 0.27118866432024 
795	 0.271323107595915 
796	 0.271906045766642 
797	 0.272432808070347 
798	 0.272795433043155 
799	 0.273150789955294 
800	 0.273588014418015 
801	 0.274053699913402 
802	 0.274510087239008 
803	 0.274958952711545 
804	 0.275274675029198 
805	 0.275624415907758 
806	 0.27606840796209 
807	 0.276325046873168 
808	 0.276697322565303 
809	 0.277248616177951 
810	 0.277944350171805 
811	 0.278725456891774 
812	 0.279513169322459 
813	 0.280459391740736 
814	 0.281724362583164 
815	 0.282505626380234 
816	 0.283127285704659 
817	 0.283675120661662 
818	 0.283881754442718 
819	 0.283776929735639 
820	 0.28367649166204 
821	 0.283876396134633 
822	 0.284572634037751 
823	 0.285199192603257 
824	 0.285489896263152 
825	 0.285468667424728 
826	 0.285650080544101 
827	 0.285970468807574 
828	 0.286373766947119 
829	 0.286769946781595 
830	 0.287035708352954 
831	 0.287262799424046 
832	 0.287453410262393 
833	 0.287567169728361 
834	 0.287904199890316 
835	 0.288158113997122 
836	 0.288249739538272 
837	 0.288444116116635 
838	 0.288699842115736 
839	 0.288934658766736 
840	 0.289124599010874 
841	 0.289383036748067 
842	 0.28965498230265 
843	 0.289906402145752 
844	 0.290139349231289 
845	 0.290439149993796 
846	 0.290930322933765 
847	 0.291330995020456 
848	 0.29138253886916 
849	 0.291953904709052 
850	 0.292448624069741 
851	 0.292656349170911 
852	 0.292771503896147 
853	 0.293195437776779 
854	 0.293624675075761 
855	 0.293931823753831 
856	 0.294272359626194 
857	 0.294513044539846 
858	 0.294834137735122 
859	 0.295297354378433 
860	 0.295699566550807 
861	 0.296173027646537 
862	 0.296432840605745 
863	 0.296407101124044 
864	 0.296788023553992 
865	 0.297359458399064 
866	 0.297856146874991 
867	 0.298134102314921 
868	 0.298637560083457 
869	 0.29911246968162 
870	 0.299425615220822 
871	 0.299605120565365 
872	 0.300085963040058 
873	 0.300417240919952 
874	 0.300694399649567 
875	 0.301332339004019 
876	 0.301843960504035 
877	 0.30207233145595 
878	 0.302171518100522 
879	 0.302526074369286 
880	 0.302909940877111 
881	 0.303385470677452 
882	 0.303845194221753 
883	 0.303950900341709 
884	 0.304414065943888 
885	 0.304948344566939 
886	 0.305342204642544 
887	 0.305899879445087 
888	 0.306484137547971 
889	 0.307147507462098 
890	 0.307853454434814 
891	 0.308192649683852 
892	 0.309229222904739 
893	 0.3102898405306 
894	 0.310643764256595 
895	 0.3115409100538 
896	 0.312600371017315 
897	 0.313650790210963 
898	 0.314593400514519 
899	 0.31531351346209 
900	 0.315977515095098 
901	 0.316393593010063 
902	 0.316365741121722 
903	 0.316626736516124 
904	 0.316776052542096 
905	 0.316949799938312 
906	 0.317561487209912 
907	 0.318285065393405 
908	 0.319195272219812 
909	 0.320124420205488 
910	 0.320712609001665 
911	 0.320974663027091 
912	 0.321464808437012 
913	 0.322213569524478 
914	 0.322716799082568 
915	 0.323094255012672 
916	 0.323025524363968 
917	 0.322860658452607 
918	 0.323522542814122 
919	 0.323171972615785 
920	 0.322910135478013 
921	 0.323256580235895 
922	 0.323453257531241 
923	 0.323983240770732 
924	 0.324648846982688 
925	 0.325398658890643 
926	 0.326576442765919 
927	 0.328117953877301 
928	 0.329495514200035 
929	 0.330760629741288 
930	 0.333241423296166 
931	 0.335424704313163 
932	 0.33746974065128 
933	 0.339460822734336 
934	 0.34039149517457 
935	 0.341944349055662 
936	 0.343313417476128 
937	 0.343539514326842 
938	 0.342808844766149 
939	 0.342138504638302 
940	 0.341968563188648 
941	 0.342065666958437 
942	 0.341347404393586 
943	 0.341510908381405 
944	 0.342242632653756 
945	 0.343015875456134 
946	 0.344019432198958 
947	 0.344200203850168 
948	 0.344131042318383 
949	 0.344603189496135 
950	 0.345844388520297 
951	 0.344954448883921 
952	 0.344533372682375 
953	 0.346118878190015 
954	 0.346232210343735 
955	 0.346181974173086 
956	 0.346524075413069 
957	 0.347103905808799 
958	 0.34677923487771 
959	 0.345873916762902 
960	 0.345363466841209 
961	 0.34573610973817 
962	 0.346326173128443 
963	 0.344964070931576 
964	 0.343733054078512 
965	 0.343756531722819 
966	 0.342995723254714 
967	 0.343396508597262 
968	 0.343308660248729 
969	 0.342174428595654 
970	 0.342124012206698 
971	 0.341837816605868 
972	 0.342196314146967 
973	 0.343242112158359 
974	 0.343393566242071 
975	 0.344096147769617 
976	 0.344393280881623 
977	 0.343507082723019 
978	 0.341744589860821 
979	 0.342306707225085 
980	 0.342706255902501 
981	 0.34221349014454 
982	 0.342772585092863 
983	 0.342714230638512 
984	 0.341947158267791 
985	 0.341487462018467 
986	 0.342587673288284 
987	 0.342086176669218 
988	 0.342854523625336 
989	 0.344393694539395 
990	 0.343916353952296 
991	 0.344597387084801 
992	 0.34475246598669 
993	 0.344722249576757 
994	 0.345625574875716 
995	 0.344559504339528 
996	 0.344305989379537 
997	 0.345137682575899 
998	 0.345869540077692 
999	 0.345842338170365 
1000	 0.346313715109006 
1001	 0.34582902051952 
1002	 0.346136689249535 
1003	 0.346325606623981 
1004	 0.346374091856329 
1005	 0.34662481386458 
1006	 0.346986392855689 
1007	 0.347233921933374 
1008	 0.347548938719723 
1009	 0.347812599472668 
1010	 0.348005427408573 
1011	 0.348092022642566 
1012	 0.348299039841965 
1013	 0.348624895822484 
1014	 0.348955098432893 
1015	 0.349321249974526 
1016	 0.349685375037506 
1017	 0.350013652304959 
1018	 0.35033048879302 
1019	 0.350682771376209 
1020	 0.35088725579462 
1021	 0.350938418436572 
1022	 0.351151398888107 
1023	 0.351371033410062 
1024	 0.351520986122086 
1025	 0.351861010726449 
1026	 0.352293431634032 
1027	 0.352593936543098 
1028	 0.352902082617589 
1029	 0.353116176488197 
1030	 0.353165040768695 
1031	 0.353325784376969 
1032	 0.353663711522271 
1033	 0.354018185985086 
1034	 0.354572802895261 
1035	 0.35498096518973 
1036	 0.355392793532186 
1037	 0.355695813547658 
1038	 0.355910548402536 
1039	 0.356118594369609 
1040	 0.356277962294524 
1041	 0.356378462432447 
1042	 0.356609686601313 
1043	 0.356889839348886 
1044	 0.357169134665309 
1045	 0.357443478402828 
1046	 0.357671913486839 
1047	 0.357843072776814 
1048	 0.357923519770923 
1049	 0.358123750912569 
1050	 0.358370296779341 
1051	 0.358619939898542 
1052	 0.358912939823987 
1053	 0.359342733508038 
1054	 0.359626484069979 
1055	 0.359779238044163 
1056	 0.359936584440398 
1057	 0.360083529112715 
1058	 0.360294176333037 
1059	 0.360498752126473 
1060	 0.360641334647013 
1061	 0.360869221985017 
1062	 0.361018629231332 
1063	 0.361217641722754 
1064	 0.361497307010614 
1065	 0.361746604835146 
1066	 0.361946422009825 
1067	 0.362321561561833 
1068	 0.362596076353061 
1069	 0.362805349823668 
1070	 0.36319422508471 
1071	 0.363348815930575 
1072	 0.363485773280682 
1073	 0.363899290279119 
1074	 0.364186217190811 
1075	 0.36442862901962 
1076	 0.364829825577033 
1077	 0.365160586222358 
1078	 0.365391188848118 
1079	 0.365613770327444 
1080	 0.365894866849317 
1081	 0.366194768844565 
1082	 0.36646544413847 
1083	 0.366797796081946 
1084	 0.36718891988544 
1085	 0.367485865102859 
1086	 0.367863172322332 
1087	 0.368310794511875 
1088	 0.368727171002831 
1089	 0.369204375483414 
1090	 0.369593370251975 
1091	 0.369894540052669 
1092	 0.370313726114969 
1093	 0.370838238456164 
1094	 0.371431185332814 
1095	 0.372001965803592 
1096	 0.372609388591931 
1097	 0.373279961923518 
1098	 0.373924512008574 
1099	 0.374554824312233 
1100	 0.375235761490094 
1101	 0.37589680830899 
1102	 0.376499889166841 
1103	 0.377175732102186 
1104	 0.377919909008488 
1105	 0.37869768963208 
1106	 0.379540724796443 
1107	 0.380450813209094 
1108	 0.381331748435985 
1109	 0.382387518650374 
1110	 0.383669155540571 
1111	 0.384976431307065 
1112	 0.386469182079042 
1113	 0.38805149781184 
1114	 0.389791941676274 
1115	 0.391660297899205 
1116	 0.393780150042996 
1117	 0.395942490163693 
1118	 0.398127510504967 
1119	 0.400233099812998 
1120	 0.402148980765996 
1121	 0.403884263436138 
1122	 0.405335180242092 
1123	 0.406548909511147 
1124	 0.407564806744612 
1125	 0.408421254703229 
1126	 0.408984741594176 
1127	 0.409467220822326 
1128	 0.409442467103981 
1129	 0.408829867573809 
1130	 0.408324927071791 
1131	 0.407481152703443 
1132	 0.406920663681493 
1133	 0.40638139988195 
1134	 0.405998093498312 
1135	 0.405673411128925 
1136	 0.405278830030012 
1137	 0.405063377571051 
1138	 0.405096646467676 
1139	 0.405298860285972 
1140	 0.405741290546403 
1141	 0.406291197215547 
1142	 0.406766561318916 
1143	 0.407181784756919 
1144	 0.407682922876263 
1145	 0.407904065178766 
1146	 0.407980141442235 
1147	 0.407987672212278 
1148	 0.40795255592582 
1149	 0.407687634236863 
1150	 0.407324364022883 
1151	 0.406754085726525 
1152	 0.40603555587747 
1153	 0.405115095963193 
1154	 0.404080193564612 
1155	 0.403199447419995 
1156	 0.402275419352479 
1157	 0.401321931420394 
1158	 0.400475412276754 
1159	 0.399687254163914 
1160	 0.399039137704652 
1161	 0.398431768677939 
1162	 0.39798946575701 
1163	 0.397689335987814 
1164	 0.397404457175417 
1165	 0.397233741221216 
1166	 0.397001945802366 
1167	 0.396737864432035 
1168	 0.396560569555887 
1169	 0.396382600806568 
1170	 0.396241016469127 
1171	 0.39626778290598 
1172	 0.396353342450888 
1173	 0.396404306692242 
1174	 0.396482881081762 
1175	 0.3966017259983 
1176	 0.396725932761101 
1177	 0.396896292010525 
1178	 0.397169961380898 
1179	 0.397369230025511 
1180	 0.397568445250764 
1181	 0.397745731822128 
1182	 0.39789916865822 
1183	 0.398057962546787 
1184	 0.398230280352548 
1185	 0.39833729874686 
1186	 0.398383046989519 
1187	 0.398473281273182 
1188	 0.398560803533062 
1189	 0.398594288668656 
1190	 0.3987211989673 
1191	 0.398899636321409 
1192	 0.398951245676164 
1193	 0.398992974452123 
1194	 0.399095702044135 
1195	 0.399177406902937 
1196	 0.399269767705398 
1197	 0.399409760771273 
1198	 0.399582792261781 
1199	 0.3997658886766 
1200	 0.399929684751792 
1201	 0.400164567975921 
1202	 0.400347350324732 
1203	 0.400414630840467 
1204	 0.400573311743951 
1205	 0.400837607312376 
1206	 0.401009285132737 
1207	 0.401187902762972 
1208	 0.401316402327748 
1209	 0.401406425005332 
1210	 0.40138839635141 
1211	 0.401431391869574 
1212	 0.401483650027682 
1213	 0.401518245579354 
1214	 0.401514481149304 
1215	 0.401630952736268 
1216	 0.401799453828774 
1217	 0.401939878579241 
1218	 0.402201099483363 
1219	 0.402331366377322 
1220	 0.402345697393487 
1221	 0.402406573356481 
1222	 0.402479211042894 
1223	 0.402506008630974 
1224	 0.402470830012877 
1225	 0.402511854375895 
1226	 0.402557003596829 
1227	 0.40259822751558 
1228	 0.402647109296628 
1229	 0.402778389718493 
1230	 0.40286632708033 
1231	 0.403015166048312 
1232	 0.40310845198104 
1233	 0.403202363812323 
1234	 0.403347348777183 
1235	 0.403459510609682 
1236	 0.403632950092518 
1237	 0.403902269757304 
1238	 0.404147658172425 
1239	 0.404404737340086 
1240	 0.404624998811846 
1241	 0.404890338469878 
1242	 0.405077965067876 
1243	 0.405162426653973 
1244	 0.405311590180122 
1245	 0.405450256225016 
1246	 0.405609019095529 
1247	 0.405825378034183 
1248	 0.405996657690186 
1249	 0.40614572726788 
1250	 0.406303840824386 
1251	 0.40647938841969 
1252	 0.406580739141206 
1253	 0.406723063553215 
1254	 0.406871712393783 
1255	 0.40703923442558 
1256	 0.407214143698615 
1257	 0.407391620122007 
1258	 0.407589434462202 
1259	 0.407795261214708 
1260	 0.407992790551895 
1261	 0.408215079591221 
1262	 0.408479468671776 
1263	 0.408718387617614 
1264	 0.408975447170763 
1265	 0.409188083658968 
1266	 0.409328633080099 
1267	 0.409543804718742 
1268	 0.409765667329813 
1269	 0.409989152085273 
1270	 0.410278471964232 
1271	 0.410526551733265 
1272	 0.410736584151975 
1273	 0.410947985657024 
1274	 0.411132272939083 
1275	 0.411286058124308 
1276	 0.411490787450136 
1277	 0.411699718491548 
1278	 0.411897484244316 
1279	 0.412132938066176 
1280	 0.412333394584672 
1281	 0.412480317725359 
1282	 0.412677802904371 
1283	 0.412893957348724 
1284	 0.413119061532141 
1285	 0.413371515129287 
1286	 0.41360372997782 
1287	 0.413799038494124 
1288	 0.414067176172137 
1289	 0.414367221536748 
1290	 0.414669750694166 
1291	 0.415049696532448 
1292	 0.415386885226458 
1293	 0.415673183755799 
1294	 0.416000508191259 
1295	 0.416279198607125 
1296	 0.416699623007433 
1297	 0.417063974916647 
1298	 0.41744452238665 
1299	 0.417855604769747 
1300	 0.418287404002903 
1301	 0.418711702570781 
1302	 0.419167441639721 
1303	 0.419616937407002 
1304	 0.420028577390331 
1305	 0.420519411672859 
1306	 0.421057445095696 
1307	 0.421614690973486 
1308	 0.422240075360677 
1309	 0.422826870378437 
1310	 0.423446183626414 
1311	 0.424009972724972 
1312	 0.424555818580231 
1313	 0.425065152832284 
1314	 0.425495176325072 
1315	 0.425965963141244 
1316	 0.426402766414953 
1317	 0.426877363811566 
1318	 0.427385337791514 
1319	 0.427904734120727 
1320	 0.428438194543247 
1321	 0.429007814292925 
1322	 0.429592184523991 
1323	 0.430142925788873 
1324	 0.430940313587969 
1325	 0.431885106941646 
1326	 0.432831656407577 
1327	 0.434081168842997 
1328	 0.435013211131641 
1329	 0.435806375687684 
1330	 0.436630515655766 
1331	 0.437355699928643 
1332	 0.438065109924371 
1333	 0.438808926814168 
1334	 0.439383186033028 
1335	 0.439629211894382 
1336	 0.440192394980145 
1337	 0.440786826951044 
1338	 0.441495748755401 
1339	 0.442454427558244 
1340	 0.443507458586249 
1341	 0.444712998725548 
1342	 0.446080900343017 
1343	 0.447984323369548 
1344	 0.449950281351888 
1345	 0.452365063336827 
1346	 0.455111866297465 
1347	 0.458205860078341 
1348	 0.461582059987851 
1349	 0.465318679731637 
1350	 0.469693411686246 
1351	 0.474430828462239 
1352	 0.479466546099641 
1353	 0.48585937166966 
1354	 0.492388894382658 
1355	 0.500888240700332 
1356	 0.507800483731152 
1357	 0.520118670650729 
1358	 0.528734173799731 
1359	 0.546361135247319 
1360	 0.564234327311727 
1361	 0.59287206424067 
1362	 0.605878799000311 
1363	 0.630211294675464 
1364	 0.628506052657541 
1365	 0.634567449697398 
1366	 0.625915239235461 
1367	 0.622427117549502 
1368	 0.61500945769098 
1369	 0.616079574061839 
1370	 0.62104161955483 
1371	 0.623633016237372 
1372	 0.631066546387619 
1373	 0.633152916332578 
1374	 0.629961442039451 
1375	 0.631761664070876 
1376	 0.627452044716065 
1377	 0.61904681950176 
1378	 0.618039001298278 
1379	 0.61763347085894 
1380	 0.616846831398985 
1381	 0.621534443153901 
1382	 0.621599891618965 
1383	 0.617876091547197 
1384	 0.615964237326546 
1385	 0.614300868435988 
1386	 0.613975414205929 
1387	 0.61544453877178 
1388	 0.612984984055644 
1389	 0.61162490397975 
1390	 0.606969177812296 
1391	 0.598210461081903 
1392	 0.592449002853271 
1393	 0.586909493124494 
1394	 0.581591508650699 
1395	 0.577024504452218 
1396	 0.572422773965072 
1397	 0.567817961215894 
1398	 0.563404669719476 
1399	 0.558317148366268 
1400	 0.554702530421813 
1401	 0.553154336899974 
1402	 0.549524751139467 
1403	 0.547716194028812 
1404	 0.542837073191079 
1405	 0.535321471583293 
1406	 0.528754547058347 
1407	 0.521940033974299 
1408	 0.516440580874182 
1409	 0.513104994291819 
1410	 0.508545042163548 
1411	 0.5043818406542 
1412	 0.501156011655688 
1413	 0.496275856735658 
1414	 0.490135985182499 
1415	 0.486741285415483 
1416	 0.483700436123427 
1417	 0.480772565339368 
1418	 0.479632346210097 
1419	 0.476609160726528 
1420	 0.47238067353393 
1421	 0.469262555228379 
1422	 0.465857876527797 
1423	 0.46349923465864 
1424	 0.461799567057221 
1425	 0.459927510990363 
1426	 0.458445725835051 
1427	 0.45669417184265 
1428	 0.454199866702125 
1429	 0.452831931619602 
1430	 0.451871370070216 
1431	 0.450991820625337 
1432	 0.450834269505953 
1433	 0.450377624859197 
1434	 0.449627741957502 
1435	 0.449215138292765 
1436	 0.449250031249495 
1437	 0.448852222777919 
1438	 0.448564867377162 
1439	 0.44792226610117 
1440	 0.446991227577667 
1441	 0.445882364135464 
1442	 0.444694296643233 
1443	 0.443180323860596 
1444	 0.441672288907798 
1445	 0.440243489128827 
1446	 0.43883772158769 
1447	 0.437516812282922 
1448	 0.436238398370772 
1449	 0.435073948817458 
1450	 0.433696749599022 
1451	 0.432250149222201 
1452	 0.431039021893031 
1453	 0.429703942133534 
1454	 0.428740964278023 
1455	 0.427992324066687 
1456	 0.427370702387437 
1457	 0.426695161071094 
1458	 0.426450867290719 
1459	 0.426497348899847 
1460	 0.426578175227019 
1461	 0.426940199984332 
1462	 0.427266949890298 
1463	 0.427520041038815 
1464	 0.428128294287584 
1465	 0.429183416324944 
1466	 0.429977285536966 
1467	 0.431062090352751 
1468	 0.431750390146804 
1469	 0.432162145001034 
1470	 0.432334177399794 
1471	 0.432202076193274 
1472	 0.432004237509776 
1473	 0.431437443606422 
1474	 0.431050135448532 
1475	 0.430750176186787 
1476	 0.430339969184507 
1477	 0.429943849568572 
1478	 0.429465109585161 
1479	 0.428817032590971 
1480	 0.428297436859954 
1481	 0.427956739174452 
1482	 0.427375763797485 
1483	 0.426777817638752 
1484	 0.426091338627965 
1485	 0.42520381332925 
1486	 0.424352710221338 
1487	 0.423549299327572 
1488	 0.422651668517778 
1489	 0.421848507003733 
1490	 0.421122421007778 
1491	 0.420258705125268 
1492	 0.419617595094942 
1493	 0.419044108007108 
1494	 0.418366860563557 
1495	 0.417907948658542 
1496	 0.417594197178389 
1497	 0.417300554614216 
1498	 0.417078018064335 
1499	 0.416847098248325 
1500	 0.416628348198401 
1501	 0.416534783496093 
1502	 0.416483026479043 
1503	 0.416445000779444 
1504	 0.416540458280076 
1505	 0.416559820768929 
1506	 0.416510358077833 
1507	 0.416546532203191 
1508	 0.416636290466933 
1509	 0.416684143350245 
1510	 0.416786716310455 
1511	 0.416781200131522 
1512	 0.416668222594163 
1513	 0.416687931006546 
1514	 0.416705102490252 
1515	 0.416732227849381 
1516	 0.416858016003574 
1517	 0.416925015593561 
1518	 0.416944505067379 
1519	 0.41697431847554 
1520	 0.417018922511482 
1521	 0.417055039311429 
1522	 0.417024860442874 
1523	 0.417090128502012 
1524	 0.417232125789718 
1525	 0.417330632255087 
1526	 0.417437686001063 
1527	 0.417580456692304 
1528	 0.417710126764936 
1529	 0.417869988473132 
1530	 0.418096254764986 
1531	 0.418297197991009 
1532	 0.418464056774603 
1533	 0.41868441671265 
1534	 0.41898445685722 
1535	 0.419203415769171 
1536	 0.419352617750614 
1537	 0.41959565368171 
1538	 0.419890254398916 
1539	 0.420108306062224 
1540	 0.420408168445622 
1541	 0.420607485833016 
1542	 0.420606220068402 
1543	 0.420718324226071 
1544	 0.420854959450573 
1545	 0.42101262392329 
1546	 0.421220422261924 
1547	 0.421436610140163 
1548	 0.421716850891585 
1549	 0.421919655705652 
1550	 0.422061590600704 
1551	 0.422256144940347 
1552	 0.422434516991128 
1553	 0.422610169811631 
1554	 0.422872068093363 
1555	 0.423063809224871 
1556	 0.423142986008962 
1557	 0.423286527836702 
1558	 0.423455450185279 
1559	 0.423606635772907 
1560	 0.423796517062334 
1561	 0.423964008700409 
1562	 0.424101839784624 
1563	 0.424228674136725 
1564	 0.424338917097391 
1565	 0.424440131568445 
1566	 0.424553629351027 
1567	 0.424788530118684 
1568	 0.425020036825601 
1569	 0.425363108566735 
1570	 0.42554666413442 
1571	 0.425676181925111 
1572	 0.425843289513945 
1573	 0.42594514820669 
1574	 0.426109147188935 
1575	 0.426357492684438 
1576	 0.426470778450482 
1577	 0.426480323955384 
1578	 0.426656795577569 
1579	 0.426835113569434 
1580	 0.427064830479533 
1581	 0.427448260120885 
1582	 0.427662897639346 
1583	 0.427791788874852 
1584	 0.427982096354775 
1585	 0.428133186571083 
1586	 0.428369719661687 
1587	 0.428644441911781 
1588	 0.428967648368833 
1589	 0.429362919736043 
1590	 0.4297079675661 
1591	 0.430109213790721 
1592	 0.430394647212044 
1593	 0.430596755160759 
1594	 0.430852225996784 
1595	 0.431053024888425 
1596	 0.431350378428118 
1597	 0.431729125168404 
1598	 0.432045532690714 
1599	 0.432367698062006 
1600	 0.43269307194072 
1601	 0.432986726710219 
1602	 0.433330929296932 
1603	 0.433733552696557 
1604	 0.434069236155866 
1605	 0.434404512495199 
1606	 0.434686892324442 
1607	 0.434884251754717 
1608	 0.435183704325139 
1609	 0.43550336852421 
1610	 0.435804513227038 
1611	 0.436154477957404 
1612	 0.436466496538944 
1613	 0.436754715615457 
1614	 0.437006174065329 
1615	 0.437247155703172 
1616	 0.437465867374377 
1617	 0.437598105045859 
1618	 0.437834935357783 
1619	 0.438147357241468 
1620	 0.438384140969814 
1621	 0.438634186373071 
1622	 0.438837697777588 
1623	 0.438974578659623 
1624	 0.439136449106278 
1625	 0.439277375970506 
1626	 0.439492352735892 
1627	 0.439746795262125 
1628	 0.439958085255728 
1629	 0.44019484960704 
1630	 0.440448570830253 
1631	 0.440707408616815 
1632	 0.440859418212048 
1633	 0.441029023509008 
1634	 0.441129211264498 
1635	 0.44104697549283 
1636	 0.441158452438774 
1637	 0.441359562363289 
1638	 0.44152283711921 
1639	 0.44177967766671 
1640	 0.441838383705878 
1641	 0.441761482028219 
1642	 0.441820114498521 
1643	 0.441825768341733 
1644	 0.441905854850678 
1645	 0.442170153261462 
1646	 0.442172375514183 
1647	 0.441979722029109 
1648	 0.442013651290261 
1649	 0.442070240641417 
1650	 0.442080945695794 
1651	 0.442241952600821 
1652	 0.44218784717668 
1653	 0.441897317609739 
1654	 0.44187518593696 
1655	 0.441952936650443 
1656	 0.441902934644126 
1657	 0.44188948009939 
1658	 0.441762757470127 
1659	 0.441656597130232 
1660	 0.441527930221079 
1661	 0.44155176203102 
1662	 0.441487302521418 
1663	 0.441402339128796 
1664	 0.441499949854378 
1665	 0.441610973540609 
1666	 0.441747353104686 
1667	 0.441775265898147 
1668	 0.441725429537005 
1669	 0.44176265653456 
1670	 0.441836032830031 
1671	 0.441916356786096 
1672	 0.442056284414212 
1673	 0.442093208934477 
1674	 0.442089784005638 
1675	 0.442229313309329 
1676	 0.44217642202951 
1677	 0.442045578985133 
1678	 0.442041476117644 
1679	 0.441974386367732 
1680	 0.442060584837276 
1681	 0.442243926733448 
1682	 0.442214180347874 
1683	 0.442134206139304 
1684	 0.441982214233182 
1685	 0.441886382025812 
1686	 0.441971493095492 
1687	 0.441983596373967 
1688	 0.441965780048674 
1689	 0.442035385486196 
1690	 0.44217212170434 
1691	 0.442150597364681 
1692	 0.442029784143809 
1693	 0.441977266911584 
1694	 0.441835312604482 
1695	 0.44174898551107 
1696	 0.441784408110636 
1697	 0.441816953133474 
1698	 0.441793191154828 
1699	 0.441766557270429 
1700	 0.441819270320357 
1701	 0.441841806003342 
1702	 0.441849873200494 
1703	 0.441781038020252 
1704	 0.441698728369124 
1705	 0.441576331490796 
1706	 0.441304944036054 
1707	 0.441169452265033 
1708	 0.441011600975547 
1709	 0.440997691923981 
1710	 0.441132508033217 
1711	 0.441216767570362 
1712	 0.441418570719035 
1713	 0.441558755498493 
1714	 0.441680269690599 
1715	 0.441757325098556 
1716	 0.441806122920909 
1717	 0.441835364560774 
1718	 0.441699777552365 
1719	 0.441829368341746 
1720	 0.442132681711646 
1721	 0.442342596163239 
1722	 0.442708938059323 
1723	 0.442892580708007 
1724	 0.442953714306699 
1725	 0.443004070950255 
1726	 0.443042847960008 
1727	 0.442952469143505 
1728	 0.442601038677778 
1729	 0.442588716091976 
1730	 0.442575084227488 
1731	 0.442812548250937 
1732	 0.443456195253523 
1733	 0.443999773078595 
1734	 0.444277098831304 
1735	 0.444412925500674 
1736	 0.444466765060003 
1737	 0.444492562674721 
1738	 0.444552555262158 
1739	 0.444652348769572 
1740	 0.444805743068416 
1741	 0.445069685868817 
1742	 0.445274012098069 
1743	 0.445582424045721 
1744	 0.445871612744578 
1745	 0.445860247976738 
1746	 0.445914029376139 
1747	 0.445694327649114 
1748	 0.445302314337876 
1749	 0.445211765960523 
1750	 0.445244219981369 
1751	 0.445354319743675 
1752	 0.445526555795842 
1753	 0.44573999664082 
1754	 0.445675720507184 
1755	 0.445631196508489 
1756	 0.445795936884839 
1757	 0.44589552971577 
1758	 0.446045484357862 
1759	 0.44620381120319 
1760	 0.446556959422145 
1761	 0.447105249359014 
1762	 0.447498165905844 
1763	 0.448019459165442 
1764	 0.448494873180265 
1765	 0.448746540015475 
1766	 0.449066092802065 
1767	 0.449496275629234 
1768	 0.449926056997121 
1769	 0.45036251893194 
1770	 0.450830635972341 
1771	 0.451319230721403 
1772	 0.451918536810633 
1773	 0.452496253053376 
1774	 0.453047606394475 
1775	 0.453954924960728 
1776	 0.454351730789603 
1777	 0.454870067088963 
1778	 0.455567536422104 
1779	 0.455824752044362 
1780	 0.45645334650146 
1781	 0.457381240611176 
1782	 0.457894560964632 
1783	 0.458632988108851 
1784	 0.45979325152786 
1785	 0.46056061295489 
1786	 0.461354942500282 
1787	 0.462426462561428 
1788	 0.463160047932532 
1789	 0.463844447487533 
1790	 0.464620181233623 
1791	 0.465427885079483 
1792	 0.466706212592524 
1793	 0.468357651706113 
1794	 0.470472239324142 
1795	 0.472700254932712 
1796	 0.474184895577931 
1797	 0.475797298558414 
1798	 0.477924125798998 
1799	 0.480144330947857 
1800	 0.483387018546598 
1801	 0.48236253405308 
1802	 0.48706945496264 
1803	 0.490390790765348 
1804	 0.493785650133851 
1805	 0.497943968835001 
1806	 0.502682123366737 
1807	 0.506426135623708 
1808	 0.510797477267471 
1809	 0.514706488928919 
1810	 0.51743321839969 
1811	 0.516426623535237 
1812	 0.519153442314776 
1813	 0.52284380934543 
1814	 0.527364177831376 
1815	 0.536579391955938 
1816	 0.541732249587483 
1817	 0.54332036397746 
1818	 0.547164584458363 
1819	 0.550802002012237 
1820	 0.551422862579699 
1821	 0.554420870870716 
1822	 0.56131737015567 
1823	 0.565409842187436 
1824	 0.56433901877077 
1825	 0.568620697713843 
1826	 0.581188382389189 
1827	 0.58799432056489 
1828	 0.593747536455309 
1829	 0.597919402772205 
1830	 0.613056781173241 
1831	 0.631138193486465 
1832	 0.647864195453259 
1833	 0.699211620336072 
1834	 0.730181433362515 
1835	 0.669034482643504 
1836	 0.663123377277288 
1837	 0.709117815360756 
1838	 0.712890908447857 
1839	 0.708403648849023 
1840	 0.714633772254507 
1841	 0.712311897144744 
1842	 0.657713817469473 
1843	 0.652960426301998 
1844	 0.697283871069489 
1845	 0.707926484163674 
1846	 0.718284417765884 
1847	 0.714951753709281 
1848	 0.701511883930107 
1849	 0.660400150941486 
1850	 0.656875721528304 
1851	 0.643648148581195 
1852	 0.668694897734186 
1853	 0.783317018975526 
1854	 0.813925689503629 
1855	 0.805845251838876 
1856	 0.814678397992361 
1857	 0.784259063883181 
1858	 0.7578113477473 
1859	 0.770111334674967 
1860	 0.845637126659468 
1861	 0.825470699675979 
1862	 0.7606376189308 
1863	 0.738929928126634 
1864	 0.672742513630859 
1865	 0.641502395683743 
1866	 0.664632596009114 
1867	 0.674810056858749 
1868	 0.66162924164435 
1869	 0.632030375212413 
1870	 0.615436730412196 
1871	 0.595547543984585 
1872	 0.593325317035977 
1873	 0.593093931085163 
1874	 0.616105131664929 
1875	 0.660892989043316 
1876	 0.673466747368547 
1877	 0.699996486464315 
1878	 0.688387494035554 
1879	 0.655775838051532 
1880	 0.649045538731632 
1881	 0.642301667887747 
1882	 0.633464878406449 
1883	 0.632081944200752 
1884	 0.641724488513594 
1885	 0.638109235670122 
1886	 0.627360432242344 
1887	 0.626532418037754 
1888	 0.614152914123114 
1889	 0.604398168102771 
1890	 0.596845370955313 
1891	 0.587097636645425 
1892	 0.581028891843112 
1893	 0.57812687692514 
1894	 0.578947074061825 
1895	 0.587132917462559 
1896	 0.590954810525823 
1897	 0.602085717347077 
1898	 0.600032262314211 
1899	 0.587532944049482 
1900	 0.590273455390158 
1901	 0.592602221043115 
1902	 0.593393619690912 
1903	 0.602547761195778 
1904	 0.637989476116488 
1905	 0.647957562339254 
1906	 0.653946637438756 
1907	 0.647734340037684 
1908	 0.602069609719246 
1909	 0.568356652584098 
1910	 0.557448351154957 
1911	 0.525045945665474 
1912	 0.515433001502116 
1913	 0.530273511071082 
1914	 0.516049216829387 
1915	 0.492230954038533 
1916	 0.483117989112565 
1917	 0.475172867351254 
1918	 0.46074941146634 
1919	 0.459996685382441 
1920	 0.464866804400152 
1921	 0.459682013859963 
1922	 0.456994507397534 
1923	 0.455496172870564 
1924	 0.450400906197032 
1925	 0.449752063270372 
1926	 0.457680736664059 
1927	 0.456493898103133 
1928	 0.452085390825349 
1929	 0.448014156946235 
1930	 0.443654637862344 
1931	 0.433734208766886 
1932	 0.426972524117855 
1933	 0.424898128590216 
1934	 0.423051842686282 
1935	 0.423279147378482 
1936	 0.421922538809034 
1937	 0.420682837680457 
1938	 0.419142636102653 
1939	 0.416888564176873 
1940	 0.414464115287681 
1941	 0.413821452328439 
1942	 0.414359747901773 
1943	 0.413265183718434 
1944	 0.412152619722362 
1945	 0.410211344537301 
1946	 0.408355081709012 
1947	 0.407086608278834 
1948	 0.4065622930929 
1949	 0.404768396465849 
1950	 0.402239762531476 
1951	 0.400732884417528 
1952	 0.399097277666053 
1953	 0.398580368420155 
1954	 0.399109072723228 
1955	 0.400090608620612 
1956	 0.400659604436685 
1957	 0.401086930990951 
1958	 0.400961822704167 
1959	 0.400781111447411 
1960	 0.399316100556841 
1961	 0.396836394488528 
1962	 0.39571562175707 
1963	 0.393185634613881 
1964	 0.392555912514515 
1965	 0.393612279509545 
1966	 0.392975429440546 
1967	 0.392833138320283 
1968	 0.393223029955288 
1969	 0.393236542147227 
1970	 0.392719119489224 
1971	 0.392909074031513 
1972	 0.393572796409073 
1973	 0.39359198615848 
1974	 0.393852807573199 
1975	 0.394463002527125 
1976	 0.39463418362438 
1977	 0.394802185008751 
1978	 0.395497081564883 
1979	 0.395861639965135 
1980	 0.396221254555177 
1981	 0.397014249100724 
1982	 0.397699329746237 
1983	 0.398375191593979 
1984	 0.39882774939859 
1985	 0.399470422247655 
1986	 0.400147272976139 
1987	 0.400839330003043 
1988	 0.401983225492219 
1989	 0.402856875242068 
1990	 0.403766426877907 
1991	 0.404762696187486 
1992	 0.405228064782425 
1993	 0.405339824285181 
1994	 0.405109184678518 
1995	 0.405069131517939 
1996	 0.404437611756884 
1997	 0.40446835218074 
1998	 0.405741298210338 
1999	 0.407230862617742 
2000	 0.40866753514551 
2001	 0.409445257896543 
2002	 0.409757183957814 
2003	 0.410529618154645 
2004	 0.411037838740378 
2005	 0.411222512363296 
2006	 0.411581536565096 
2007	 0.411553810337495 
2008	 0.411380294918402 
2009	 0.412410983078552 
2010	 0.414173559093456 
2011	 0.414770601488606 
2012	 0.415408065832697 
2013	 0.416168512847669 
2014	 0.415799455007502 
2015	 0.416180599534447 
2016	 0.416575858967124 
2017	 0.416229492295756 
2018	 0.416305744631442 
2019	 0.416275203842517 
2020	 0.416236911593675 
2021	 0.416044036698526 
2022	 0.416015669220492 
2023	 0.41628771317574 
2024	 0.416396234372421 
2025	 0.416361128383174 
2026	 0.4160356034422 
2027	 0.415486360051648 
2028	 0.415218269838301 
2029	 0.414721619604804 
2030	 0.414539001240776 
2031	 0.414510185032325 
2032	 0.414358248079121 
2033	 0.414029689537209 
2034	 0.414146889673902 
2035	 0.41393113490703 
2036	 0.413233624007202 
2037	 0.412728140126279 
2038	 0.412377726975354 
2039	 0.412210739222508 
2040	 0.412471174174654 
2041	 0.412735651415691 
2042	 0.412585251442681 
2043	 0.412408277590533 
2044	 0.411894235295368 
2045	 0.411428925461167 
2046	 0.410754119013704 
2047	 0.410484592630222 
2048	 0.410073226935929 
2049	 0.409778357224696 
2050	 0.409529912796029 
2051	 0.408832581014737 
2052	 0.408379542878624 
2053	 0.40843443855524 
2054	 0.408455104129334 
2055	 0.408321050037464 
2056	 0.40825814449017 
2057	 0.408248798579948 
2058	 0.407967899338025 
2059	 0.407675265619548 
2060	 0.407356845426199 
2061	 0.407468524821635 
2062	 0.407404339379534 
2063	 0.407125731765287 
2064	 0.407165645676736 
2065	 0.406482763104382 
2066	 0.405592451505486 
2067	 0.405756279153328 
2068	 0.406041304327926 
2069	 0.406372567550874 
2070	 0.406370328966665 
2071	 0.405293085116582 
2072	 0.404709226725782 
2073	 0.403970140251266 
2074	 0.403504209081525 
2075	 0.403258960768615 
2076	 0.403459385328709 
2077	 0.403538348009586 
2078	 0.403354732358839 
2079	 0.403080493119235 
2080	 0.403148537380939 
2081	 0.403424351328671 
2082	 0.403604396834097 
2083	 0.403838193196567 
2084	 0.404166479455188 
2085	 0.404024445861085 
2086	 0.403518647873282 
2087	 0.40309842447585 
2088	 0.402536059391204 
2089	 0.40200087594321 
2090	 0.402083743401455 
2091	 0.402690779826419 
2092	 0.403456226601066 
2093	 0.404083339905266 
2094	 0.40418283615815 
2095	 0.404136125901022 
2096	 0.404372385105863 
2097	 0.404530455373872 
2098	 0.404770466823187 
2099	 0.404998489903325 
2100	 0.404895778609959 
2101	 0.404740941500298 
2102	 0.404688891317824 
2103	 0.40461394569675 
2104	 0.404608145346844 
2105	 0.404665687488965 
2106	 0.404644980599734 
2107	 0.40472039712612 
2108	 0.404710763578802 
2109	 0.404624287563651 
2110	 0.405029854371295 
2111	 0.405470926291952 
2112	 0.405626568550527 
2113	 0.406065054732361 
2114	 0.406643207222551 
2115	 0.406933433520746 
2116	 0.407279393953973 
2117	 0.407465383586752 
2118	 0.40732002590781 
2119	 0.407248574574661 
2120	 0.407092360368348 
2121	 0.407024741687466 
2122	 0.407292868337778 
2123	 0.407906169998208 
2124	 0.408221704448722 
2125	 0.408655041247144 
2126	 0.408948101352457 
2127	 0.408953761113491 
2128	 0.409150904474968 
2129	 0.409018481827063 
2130	 0.408758788777755 
2131	 0.408969415224598 
2132	 0.409147071434564 
2133	 0.409521895980568 
2134	 0.409882861517236 
2135	 0.410468944015173 
2136	 0.410529494497916 
2137	 0.410500516349902 
2138	 0.410575743001717 
2139	 0.410942908395931 
2140	 0.411410348859168 
2141	 0.411797137283731 
2142	 0.412091195546206 
2143	 0.411950592787822 
2144	 0.411398683559103 
2145	 0.411340022256138 
2146	 0.411963712134253 
2147	 0.412860395408801 
2148	 0.414092359473064 
2149	 0.414951146998827 
2150	 0.415015913916734 
2151	 0.415005229168948 
2152	 0.414257728591281 
2153	 0.414120623871205 
2154	 0.414026913579553 
2155	 0.414201393149946 
2156	 0.414575648731096 
2157	 0.414629521792549 
2158	 0.414294015103692 
2159	 0.414233743132387 
2160	 0.414775805686773 
2161	 0.415082988106957 
2162	 0.415473931504104 
2163	 0.416215883105616 
2164	 0.416065271797053 
2165	 0.415726228552215 
2166	 0.415912347127318 
2167	 0.415975229787754 
2168	 0.416260761022851 
2169	 0.417148440700093 
2170	 0.417442799786266 
2171	 0.417570099173903 
2172	 0.417681295906546 
2173	 0.417251483978616 
2174	 0.417110361308588 
2175	 0.417512595871361 
2176	 0.41774812263393 
2177	 0.417875700335168 
2178	 0.417840813249301 
2179	 0.417768387467224 
2180	 0.417882456964561 
2181	 0.417961192482103 
2182	 0.417996263409169 
2183	 0.418463918511176 
2184	 0.418371753488107 
2185	 0.417712101587466 
2186	 0.417737061586517 
2187	 0.41766532962454 
2188	 0.417001782076984 
2189	 0.416986092693371 
2190	 0.417586340333379 
2191	 0.417938734096038 
2192	 0.418097065757392 
2193	 0.418319414658627 
2194	 0.418201206858436 
2195	 0.418284623720449 
2196	 0.418676874955418 
2197	 0.419040047300531 
2198	 0.419607300991152 
2199	 0.42004586447649 
2200	 0.420047286352744 
2201	 0.419801355838523 
2202	 0.419074407757075 
2203	 0.418797902764579 
2204	 0.419168795937454 
2205	 0.419465529519216 
2206	 0.420489992883313 
2207	 0.420987090027763 
2208	 0.420884257933645 
2209	 0.419850247175012 
2210	 0.419501489660043 
2211	 0.419032942997997 
2212	 0.418608536757857 
2213	 0.41818078867813 
2214	 0.417968075340726 
2215	 0.417501082872907 
2216	 0.417619490480938 
2217	 0.418479066880597 
2218	 0.419123753363066 
2219	 0.419796049101059 
2220	 0.419749554931645 
2221	 0.418821737386171 
2222	 0.418156541100176 
2223	 0.417807135149456 
2224	 0.41743786767292 
2225	 0.417730323616217 
2226	 0.418389803112833 
2227	 0.418329212614964 
2228	 0.417985652987674 
2229	 0.417315703847887 
2230	 0.416262458296412 
2231	 0.415219679445275 
2232	 0.413749424370937 
2233	 0.412609045036281 
2234	 0.411498111839084 
2235	 0.410879287454739 
2236	 0.410277451451949 
2237	 0.410122412686947 
2238	 0.410068299142283 
2239	 0.408776964107836 
2240	 0.407610389923399 
2241	 0.406774042459887 
2242	 0.405281012168235 
2243	 0.404392087987945 
2244	 0.403637057630437 
2245	 0.402607449940539 
2246	 0.4016805267178 
2247	 0.400565944368143 
2248	 0.399462616890921 
2249	 0.398279696164281 
2250	 0.396820097629037 
2251	 0.395334493110686 
2252	 0.393625042208457 
2253	 0.392131793211593 
2254	 0.391239366534255 
2255	 0.390604323697243 
2256	 0.38982182795369 
2257	 0.3893694650396 
2258	 0.388139710778512 
2259	 0.386543325526565 
2260	 0.385640740320798 
2261	 0.385056647512707 
2262	 0.384326692473644 
2263	 0.383976443156239 
2264	 0.383512130361495 
2265	 0.382224855312544 
2266	 0.381259592112204 
2267	 0.380731070655817 
2268	 0.380185707198221 
2269	 0.380043930837106 
2270	 0.38034459037323 
2271	 0.380760301956843 
2272	 0.380705986371424 
2273	 0.379963346249184 
2274	 0.379527291385191 
2275	 0.379023590903916 
2276	 0.37847172860107 
2277	 0.378894982077273 
2278	 0.378883017829211 
2279	 0.378641684127435 
2280	 0.378621075453014 
2281	 0.378921862400649 
2282	 0.380124374562512 
2283	 0.381210223383722 
2284	 0.381640889483765 
2285	 0.381204291755849 
2286	 0.380739996971535 
2287	 0.379443941152947 
2288	 0.37826321003871 
2289	 0.378142836288528 
2290	 0.378726257324239 
2291	 0.379082968144365 
2292	 0.38002149090826 
2293	 0.380644448830823 
2294	 0.380716976017762 
2295	 0.380747044231486 
2296	 0.38030396746847 
2297	 0.379854750294236 
2298	 0.380098959833067 
2299	 0.3806271478103 
2300	 0.380299404021035 
2301	 0.379338975541079 
2302	 0.377863287424701 
2303	 0.376513293515053 
2304	 0.376101513630545 
2305	 0.375963677456183 
2306	 0.376033588673086 
2307	 0.376157448118728 
2308	 0.375673802781405 
2309	 0.37498274706347 
2310	 0.374673812810308 
2311	 0.374572124660885 
2312	 0.37579516664306 
2313	 0.377454675906833 
2314	 0.3782371211769 
2315	 0.378662745877655 
2316	 0.377683170263805 
2317	 0.377033564547694 
2318	 0.377346655281015 
2319	 0.37765308635836 
2320	 0.378224775363605 
2321	 0.378372997533765 
2322	 0.378245758194978 
2323	 0.378229341608552 
2324	 0.377942263399213 
2325	 0.377636434475663 
2326	 0.378255680287092 
2327	 0.378355385963567 
2328	 0.378615932592554 
2329	 0.37938703525238 
2330	 0.37930263558199 
2331	 0.378828598753871 
2332	 0.379166181336444 
2333	 0.378841153188611 
2334	 0.378727534000246 
2335	 0.379083925188266 
2336	 0.378269043201688 
2337	 0.377932970302911 
2338	 0.377673848774825 
2339	 0.376112436105519 
2340	 0.373874765500837 
2341	 0.371735513926554 
2342	 0.370033469001974 
2343	 0.370088145498204 
2344	 0.372784629886506 
2345	 0.375473850608283 
2346	 0.376255985925624 
2347	 0.376371989720093 
2348	 0.376368788433877 
2349	 0.375663499957355 
2350	 0.375647096068097 
2351	 0.377120666305658 
2352	 0.37817782631103 
2353	 0.379329520056474 
2354	 0.38125499021727 
2355	 0.381722547487366 
2356	 0.381464379691268 
2357	 0.380915686301591 
2358	 0.378255254195388 
2359	 0.377901665690639 
2360	 0.378462605482075 
2361	 0.377434644542446 
2362	 0.380629392522543 
2363	 0.383756415430868 
2364	 0.384325198346777 
2365	 0.384839615560787 
2366	 0.383494376147523 
2367	 0.382707536831271 
2368	 0.383364060107139 
2369	 0.384692239066219 
2370	 0.387896884620881 
2371	 0.38876188320814 
2372	 0.388393768070498 
2373	 0.386376656777016 
2374	 0.38668310108003 
2375	 0.386060248353465 
2376	 0.3862020925798 
2377	 0.387727940678208 
2378	 0.387957427060655 
2379	 0.388202558621759 
2380	 0.388587078122869 
2381	 0.389011846868519 
2382	 0.389267518448263 
2383	 0.388806841708055 
2384	 0.388083888321323 
2385	 0.387362341126763 
2386	 0.387347819724154 
2387	 0.387329368718836 
2388	 0.386807584528718 
2389	 0.387065544520987 
2390	 0.386982398449953 
2391	 0.385068014851961 
2392	 0.384962223283838 
2393	 0.386697511650585 
2394	 0.386509834751628 
2395	 0.386952286672943 
2396	 0.386576412443102 
2397	 0.382952627816839 
2398	 0.381654270182903 
2399	 0.381546474685536 
2400	 0.381359902103963 
2401	 0.382056825778068 
2402	 0.384082900710519 
2403	 0.383811027531966 
2404	 0.381889524508656 
2405	 0.381023935400654 
2406	 0.380626607608218 
2407	 0.379723166624201 
2408	 0.381517442387957 
2409	 0.384221449094069 
2410	 0.384938252798398 
2411	 0.385194571731636 
2412	 0.384350595066536 
2413	 0.382160995122849 
2414	 0.379378824149898 
2415	 0.376951747047439 
2416	 0.376403504140192 
2417	 0.376899966158593 
2418	 0.376073641812713 
2419	 0.374900806930466 
2420	 0.377857166911569 
2421	 0.381416618224754 
2422	 0.379081422806043 
2423	 0.376805100871132 
2424	 0.371572167585636 
2425	 0.361989565835855 
2426	 0.359993099492394 
2427	 0.363305684518686 
2428	 0.367235810720556 
2429	 0.372562901062434 
2430	 0.37431159841722 
2431	 0.375611353616912 
2432	 0.376403009445289 
2433	 0.374787547587927 
2434	 0.373748359138039 
2435	 0.368216165649957 
2436	 0.365429022074207 
2437	 0.368053643219242 
2438	 0.363740542154268 
2439	 0.352077866411677 
2440	 0.349347961513727 
2441	 0.344669155749454 
2442	 0.346556168621467 
2443	 0.364307205078021 
2444	 0.372514372173893 
2445	 0.380306798727005 
2446	 0.38332290653598 
2447	 0.378254253314748 
2448	 0.376459354095255 
2449	 0.371796316642397 
2450	 0.367594275556596 
2451	 0.366485065379506 
2452	 0.363462298785787 
2453	 0.356303768641522 
2454	 0.354071339740589 
2455	 0.353724200695442 
2456	 0.35159627217815 
2457	 0.351518113935735 
2458	 0.352214693535491 
2459	 0.350140922190518 
2460	 0.352389726664658 
2461	 0.361060587798801 
2462	 0.364489219632907 
2463	 0.368269237812262 
2464	 0.370497304567968 
2465	 0.370213316560609 
2466	 0.368056454704622 
2467	 0.362064990820995 
2468	 0.359885997911574 
2469	 0.352741193337328 
2470	 0.352108291357851 
2471	 0.365387166593307 
2472	 0.363686397611403 
2473	 0.352785191111149 
2474	 0.351831255217304 
2475	 0.347653180798489 
2476	 0.343025226832057 
2477	 0.350843479504553 
2478	 0.349295136049274 
2479	 0.328347017925628 
2480	 0.328487641521638 
2481	 0.343461878322178 
2482	 0.355170644266754 
2483	 0.373010963523793 
2484	 0.39329425064329 
2485	 0.424181917821814 
2486	 0.458076935801077 
2487	 0.50264145840517 
2488	 0.503168495789387 
2489	 0.490172369645388 
2490	 0.494796767819487 
2491	 0.488804920326276 
2492	 0.484528806928454 
2493	 0.443792773283251 
2494	 0.383098950208905 
2495	 0.337718199013061 
2496	 0.290872035307604 
2497	 0.271581735629509 
2498	 0.26935922719771 
2499	 0.283545412960664 
2500	 0.360364590035421 
