Wavelength	ref00139.asd
350	 2.31359887846449 
351	 2.29773678249176 
352	 2.35608496536429 
353	 2.30566341576754 
354	 2.33013335254654 
355	 2.34665193270293 
356	 2.29483019788086 
357	 2.25443640588736 
358	 2.28090057796469 
359	 2.29377789890393 
360	 2.21780007080862 
361	 2.1846665295866 
362	 2.16780879107178 
363	 2.16030186567609 
364	 2.16596925808614 
365	 2.14946188577091 
366	 2.127515738922 
367	 2.11388855195883 
368	 2.10915924717785 
369	 2.09355930358325 
370	 2.08654527406786 
371	 2.09596855001136 
372	 2.06919815348034 
373	 2.03074541808006 
374	 2.00750501639703 
375	 2.01758325055476 
376	 2.01212253484519 
377	 1.97916340376834 
378	 1.94202161095921 
379	 1.95581600346064 
380	 1.93829507810435 
381	 1.91188844746806 
382	 1.90183644354037 
383	 1.87921108581119 
384	 1.87189117117804 
385	 1.8713860753344 
386	 1.85623009600278 
387	 1.83555236588138 
388	 1.79417351328284 
389	 1.75648345671965 
390	 1.7764469848835 
391	 1.76274013546553 
392	 1.74332628985396 
393	 1.74035463130022 
394	 1.7163773625593 
395	 1.69876445979905 
396	 1.68176057843894 
397	 1.65450899826697 
398	 1.63710286024019 
399	 1.62588862853955 
400	 1.61257507237805 
401	 1.58951101222723 
402	 1.58115150778104 
403	 1.57346865745898 
404	 1.55794151751361 
405	 1.54678338281853 
406	 1.53194838634022 
407	 1.51705014332261 
408	 1.50649863612774 
409	 1.48957358284054 
410	 1.47580959654417 
411	 1.46360258430617 
412	 1.4432687796731 
413	 1.43643905184255 
414	 1.43189611218372 
415	 1.41944586861932 
416	 1.40019061149586 
417	 1.38826423137091 
418	 1.37963782742338 
419	 1.36612550439684 
420	 1.35151664767127 
421	 1.34221648854298 
422	 1.33533271202702 
423	 1.32124608167509 
424	 1.31196397656608 
425	 1.30485217571824 
426	 1.29728918075581 
427	 1.29224446892274 
428	 1.28453900856312 
429	 1.27378649806069 
430	 1.26172236985351 
431	 1.25095503980387 
432	 1.24154420825363 
433	 1.23176748659647 
434	 1.21928213443717 
435	 1.21375598829608 
436	 1.21034526237397 
437	 1.20380359460906 
438	 1.19206217439797 
439	 1.18498499475991 
440	 1.1786074816063 
441	 1.16698786765088 
442	 1.16017436749948 
443	 1.15404612466329 
444	 1.14715892775294 
445	 1.14108618539972 
446	 1.13463832008703 
447	 1.12837159446859 
448	 1.12234467086418 
449	 1.11473901906287 
450	 1.10794092850055 
451	 1.10209225147924 
452	 1.09619313454838 
453	 1.08858684298015 
454	 1.0832590761311 
455	 1.07968821181445 
456	 1.07201528562118 
457	 1.0652703924202 
458	 1.05889089650835 
459	 1.05199834800749 
460	 1.04653811678607 
461	 1.04171590821943 
462	 1.03680393717877 
463	 1.03128685084036 
464	 1.02608681395524 
465	 1.02192293920615 
466	 1.018549112027 
467	 1.01438365138976 
468	 1.00952688261614 
469	 1.00447148486447 
470	 0.999722755345674 
471	 0.995367364995376 
472	 0.990164891331358 
473	 0.984697650377409 
474	 0.980545404954274 
475	 0.975396511028588 
476	 0.970638861668546 
477	 0.966894272351558 
478	 0.962558665895872 
479	 0.958042040836324 
480	 0.953982581679734 
481	 0.950746441589905 
482	 0.946625145824891 
483	 0.943794401780949 
484	 0.94212185106272 
485	 0.939141146112744 
486	 0.935401373616044 
487	 0.931024632292179 
488	 0.926371247722514 
489	 0.922434304399741 
490	 0.917540818018025 
491	 0.912984820917152 
492	 0.910520189650476 
493	 0.906868038400915 
494	 0.903173026790401 
495	 0.899673557462608 
496	 0.895130624613451 
497	 0.891682293189829 
498	 0.888526751848569 
499	 0.884786618491806 
500	 0.881758531677097 
501	 0.878685582396202 
502	 0.87442490952643 
503	 0.86812761217843 
504	 0.863716701369472 
505	 0.85940035138853 
506	 0.854800428675885 
507	 0.85299389229128 
508	 0.84913920802494 
509	 0.844272162132372 
510	 0.840528601242779 
511	 0.83647087226344 
512	 0.832433629037424 
513	 0.828544995747618 
514	 0.824641297016619 
515	 0.819798660208839 
516	 0.816548587840027 
517	 0.815463147295708 
518	 0.811234060756327 
519	 0.806114188806957 
520	 0.801186376097694 
521	 0.796874596016753 
522	 0.792022399512698 
523	 0.788830702884865 
524	 0.787160360163274 
525	 0.784241537399133 
526	 0.781717129606435 
527	 0.778855730340483 
528	 0.775237345498082 
529	 0.772874768735252 
530	 0.770421789824169 
531	 0.768139151417785 
532	 0.76690520542971 
533	 0.764692623401667 
534	 0.763559240922886 
535	 0.763724843380498 
536	 0.761764202350281 
537	 0.759186313670135 
538	 0.758031384375941 
539	 0.759316786974335 
540	 0.758707488463513 
541	 0.758803735362834 
542	 0.759366020500741 
543	 0.757878930185978 
544	 0.757970542065426 
545	 0.759031896686339 
546	 0.760280377371607 
547	 0.762219657797736 
548	 0.764801903667552 
549	 0.767337581371275 
550	 0.769140037377075 
551	 0.771259228667376 
552	 0.773827802339879 
553	 0.777059101044479 
554	 0.781325768492892 
555	 0.784455925776158 
556	 0.788498176001219 
557	 0.795009948948883 
558	 0.80020331123967 
559	 0.806259091898993 
560	 0.813221194708875 
561	 0.820029089703763 
562	 0.829104045973751 
563	 0.83799166218287 
564	 0.846178032141975 
565	 0.857616431867294 
566	 0.869725877541814 
567	 0.881506181701521 
568	 0.893006312828507 
569	 0.906693512242337 
570	 0.920774789473977 
571	 0.934637918916773 
572	 0.94896029005991 
573	 0.962744890870006 
574	 0.977119948015837 
575	 0.992474113922465 
576	 1.00602461068991 
577	 1.01989917006139 
578	 1.034690186088 
579	 1.05024952601558 
580	 1.06627586725934 
581	 1.08227051132779 
582	 1.09812846119403 
583	 1.11431696750913 
584	 1.13005523471982 
585	 1.14478590800826 
586	 1.15852544032141 
587	 1.17321863185428 
588	 1.18805517998868 
589	 1.20283487840181 
590	 1.21757502946674 
591	 1.23234591803037 
592	 1.24692942316983 
593	 1.26119168456566 
594	 1.27411582124753 
595	 1.28790318113302 
596	 1.30142341186788 
597	 1.31278818500566 
598	 1.32219460716375 
599	 1.33082745982128 
600	 1.33946635613036 
601	 1.34832355057649 
602	 1.35603564851496 
603	 1.36325617449037 
604	 1.37055975666867 
605	 1.37732588270789 
606	 1.38297134745032 
607	 1.38834489758066 
608	 1.39463540709899 
609	 1.39963631190466 
610	 1.40357892795356 
611	 1.40710618643175 
612	 1.41106165992899 
613	 1.41563442877509 
614	 1.41989563359323 
615	 1.42299327354894 
616	 1.42571801023746 
617	 1.42791583354071 
618	 1.4296428531423 
619	 1.43110029832101 
620	 1.4318866103921 
621	 1.43226232011159 
622	 1.43266699095501 
623	 1.43383833254579 
624	 1.43383836513155 
625	 1.4330017565372 
626	 1.43236815224806 
627	 1.43181100139208 
628	 1.4308587106516 
629	 1.42960589918299 
630	 1.42869707866308 
631	 1.42815473400158 
632	 1.4268169958583 
633	 1.42458914614577 
634	 1.42463528337766 
635	 1.42473889354473 
636	 1.42442973412684 
637	 1.42409750853901 
638	 1.42440721573268 
639	 1.42497978995952 
640	 1.42542513977876 
641	 1.42545801425913 
642	 1.42634920427104 
643	 1.42753325235541 
644	 1.42811740784029 
645	 1.42765916159055 
646	 1.42746411935976 
647	 1.42762847854187 
648	 1.42767710751559 
649	 1.42959437907473 
650	 1.43110525422616 
651	 1.43121101614711 
652	 1.43180270846348 
653	 1.43211073641021 
654	 1.43255654857565 
655	 1.43377228962551 
656	 1.43580881133021 
657	 1.43781108867464 
658	 1.43947996286525 
659	 1.44144305009251 
660	 1.44458985230306 
661	 1.44776586866599 
662	 1.45037406844164 
663	 1.45362499840699 
664	 1.4572006068275 
665	 1.46070052723422 
666	 1.46382406597032 
667	 1.46691141603431 
668	 1.4702336397543 
669	 1.47351791105636 
670	 1.47609242895863 
671	 1.47821038765033 
672	 1.48054787412974 
673	 1.48311264832643 
674	 1.48417168727444 
675	 1.48608707041305 
676	 1.48772424389777 
677	 1.48736235578841 
678	 1.48822678768006 
679	 1.48967461884509 
680	 1.49037922481228 
681	 1.48875491674979 
682	 1.48791381401921 
683	 1.48559522354056 
684	 1.48056841214554 
685	 1.47695124017414 
686	 1.47260716713372 
687	 1.46654761055263 
688	 1.45915624995695 
689	 1.4524712305767 
690	 1.44489744346262 
691	 1.43572002314177 
692	 1.42588878552567 
693	 1.41399311795829 
694	 1.40258321592442 
695	 1.39387023099741 
696	 1.38713690206462 
697	 1.38086006547328 
698	 1.37337016730036 
699	 1.36381711726985 
700	 1.35605196142282 
701	 1.34843349868893 
702	 1.34054077753641 
703	 1.33382175997428 
704	 1.32820270213595 
705	 1.32248370919182 
706	 1.31601460617409 
707	 1.31032086279151 
708	 1.30516444768391 
709	 1.29988352680025 
710	 1.29390875190273 
711	 1.28846620648977 
712	 1.28306636631689 
713	 1.27733162315874 
714	 1.27113222379064 
715	 1.26358319468908 
716	 1.25414481195834 
717	 1.24303367293593 
718	 1.23304748530629 
719	 1.22638389117619 
720	 1.22352061190868 
721	 1.22271554193574 
722	 1.22060180130014 
723	 1.21571894083046 
724	 1.2086300064111 
725	 1.20254387826237 
726	 1.19772336925972 
727	 1.19383934243706 
728	 1.1905197140067 
729	 1.18825061670946 
730	 1.18577292217001 
731	 1.18371914829566 
732	 1.1830983897748 
733	 1.18315434817248 
734	 1.18210003366523 
735	 1.17970350113104 
736	 1.17718010390909 
737	 1.17540884113394 
738	 1.17388922601474 
739	 1.1722290915337 
740	 1.17094053856481 
741	 1.16950443231387 
742	 1.16790724870634 
743	 1.16623684238312 
744	 1.16408974480816 
745	 1.16212229007146 
746	 1.16037199641324 
747	 1.15841023861951 
748	 1.15648775302773 
749	 1.15407573161603 
750	 1.15125601842778 
751	 1.14927187344381 
752	 1.14690150994294 
753	 1.14458007521862 
754	 1.14265223545938 
755	 1.13948821640184 
756	 1.13654433953508 
757	 1.13365048107255 
758	 1.1299157047207 
759	 1.1280161924731 
760	 1.12506118003422 
761	 1.1192280167445 
762	 1.11535899218433 
763	 1.11312954129339 
764	 1.11099018316015 
765	 1.10849714070268 
766	 1.10687631026645 
767	 1.1038439279342 
768	 1.10042691227021 
769	 1.09795814083353 
770	 1.09479901683417 
771	 1.09127919899152 
772	 1.08805009323179 
773	 1.0856877333182 
774	 1.08144570037077 
775	 1.07752952134917 
776	 1.07493402715194 
777	 1.07138232757607 
778	 1.06736588363282 
779	 1.06364891528171 
780	 1.06068239446 
781	 1.05733589446967 
782	 1.05438022214897 
783	 1.05154098575397 
784	 1.04806474621618 
785	 1.04409629815252 
786	 1.04009954582731 
787	 1.03627241188969 
788	 1.03251542199881 
789	 1.02865788574636 
790	 1.02533924372889 
791	 1.02270953762865 
792	 1.01965202627608 
793	 1.01671828795871 
794	 1.01390808536915 
795	 1.01102453025276 
796	 1.00768936068462 
797	 1.00469212464327 
798	 1.00200298217247 
799	 0.999139532779594 
800	 0.996205853905802 
801	 0.99307526051232 
802	 0.990026666389017 
803	 0.987696405492801 
804	 0.985545115062724 
805	 0.983149088778375 
806	 0.980533256137983 
807	 0.978611977734183 
808	 0.975439334949729 
809	 0.971866902922224 
810	 0.968898343140896 
811	 0.964363567332269 
812	 0.959994908351271 
813	 0.955594614079862 
814	 0.950192437347841 
815	 0.945936869375728 
816	 0.94252757187427 
817	 0.939606521208992 
818	 0.937035856838301 
819	 0.935918083160775 
820	 0.935179892796504 
821	 0.933722303105279 
822	 0.931020175028959 
823	 0.928437995055379 
824	 0.926227160678135 
825	 0.924434754418544 
826	 0.923401786856751 
827	 0.922097470957679 
828	 0.920232935423141 
829	 0.917947107730228 
830	 0.915293208226782 
831	 0.913638537772477 
832	 0.912667418389384 
833	 0.911025136428433 
834	 0.91019351005168 
835	 0.908868088831093 
836	 0.907006233362805 
837	 0.906265918687127 
838	 0.905035511065114 
839	 0.903451951068607 
840	 0.901725743552961 
841	 0.899466846789594 
842	 0.898302878552851 
843	 0.89731819291929 
844	 0.89546021674576 
845	 0.893864099393252 
846	 0.89191402122078 
847	 0.89012645093967 
848	 0.889118176374448 
849	 0.887422338302701 
850	 0.885273447954146 
851	 0.88352323642027 
852	 0.883085102425794 
853	 0.882313569196845 
854	 0.880807833200452 
855	 0.878644995231418 
856	 0.876344123669794 
857	 0.874811223348213 
858	 0.873466510887613 
859	 0.87210156630474 
860	 0.871531176193595 
861	 0.870340468730044 
862	 0.868958136183541 
863	 0.867993500350796 
864	 0.867358830929724 
865	 0.866129187057899 
866	 0.865134626142548 
867	 0.865073551986782 
868	 0.863769414419729 
869	 0.861523491111815 
870	 0.859685419189786 
871	 0.859385576789233 
872	 0.858399137807654 
873	 0.857901357159719 
874	 0.857414940721728 
875	 0.855642803258977 
876	 0.855032768633371 
877	 0.854597065777228 
878	 0.853885521101415 
879	 0.853286218090961 
880	 0.852397249542612 
881	 0.851386480851143 
882	 0.850498130861542 
883	 0.849931206606667 
884	 0.849669409839026 
885	 0.849106498980632 
886	 0.848244511772517 
887	 0.848362793356683 
888	 0.847135898639345 
889	 0.845630051955201 
890	 0.844881844930418 
891	 0.843604785706918 
892	 0.841795076352043 
893	 0.839773581632324 
894	 0.838054576429792 
895	 0.837318796359695 
896	 0.836373873868025 
897	 0.834889686450148 
898	 0.833122574982187 
899	 0.831549841103316 
900	 0.831862711878996 
901	 0.832098355092931 
902	 0.830015510373828 
903	 0.832280455225013 
904	 0.833406052228473 
905	 0.832336537952786 
906	 0.831431936141075 
907	 0.833043170549812 
908	 0.831801478789509 
909	 0.828634340259243 
910	 0.82933258896788 
911	 0.82941870187611 
912	 0.828961104180043 
913	 0.828163739038104 
914	 0.827149915977686 
915	 0.828239937701979 
916	 0.828489057100628 
917	 0.827991011494726 
918	 0.830467984756991 
919	 0.832207093336133 
920	 0.832943655405732 
921	 0.833368641011171 
922	 0.834505365084792 
923	 0.834908466605582 
924	 0.834673810829243 
925	 0.834091151358122 
926	 0.833225968206232 
927	 0.829564557779564 
928	 0.825677446648237 
929	 0.823888458775492 
930	 0.823698326114708 
931	 0.822612261069493 
932	 0.819552401666331 
933	 0.815362073619552 
934	 0.813548751858091 
935	 0.816073228611432 
936	 0.815679559912538 
937	 0.810965077996829 
938	 0.815064255380867 
939	 0.817199124679801 
940	 0.818248117739546 
941	 0.820193427383038 
942	 0.821858458194753 
943	 0.824301258123024 
944	 0.827525079994251 
945	 0.830329617240049 
946	 0.829718894190874 
947	 0.827374857668326 
948	 0.826441347813083 
949	 0.829230700544565 
950	 0.835628479208801 
951	 0.83628059906846 
952	 0.835534122854895 
953	 0.837412781758043 
954	 0.837412311747679 
955	 0.841901328138547 
956	 0.847034496107151 
957	 0.849191736760458 
958	 0.850504357099882 
959	 0.851108716476172 
960	 0.853705150861389 
961	 0.858810204995803 
962	 0.86231017339733 
963	 0.867207433285973 
964	 0.867970976349867 
965	 0.86549561115879 
966	 0.873129386858609 
967	 0.87708252654359 
968	 0.877063542769397 
969	 0.876711009436074 
970	 0.880392825876085 
971	 0.88522633067944 
972	 0.887496788245343 
973	 0.886839201113221 
974	 0.887617094653604 
975	 0.885694324461196 
976	 0.887315597424458 
977	 0.893288229154159 
978	 0.895583042859595 
979	 0.89261865495024 
980	 0.891859597342652 
981	 0.894404540520028 
982	 0.893753016886185 
983	 0.895688698371265 
984	 0.89809788730997 
985	 0.900218191182675 
986	 0.902885149466479 
987	 0.902425683787086 
988	 0.902204773646603 
989	 0.903560027220347 
990	 0.90538810837919 
991	 0.90645298026421 
992	 0.905930422635687 
993	 0.906532598948847 
994	 0.910831529801688 
995	 0.909980009780821 
996	 0.907725321550252 
997	 0.909228703129302 
998	 0.915194757141168 
999	 0.907922003697903 
1000	 0.907802529016196 
1001	 0.922347489752484 
1002	 0.922827713774505 
1003	 0.92319565231216 
1004	 0.92379128998313 
1005	 0.923943403854766 
1006	 0.924075625292003 
1007	 0.924166233149134 
1008	 0.923924117388956 
1009	 0.923711140754203 
1010	 0.923825650713645 
1011	 0.923359634816901 
1012	 0.922489428856752 
1013	 0.921965508386014 
1014	 0.921332150119163 
1015	 0.921096009060264 
1016	 0.921295039685308 
1017	 0.921495450044485 
1018	 0.921481340488125 
1019	 0.921572054081307 
1020	 0.921480050546429 
1021	 0.921115830965511 
1022	 0.920628398987537 
1023	 0.92009533117605 
1024	 0.919427107859987 
1025	 0.918721452376557 
1026	 0.918268391803167 
1027	 0.917814141923543 
1028	 0.91800609909012 
1029	 0.917684938998841 
1030	 0.91682117633355 
1031	 0.916535587125848 
1032	 0.915804730550541 
1033	 0.915170538303934 
1034	 0.914716874551736 
1035	 0.91431081383681 
1036	 0.913856468327013 
1037	 0.913256665938857 
1038	 0.912648665047394 
1039	 0.911994803527531 
1040	 0.91111335620817 
1041	 0.910447592480315 
1042	 0.910284942441915 
1043	 0.909921176902265 
1044	 0.909369566312782 
1045	 0.908945352399945 
1046	 0.908104687222678 
1047	 0.907191775737767 
1048	 0.906774583368927 
1049	 0.906708861218052 
1050	 0.906496571163542 
1051	 0.90650434644911 
1052	 0.90608438683215 
1053	 0.905362229908152 
1054	 0.904723209280522 
1055	 0.903955741968612 
1056	 0.90374808986884 
1057	 0.903982511117632 
1058	 0.904255055708397 
1059	 0.904576014086985 
1060	 0.904526276381851 
1061	 0.904326114221429 
1062	 0.903795220203444 
1063	 0.903173535405592 
1064	 0.902881485663513 
1065	 0.902429932498452 
1066	 0.902010263537867 
1067	 0.9016432570011 
1068	 0.901394759985022 
1069	 0.901027846025567 
1070	 0.901216257680687 
1071	 0.901637101845555 
1072	 0.90132665694076 
1073	 0.901274358172884 
1074	 0.901630866249127 
1075	 0.90141207477399 
1076	 0.901113432356711 
1077	 0.900973948320691 
1078	 0.900257424384329 
1079	 0.899528759995768 
1080	 0.899673837214405 
1081	 0.899390640477237 
1082	 0.899096243039535 
1083	 0.898203987655034 
1084	 0.897866334285283 
1085	 0.897665494523624 
1086	 0.897259291992677 
1087	 0.89745875187623 
1088	 0.897207447412405 
1089	 0.896002028501439 
1090	 0.89488798585787 
1091	 0.89395606622179 
1092	 0.893282645910188 
1093	 0.892571993872418 
1094	 0.891620795860685 
1095	 0.890753972177063 
1096	 0.889839708033787 
1097	 0.88888871975042 
1098	 0.887767619969547 
1099	 0.886595001241854 
1100	 0.885281736584792 
1101	 0.884182495929202 
1102	 0.882792207923417 
1103	 0.881775192652111 
1104	 0.880842657055904 
1105	 0.879277389950104 
1106	 0.877828534635309 
1107	 0.876204502868261 
1108	 0.874362172144182 
1109	 0.87241541096908 
1110	 0.869870223925419 
1111	 0.867065312353799 
1112	 0.863451212166025 
1113	 0.860219465613972 
1114	 0.856674003808363 
1115	 0.853100641602729 
1116	 0.84969490645013 
1117	 0.845989171284849 
1118	 0.841529329297558 
1119	 0.836902161828669 
1120	 0.832669477070248 
1121	 0.828919220732277 
1122	 0.826235078513294 
1123	 0.82493092086838 
1124	 0.823623538812547 
1125	 0.822679162359211 
1126	 0.822876644276984 
1127	 0.823758202586461 
1128	 0.824889544930158 
1129	 0.827173362089051 
1130	 0.829298013282121 
1131	 0.831639208059619 
1132	 0.833873793201549 
1133	 0.836295781135972 
1134	 0.838609134520398 
1135	 0.840931074373744 
1136	 0.842252561688224 
1137	 0.843879763068981 
1138	 0.845233805738408 
1139	 0.846049391030449 
1140	 0.846989816337943 
1141	 0.8471655136095 
1142	 0.847509263784902 
1143	 0.848008309174724 
1144	 0.848077222147777 
1145	 0.848873122467427 
1146	 0.850118001132373 
1147	 0.851509175655226 
1148	 0.853044191587466 
1149	 0.855009163338771 
1150	 0.857407444267084 
1151	 0.859725537756718 
1152	 0.861973460199707 
1153	 0.864411081984926 
1154	 0.867575711976558 
1155	 0.87069633471545 
1156	 0.873615280925894 
1157	 0.876600116108622 
1158	 0.878957808346344 
1159	 0.880453800270578 
1160	 0.882172014551639 
1161	 0.88395353466175 
1162	 0.885483509849459 
1163	 0.887002675383887 
1164	 0.888080172936089 
1165	 0.88889130810382 
1166	 0.889571260870556 
1167	 0.889869010380987 
1168	 0.890243650801728 
1169	 0.890700738138653 
1170	 0.891000652929503 
1171	 0.89084240832136 
1172	 0.890703896236984 
1173	 0.890732382167794 
1174	 0.890623671781848 
1175	 0.890382204764081 
1176	 0.890328376822303 
1177	 0.889968710370113 
1178	 0.88916316341431 
1179	 0.88856703099325 
1180	 0.887947928811654 
1181	 0.8874564573813 
1182	 0.886969754479379 
1183	 0.886594643171221 
1184	 0.886276636851872 
1185	 0.886098133272756 
1186	 0.886192646689394 
1187	 0.886061953180196 
1188	 0.885903038734878 
1189	 0.885851065546745 
1190	 0.885651878520303 
1191	 0.885251894032385 
1192	 0.885141279541282 
1193	 0.885210630133797 
1194	 0.885082291098484 
1195	 0.885023453215891 
1196	 0.884661710725346 
1197	 0.883943824668873 
1198	 0.883583189189659 
1199	 0.883242691862718 
1200	 0.882881320479907 
1201	 0.882743613822876 
1202	 0.882479059744295 
1203	 0.88194178577002 
1204	 0.88162525973558 
1205	 0.881558137082117 
1206	 0.881329254113086 
1207	 0.881112551949731 
1208	 0.880852156290722 
1209	 0.880519003090194 
1210	 0.88002204707074 
1211	 0.879929835499805 
1212	 0.879948574750712 
1213	 0.879674516299117 
1214	 0.879339732688045 
1215	 0.879204582243363 
1216	 0.878899248665042 
1217	 0.878783508515443 
1218	 0.879219231069428 
1219	 0.879020498556167 
1220	 0.878318452654072 
1221	 0.877974954127719 
1222	 0.877589822422145 
1223	 0.877207751068643 
1224	 0.877125508548536 
1225	 0.87677527191268 
1226	 0.876119487857317 
1227	 0.875587945971987 
1228	 0.875170384027267 
1229	 0.874431348465571 
1230	 0.873903233647148 
1231	 0.873685705477924 
1232	 0.873340652776168 
1233	 0.87318898459264 
1234	 0.872687666595716 
1235	 0.871990207637534 
1236	 0.871392193272332 
1237	 0.870540295684666 
1238	 0.870032656065541 
1239	 0.86991661151499 
1240	 0.869380213725039 
1241	 0.868768262595041 
1242	 0.868124320133581 
1243	 0.867130041292868 
1244	 0.866395566621568 
1245	 0.865914876885578 
1246	 0.865258633686179 
1247	 0.864520484878595 
1248	 0.863842636923391 
1249	 0.863159890833504 
1250	 0.862424192935065 
1251	 0.861618194939806 
1252	 0.860941227319289 
1253	 0.860305573314846 
1254	 0.859639239354924 
1255	 0.858994865906125 
1256	 0.858586099219117 
1257	 0.857827119027451 
1258	 0.85675013300335 
1259	 0.855936012010329 
1260	 0.855161277564485 
1261	 0.854269346072579 
1262	 0.853284439520555 
1263	 0.852578037304773 
1264	 0.851939633463019 
1265	 0.851254846791439 
1266	 0.850818506735277 
1267	 0.850341755124503 
1268	 0.849695598667037 
1269	 0.849163544891651 
1270	 0.848762261744247 
1271	 0.848449882575538 
1272	 0.84812005987809 
1273	 0.848011994809002 
1274	 0.847672727505216 
1275	 0.847371814208527 
1276	 0.847089192138887 
1277	 0.846609285973526 
1278	 0.846391890422253 
1279	 0.846392960158081 
1280	 0.84632693695317 
1281	 0.846335901987471 
1282	 0.846239820835667 
1283	 0.846164922698667 
1284	 0.846015727849428 
1285	 0.845727193891985 
1286	 0.8455259188907 
1287	 0.845365915981759 
1288	 0.845160674225055 
1289	 0.844919404059356 
1290	 0.844728531958292 
1291	 0.844569558545525 
1292	 0.844360777181716 
1293	 0.844092909126707 
1294	 0.843931902717223 
1295	 0.84398784003594 
1296	 0.84373227423265 
1297	 0.843390022510311 
1298	 0.842989150785158 
1299	 0.842679326718295 
1300	 0.842129403064166 
1301	 0.841830515887867 
1302	 0.841903141333771 
1303	 0.841558606166752 
1304	 0.840958731905811 
1305	 0.840555429369207 
1306	 0.839992131458324 
1307	 0.839701368893748 
1308	 0.839748643208274 
1309	 0.839541781413972 
1310	 0.83933956032608 
1311	 0.839087706947577 
1312	 0.838660727379826 
1313	 0.838327485837194 
1314	 0.838037170134519 
1315	 0.837767703293392 
1316	 0.837552251530475 
1317	 0.837285634080166 
1318	 0.83700187006314 
1319	 0.836728544381716 
1320	 0.836410084048261 
1321	 0.836233839174753 
1322	 0.835655007565266 
1323	 0.834926700260462 
1324	 0.834198763473521 
1325	 0.833157822595403 
1326	 0.832249794938535 
1327	 0.831388927351978 
1328	 0.830543135920395 
1329	 0.829500986552986 
1330	 0.828801449691899 
1331	 0.828425313010352 
1332	 0.827901841103916 
1333	 0.827483747690985 
1334	 0.82701332685753 
1335	 0.826560490746716 
1336	 0.826025783670054 
1337	 0.825750194947975 
1338	 0.824901374495027 
1339	 0.823519321035458 
1340	 0.822163378299736 
1341	 0.820477591079714 
1342	 0.818398168595723 
1343	 0.815797136909944 
1344	 0.812889308834439 
1345	 0.809087068212794 
1346	 0.803982218031897 
1347	 0.798735865940897 
1348	 0.792900567766887 
1349	 0.786794118494109 
1350	 0.77992233380192 
1351	 0.772200140165682 
1352	 0.764062382700225 
1353	 0.753909347909494 
1354	 0.74222988739964 
1355	 0.728528781467767 
1356	 0.717238444161872 
1357	 0.702740142292639 
1358	 0.704503657275668 
1359	 0.688876729846423 
1360	 0.671261327480744 
1361	 0.650836979043326 
1362	 0.62985355139448 
1363	 0.598685074819247 
1364	 0.602200355160423 
1365	 0.599850257203444 
1366	 0.585603617214912 
1367	 0.588794748762032 
1368	 0.618219843136835 
1369	 0.627548949344883 
1370	 0.634180794182936 
1371	 0.635538192751908 
1372	 0.62562517090024 
1373	 0.62514875079488 
1374	 0.626214846540709 
1375	 0.628637685308651 
1376	 0.636822781676563 
1377	 0.645058728172859 
1378	 0.641625486234109 
1379	 0.628609275632789 
1380	 0.625172968717992 
1381	 0.615857359289079 
1382	 0.616765535216875 
1383	 0.627671207986529 
1384	 0.635294393663655 
1385	 0.645783556949928 
1386	 0.648457589800615 
1387	 0.647535756618768 
1388	 0.650567156908889 
1389	 0.648039130329325 
1390	 0.653571936200017 
1391	 0.66644520573619 
1392	 0.674096530545504 
1393	 0.681211232151518 
1394	 0.68972107341654 
1395	 0.698741789428494 
1396	 0.705734068575342 
1397	 0.71114948831743 
1398	 0.719252899801785 
1399	 0.726679268555451 
1400	 0.735426181035677 
1401	 0.749487230631629 
1402	 0.758527900633048 
1403	 0.761374082325029 
1404	 0.76895588173861 
1405	 0.776966738563837 
1406	 0.784310837463993 
1407	 0.793663063630295 
1408	 0.80419208450154 
1409	 0.811827396006635 
1410	 0.81903119147186 
1411	 0.829415886620923 
1412	 0.84184832925397 
1413	 0.850308445048461 
1414	 0.859321471916283 
1415	 0.865813731151879 
1416	 0.868700200422172 
1417	 0.87472594741626 
1418	 0.881291114283976 
1419	 0.888027444755802 
1420	 0.896015715806659 
1421	 0.902298465119095 
1422	 0.908406568317188 
1423	 0.913512433786441 
1424	 0.917564804152905 
1425	 0.922018336136255 
1426	 0.926866460161714 
1427	 0.930768803222041 
1428	 0.934709619058815 
1429	 0.937955843443999 
1430	 0.940921022517369 
1431	 0.942880339653607 
1432	 0.943902473932207 
1433	 0.945328557279451 
1434	 0.945504097382313 
1435	 0.946935707319477 
1436	 0.94992291668201 
1437	 0.95174217161908 
1438	 0.952796892160987 
1439	 0.954707463138146 
1440	 0.956279587910161 
1441	 0.95825585964045 
1442	 0.961345606912508 
1443	 0.963688663551141 
1444	 0.966089136608725 
1445	 0.969061890790001 
1446	 0.972509180951198 
1447	 0.976309406141546 
1448	 0.97906557049469 
1449	 0.98146937873102 
1450	 0.984011200328272 
1451	 0.985904504717527 
1452	 0.988369793140804 
1453	 0.991325602113255 
1454	 0.993780762102258 
1455	 0.996716475080328 
1456	 0.99805048616555 
1457	 0.998994609917068 
1458	 0.999199992204909 
1459	 0.998278764418241 
1460	 0.997358757820259 
1461	 0.995949295925665 
1462	 0.994626006153903 
1463	 0.992908662855222 
1464	 0.990956239693471 
1465	 0.988846000854099 
1466	 0.986632580758987 
1467	 0.983218856593519 
1468	 0.98143911883244 
1469	 0.980812683962471 
1470	 0.979881472692332 
1471	 0.980124665903148 
1472	 0.979668841684955 
1473	 0.97817942617338 
1474	 0.977841501109795 
1475	 0.978095413510826 
1476	 0.978297635194517 
1477	 0.979020600303239 
1478	 0.97967951710191 
1479	 0.980357462625714 
1480	 0.980890010410847 
1481	 0.981633097810397 
1482	 0.982096598779381 
1483	 0.981840832313534 
1484	 0.982275802042778 
1485	 0.982926235129469 
1486	 0.9837430645832 
1487	 0.985267715461167 
1488	 0.986300692683703 
1489	 0.986759180677254 
1490	 0.987631859249678 
1491	 0.989087697187792 
1492	 0.989808216342234 
1493	 0.99015183226574 
1494	 0.990430286789615 
1495	 0.990324583064919 
1496	 0.989277390816101 
1497	 0.989086987539915 
1498	 0.98933577015986 
1499	 0.989120784859492 
1500	 0.988901940910013 
1501	 0.988414572125748 
1502	 0.987678403820999 
1503	 0.986888758527198 
1504	 0.986085669010553 
1505	 0.984932353118296 
1506	 0.983491903449246 
1507	 0.982204277334537 
1508	 0.980574374163151 
1509	 0.979394362132335 
1510	 0.978535789283776 
1511	 0.977513818520631 
1512	 0.976597134874723 
1513	 0.975595957075627 
1514	 0.974588547447595 
1515	 0.973430329908535 
1516	 0.972013542918136 
1517	 0.970994414161894 
1518	 0.970142733772889 
1519	 0.969056509867832 
1520	 0.968217332714939 
1521	 0.967100570114998 
1522	 0.965521548395366 
1523	 0.964219612157828 
1524	 0.963032008632082 
1525	 0.961799424592602 
1526	 0.960520163640174 
1527	 0.959351061676621 
1528	 0.958303210410178 
1529	 0.957132376546972 
1530	 0.955864198446683 
1531	 0.954781695807972 
1532	 0.953861411934116 
1533	 0.952680962635905 
1534	 0.951389936371153 
1535	 0.950282579482372 
1536	 0.949256770202547 
1537	 0.947902274054098 
1538	 0.946344888115204 
1539	 0.945154570109275 
1540	 0.943866061433584 
1541	 0.942565458254428 
1542	 0.94191256320077 
1543	 0.94070418890443 
1544	 0.93867386307314 
1545	 0.937210869387564 
1546	 0.935901222699904 
1547	 0.934588600847749 
1548	 0.933581579139255 
1549	 0.932506258051761 
1550	 0.93127778439946 
1551	 0.930182833956477 
1552	 0.929413397210517 
1553	 0.928323907311516 
1554	 0.927042431030419 
1555	 0.925808360792509 
1556	 0.924199965309091 
1557	 0.92292569041635 
1558	 0.922028021000781 
1559	 0.920971239830247 
1560	 0.91998832443719 
1561	 0.918989774774107 
1562	 0.917803527372222 
1563	 0.916737812057208 
1564	 0.915815767198533 
1565	 0.914907573897787 
1566	 0.913715696252189 
1567	 0.91254593193338 
1568	 0.911567382374892 
1569	 0.910503115508388 
1570	 0.909664660510847 
1571	 0.909161655261374 
1572	 0.9084142799866 
1573	 0.90765275854564 
1574	 0.906735771868857 
1575	 0.905766284940561 
1576	 0.904754152689578 
1577	 0.903599211753789 
1578	 0.902520995145894 
1579	 0.901437184058021 
1580	 0.900491875542001 
1581	 0.899598467571582 
1582	 0.89866030011269 
1583	 0.897781341482751 
1584	 0.896988327021436 
1585	 0.89620586882457 
1586	 0.895338117525569 
1587	 0.894646328589584 
1588	 0.893613835493181 
1589	 0.892234120150123 
1590	 0.891181029037383 
1591	 0.890237195090082 
1592	 0.889004235069908 
1593	 0.887774604258371 
1594	 0.886457939598792 
1595	 0.884678137461101 
1596	 0.883624259068035 
1597	 0.882950104009566 
1598	 0.882101607177855 
1599	 0.881658833274719 
1600	 0.880617763575201 
1601	 0.879179270673375 
1602	 0.877988136691411 
1603	 0.87653610181297 
1604	 0.875565197461628 
1605	 0.874918220972834 
1606	 0.874186083265604 
1607	 0.873827235443001 
1608	 0.872810720532145 
1609	 0.87145127875039 
1610	 0.870315677954165 
1611	 0.868762472767287 
1612	 0.867874783955489 
1613	 0.867624209414334 
1614	 0.86669696453259 
1615	 0.865617860979603 
1616	 0.864773376412849 
1617	 0.863721641859559 
1618	 0.862804248705617 
1619	 0.862299268391321 
1620	 0.861372086617263 
1621	 0.859986825089649 
1622	 0.859123220857522 
1623	 0.85853304984363 
1624	 0.857586092190441 
1625	 0.85659499538472 
1626	 0.855852725961862 
1627	 0.855076006063109 
1628	 0.854131264769314 
1629	 0.853394233644891 
1630	 0.852430229851323 
1631	 0.850856050678197 
1632	 0.850080209705547 
1633	 0.849945651224903 
1634	 0.849144556931036 
1635	 0.848246272391197 
1636	 0.847494770651525 
1637	 0.846363120087344 
1638	 0.8457371019779 
1639	 0.845767755364113 
1640	 0.845062225108008 
1641	 0.843929205848964 
1642	 0.843418597210016 
1643	 0.842989957438898 
1644	 0.84236381782171 
1645	 0.842126426291316 
1646	 0.841522660922923 
1647	 0.840452456218896 
1648	 0.83957783922839 
1649	 0.838695930775108 
1650	 0.838170294400884 
1651	 0.837718318133972 
1652	 0.83718635420722 
1653	 0.837104313951495 
1654	 0.836509588627918 
1655	 0.835533952192283 
1656	 0.834561992572078 
1657	 0.833439990221037 
1658	 0.832258372773864 
1659	 0.831218512304616 
1660	 0.830479342111348 
1661	 0.829911845534805 
1662	 0.828786537491069 
1663	 0.827195616457579 
1664	 0.825391884259467 
1665	 0.82391453309855 
1666	 0.822784241757792 
1667	 0.821811222687398 
1668	 0.820981746134696 
1669	 0.819667993246259 
1670	 0.818618838974927 
1671	 0.817815821558112 
1672	 0.816452858731394 
1673	 0.815345103317059 
1674	 0.814429769914433 
1675	 0.813357973329091 
1676	 0.812667553669102 
1677	 0.812322959892775 
1678	 0.811325680159617 
1679	 0.810137330348657 
1680	 0.809323526824976 
1681	 0.808273543173874 
1682	 0.807851124719285 
1683	 0.807854175506822 
1684	 0.807907546628298 
1685	 0.808058345576001 
1686	 0.807427847553461 
1687	 0.806783151643604 
1688	 0.806267984238344 
1689	 0.805578105125074 
1690	 0.805691315841901 
1691	 0.805598759648029 
1692	 0.805363665607931 
1693	 0.805194531752652 
1694	 0.805141006405633 
1695	 0.80485886523751 
1696	 0.804267550833336 
1697	 0.803978756590814 
1698	 0.803374929183115 
1699	 0.803596094973299 
1700	 0.805159502400102 
1701	 0.805596874820846 
1702	 0.805847463110587 
1703	 0.805931705767146 
1704	 0.804712621094995 
1705	 0.804492510203946 
1706	 0.805107637941735 
1707	 0.805480486311444 
1708	 0.806097607451054 
1709	 0.80671825438794 
1710	 0.80738402701326 
1711	 0.807778700322134 
1712	 0.808265731254287 
1713	 0.808354256563473 
1714	 0.807874396021602 
1715	 0.807773715115036 
1716	 0.807710994594112 
1717	 0.807668495683604 
1718	 0.807295815877476 
1719	 0.807821936828096 
1720	 0.809111131600082 
1721	 0.809705710348409 
1722	 0.810886897555408 
1723	 0.811462692168047 
1724	 0.810975740434638 
1725	 0.811105676889766 
1726	 0.811420371383009 
1727	 0.81169977232393 
1728	 0.812019734445294 
1729	 0.812635897972901 
1730	 0.813553224903071 
1731	 0.814008593116852 
1732	 0.814213415919591 
1733	 0.813461391245997 
1734	 0.813263910993609 
1735	 0.813128851112923 
1736	 0.812554530876099 
1737	 0.812323056868535 
1738	 0.812889555090096 
1739	 0.8127441109074 
1740	 0.811956513336525 
1741	 0.811824210227126 
1742	 0.810884691309251 
1743	 0.810349402426095 
1744	 0.811349166665791 
1745	 0.811774627719906 
1746	 0.811469150948159 
1747	 0.811376989624975 
1748	 0.811576314199317 
1749	 0.811916382979247 
1750	 0.813103388155379 
1751	 0.814549000702636 
1752	 0.814630734689394 
1753	 0.81508015674961 
1754	 0.815771507234841 
1755	 0.815490970440664 
1756	 0.815941887202631 
1757	 0.815693362807429 
1758	 0.815749330106614 
1759	 0.816515269009217 
1760	 0.816927217251826 
1761	 0.817613619996855 
1762	 0.81763859598243 
1763	 0.816788759415401 
1764	 0.816730461817566 
1765	 0.816507208345552 
1766	 0.81654479944352 
1767	 0.817444876515691 
1768	 0.81782704738264 
1769	 0.817956981460345 
1770	 0.817995755535497 
1771	 0.817836211327355 
1772	 0.817458281806634 
1773	 0.816933598450641 
1774	 0.816587394831353 
1775	 0.816283031609961 
1776	 0.815732054979932 
1777	 0.814414650145274 
1778	 0.812064719584135 
1779	 0.81049159700139 
1780	 0.809764938593844 
1781	 0.808436867304271 
1782	 0.807717922115936 
1783	 0.807786880811397 
1784	 0.807836683091646 
1785	 0.808046671227617 
1786	 0.808252046878649 
1787	 0.806391833970665 
1788	 0.802867887135158 
1789	 0.799856641964608 
1790	 0.797169638933069 
1791	 0.795540917880883 
1792	 0.79405741570672 
1793	 0.791237958901977 
1794	 0.787721234986079 
1795	 0.78326439858894 
1796	 0.779646597392924 
1797	 0.777762397739754 
1798	 0.775064382862022 
1799	 0.772074709788351 
1800	 0.768572437384369 
1801	 0.763213968557753 
1802	 0.755564167179201 
1803	 0.751463088741328 
1804	 0.751680375971598 
1805	 0.749056387319886 
1806	 0.748780511426675 
1807	 0.745013071965447 
1808	 0.736353906425318 
1809	 0.72952871165367 
1810	 0.724528031902123 
1811	 0.718429683293519 
1812	 0.71363757490319 
1813	 0.715444077421478 
1814	 0.71062830119125 
1815	 0.698186851821418 
1816	 0.691615793244782 
1817	 0.685528920603703 
1818	 0.68080194805464 
1819	 0.67846587395908 
1820	 0.68437520903208 
1821	 0.683252097669737 
1822	 0.681562256951035 
1823	 0.676209539531222 
1824	 0.659504317755221 
1825	 0.654063373347483 
1826	 0.654028241661544 
1827	 0.651321443077883 
1828	 0.651808190337269 
1829	 0.673896276605028 
1830	 0.672343970519173 
1831	 0.644304157278206 
1832	 0.625921443707359 
1833	 0.595804497211211 
1834	 0.546879804262313 
1835	 0.46593425213304 
1836	 0.436666267473614 
1837	 0.465423570227892 
1838	 0.484011908061364 
1839	 0.530792313994079 
1840	 0.701048902083317 
1841	 0.766477601090248 
1842	 0.787265000100008 
1843	 0.767833262305718 
1844	 0.672981880883212 
1845	 0.638321951563706 
1846	 0.572989761193577 
1847	 0.529719313916403 
1848	 0.503788537023986 
1849	 0.513993421292614 
1850	 0.525647565205414 
1851	 0.562273931055271 
1852	 0.563760489664661 
1853	 0.585824009674375 
1854	 0.561529541233843 
1855	 0.431474256051522 
1856	 0.426529498859223 
1857	 0.442115626526839 
1858	 0.519815311659993 
1859	 0.553934749195094 
1860	 0.64774406303894 
1861	 0.657162604377907 
1862	 0.59180146435703 
1863	 0.584839404792464 
1864	 0.565208836920202 
1865	 0.587120956442897 
1866	 0.706092857938093 
1867	 0.770572330878609 
1868	 0.796301277554221 
1869	 0.814476972822243 
1870	 0.763763540102367 
1871	 0.539325246183653 
1872	 0.517627147601087 
1873	 0.57243980462915 
1874	 0.580994582043411 
1875	 0.634092818186376 
1876	 0.660572008290493 
1877	 0.642423500726228 
1878	 0.664964639137712 
1879	 0.679871145440196 
1880	 0.718214334587332 
1881	 0.729110569659114 
1882	 0.73192582256234 
1883	 0.723176582427252 
1884	 0.695273706214511 
1885	 0.690273604772046 
1886	 0.686336001021751 
1887	 0.686385176088029 
1888	 0.691441038886614 
1889	 0.705100164944309 
1890	 0.721301959356134 
1891	 0.748562450593587 
1892	 0.752225028597782 
1893	 0.752926655572439 
1894	 0.749126893601679 
1895	 0.709222333235596 
1896	 0.701175166374239 
1897	 0.709498750393975 
1898	 0.722828767814081 
1899	 0.817101837915691 
1900	 0.868017484160653 
1901	 0.912660811602347 
1902	 0.958616368894942 
1903	 1.00530951942405 
1904	 0.964648627510324 
1905	 0.988642032012902 
1906	 1.04926179150278 
1907	 1.13367080698099 
1908	 1.15156553016832 
1909	 1.10276931180928 
1910	 1.01914454302057 
1911	 0.951670726338582 
1912	 0.941938103962776 
1913	 0.948474956391592 
1914	 0.949043538711288 
1915	 0.977911760782234 
1916	 0.984951387587839 
1917	 0.975854478472959 
1918	 0.972881134303563 
1919	 0.988146977789858 
1920	 0.980734875463595 
1921	 0.971211547205801 
1922	 0.973951252677857 
1923	 0.976148723664322 
1924	 0.970496393495669 
1925	 0.978729513478101 
1926	 1.00214802135047 
1927	 1.01610856472558 
1928	 1.02955721019219 
1929	 1.04950302544978 
1930	 1.06005977426783 
1931	 1.05212698293902 
1932	 1.04696177243915 
1933	 1.04993040744913 
1934	 1.05559302194255 
1935	 1.06627608805991 
1936	 1.07378904522839 
1937	 1.08511006924531 
1938	 1.08884741951134 
1939	 1.08844552755418 
1940	 1.08794111425416 
1941	 1.08663706655202 
1942	 1.08685009871815 
1943	 1.0903949919107 
1944	 1.09249548536862 
1945	 1.10121048144329 
1946	 1.10204393736831 
1947	 1.10560029425089 
1948	 1.114138687809 
1949	 1.11725727386499 
1950	 1.11425654765758 
1951	 1.12129436126579 
1952	 1.12160970433425 
1953	 1.11106357751751 
1954	 1.1114237561707 
1955	 1.11342558077355 
1956	 1.11296306168344 
1957	 1.11810308096604 
1958	 1.12159770070447 
1959	 1.12169355963172 
1960	 1.12365661713912 
1961	 1.12736340076981 
1962	 1.131966924464 
1963	 1.13273835212494 
1964	 1.13207805990479 
1965	 1.1308462840494 
1966	 1.12638243626823 
1967	 1.12450884751512 
1968	 1.12330213022248 
1969	 1.122193173442 
1970	 1.12271954825169 
1971	 1.12230677520714 
1972	 1.12136919998929 
1973	 1.11993752421807 
1974	 1.12007830679505 
1975	 1.11923170099101 
1976	 1.11747217743146 
1977	 1.11492523355363 
1978	 1.11038703071204 
1979	 1.10653423610714 
1980	 1.1025514998079 
1981	 1.09897895812809 
1982	 1.09752803329521 
1983	 1.09872420604542 
1984	 1.09637572821177 
1985	 1.0949787779622 
1986	 1.09599390177448 
1987	 1.09271137820046 
1988	 1.08963576900036 
1989	 1.0863835236051 
1990	 1.08156497707291 
1991	 1.07791223846939 
1992	 1.07622292405842 
1993	 1.0754482199494 
1994	 1.07404362845056 
1995	 1.07218996690757 
1996	 1.06955786808945 
1997	 1.06627478451285 
1998	 1.06475489221184 
1999	 1.06241351908634 
2000	 1.06016257362696 
2001	 1.06132187862981 
2002	 1.05995942064596 
2003	 1.05865669987572 
2004	 1.05982966077275 
2005	 1.05662145831565 
2006	 1.05360920447934 
2007	 1.04863599330725 
2008	 1.04674209368282 
2009	 1.04625306888819 
2010	 1.04765109382158 
2011	 1.04661949694643 
2012	 1.04407397550559 
2013	 1.0408635476524 
2014	 1.03701802315623 
2015	 1.04012209477808 
2016	 1.04370315010856 
2017	 1.04353406384723 
2018	 1.04214106760532 
2019	 1.03978416901735 
2020	 1.03376855527528 
2021	 1.03034382399713 
2022	 1.03190413286352 
2023	 1.03381132583497 
2024	 1.03672216672577 
2025	 1.03941244475823 
2026	 1.04000323616541 
2027	 1.04137401426984 
2028	 1.04283727227036 
2029	 1.04344077421065 
2030	 1.04377575501764 
2031	 1.04398570078863 
2032	 1.04389142005935 
2033	 1.04352771006565 
2034	 1.04223798368968 
2035	 1.04210430019695 
2036	 1.04338834209727 
2037	 1.04348127463267 
2038	 1.04443958649125 
2039	 1.04550443885627 
2040	 1.04513681009641 
2041	 1.04674277494588 
2042	 1.04888566722337 
2043	 1.04867451419848 
2044	 1.04844122361222 
2045	 1.0487470361753 
2046	 1.04808575811663 
2047	 1.04716064526239 
2048	 1.04947797691645 
2049	 1.05077128559431 
2050	 1.05001053031973 
2051	 1.05268475522963 
2052	 1.05477363744883 
2053	 1.05619166671348 
2054	 1.05773654160586 
2055	 1.05514792257474 
2056	 1.05366402082325 
2057	 1.05464349343195 
2058	 1.0542079833466 
2059	 1.05394012592043 
2060	 1.05503499307048 
2061	 1.05461417040072 
2062	 1.05260246683793 
2063	 1.05190580905404 
2064	 1.05102713949564 
2065	 1.04980725659992 
2066	 1.04882545268658 
2067	 1.04785271902346 
2068	 1.04775420257758 
2069	 1.0490299540663 
2070	 1.0488591638778 
2071	 1.04824487904505 
2072	 1.04916715780968 
2073	 1.05121763493274 
2074	 1.05213606447372 
2075	 1.05200598113078 
2076	 1.05238060386147 
2077	 1.05217131133156 
2078	 1.05086382692385 
2079	 1.05153990607279 
2080	 1.05297247033176 
2081	 1.05326564302945 
2082	 1.05295545847488 
2083	 1.04982460429719 
2084	 1.04715138367247 
2085	 1.0459234385982 
2086	 1.04523087683304 
2087	 1.04496478760645 
2088	 1.04681192234571 
2089	 1.04782025346682 
2090	 1.04645226975416 
2091	 1.04456737239448 
2092	 1.04501393260067 
2093	 1.04384105629234 
2094	 1.04148658390041 
2095	 1.04145585442037 
2096	 1.03885785851729 
2097	 1.0370510084634 
2098	 1.03740694826939 
2099	 1.03467248043723 
2100	 1.03315138305188 
2101	 1.03314303871721 
2102	 1.03190672961924 
2103	 1.03012531305352 
2104	 1.03005168321145 
2105	 1.02950439948494 
2106	 1.02770627758831 
2107	 1.02858560603586 
2108	 1.02998104921695 
2109	 1.02893270900742 
2110	 1.02766207099957 
2111	 1.02580544911289 
2112	 1.02121730401526 
2113	 1.01793500200667 
2114	 1.01691718636847 
2115	 1.01357522632928 
2116	 1.01215210165033 
2117	 1.0116285031203 
2118	 1.01212354408785 
2119	 1.01061348959091 
2120	 1.0094057125712 
2121	 1.00877629875557 
2122	 1.00472154163261 
2123	 1.0021130989485 
2124	 1.00084643756636 
2125	 0.998209239141601 
2126	 0.998312849212888 
2127	 0.999086477110916 
2128	 0.99736184011641 
2129	 0.995758076899659 
2130	 0.993465547652144 
2131	 0.989722181158789 
2132	 0.986588820928335 
2133	 0.983249325131217 
2134	 0.980125878200802 
2135	 0.976519602400685 
2136	 0.973059412144877 
2137	 0.97061389658878 
2138	 0.970098388035105 
2139	 0.968496321219565 
2140	 0.966281723949956 
2141	 0.964862545994173 
2142	 0.963423402566759 
2143	 0.964187407064186 
2144	 0.965421809700396 
2145	 0.965665598126136 
2146	 0.966170794586547 
2147	 0.965762329315081 
2148	 0.963384197261333 
2149	 0.960241828428163 
2150	 0.958991432097708 
2151	 0.95810524105096 
2152	 0.9574889788573 
2153	 0.957215156989619 
2154	 0.959282866544985 
2155	 0.957906610700576 
2156	 0.954581089801064 
2157	 0.951302349081632 
2158	 0.947576488146283 
2159	 0.94541170689361 
2160	 0.945381679987459 
2161	 0.94565501146531 
2162	 0.947057780748663 
2163	 0.947893248356569 
2164	 0.946794175254076 
2165	 0.946209709172834 
2166	 0.944883631505492 
2167	 0.943291996004044 
2168	 0.942385055173496 
2169	 0.941817009847451 
2170	 0.941506044452166 
2171	 0.941401070848726 
2172	 0.94243272755872 
2173	 0.943034988796414 
2174	 0.942901740787087 
2175	 0.943613860169533 
2176	 0.94362526741705 
2177	 0.943787015033283 
2178	 0.943409190415509 
2179	 0.940807871256788 
2180	 0.938077752627632 
2181	 0.93579868087113 
2182	 0.93482261241561 
2183	 0.936240712409105 
2184	 0.93637780933991 
2185	 0.934170662813669 
2186	 0.932030607658075 
2187	 0.930283426853669 
2188	 0.927706433273796 
2189	 0.926922781273769 
2190	 0.927726307130366 
2191	 0.926992829506599 
2192	 0.927065688105048 
2193	 0.926422581573629 
2194	 0.925527662101663 
2195	 0.925496000323786 
2196	 0.924395704700762 
2197	 0.921803191825756 
2198	 0.920228814815818 
2199	 0.920498723503907 
2200	 0.920661066566288 
2201	 0.922296515938412 
2202	 0.923852205917887 
2203	 0.921084358767662 
2204	 0.918590746669065 
2205	 0.918048324118024 
2206	 0.915849058438298 
2207	 0.915202464938071 
2208	 0.915590847074014 
2209	 0.917841887206342 
2210	 0.917877848230033 
2211	 0.917588816562956 
2212	 0.918565214794236 
2213	 0.916647405840535 
2214	 0.912803679604693 
2215	 0.90990956644579 
2216	 0.906094576924574 
2217	 0.904557314499579 
2218	 0.904890678231186 
2219	 0.90406748291813 
2220	 0.904191823621961 
2221	 0.905194618789678 
2222	 0.905868047750169 
2223	 0.904693466371263 
2224	 0.905039099256121 
2225	 0.904153303801092 
2226	 0.902588014243411 
2227	 0.90483636147804 
2228	 0.904748968123212 
2229	 0.904244201346565 
2230	 0.904501061535786 
2231	 0.904728344909069 
2232	 0.906125493910672 
2233	 0.906054954439604 
2234	 0.904879156511697 
2235	 0.904751207389961 
2236	 0.905392539868267 
2237	 0.906122273637243 
2238	 0.907208356113987 
2239	 0.907203026176059 
2240	 0.907067076554692 
2241	 0.905499599213438 
2242	 0.904815308151592 
2243	 0.903055517616438 
2244	 0.898015321940009 
2245	 0.894142098299795 
2246	 0.891102081700629 
2247	 0.889679576894344 
2248	 0.890050511803566 
2249	 0.890190271949805 
2250	 0.891512605255751 
2251	 0.892121102628614 
2252	 0.890551917631948 
2253	 0.886269829358512 
2254	 0.882726304160327 
2255	 0.882750076419428 
2256	 0.880329618044967 
2257	 0.877471676264722 
2258	 0.876841612803773 
2259	 0.873888915227827 
2260	 0.866565332608302 
2261	 0.863927897240244 
2262	 0.863624748438212 
2263	 0.864279811828778 
2264	 0.865464274089683 
2265	 0.865269133480501 
2266	 0.862607781086187 
2267	 0.860362473516849 
2268	 0.859978222827362 
2269	 0.856841643504559 
2270	 0.855507582780504 
2271	 0.855486881334134 
2272	 0.851776713066966 
2273	 0.851502920446057 
2274	 0.85252116310382 
2275	 0.849581496929503 
2276	 0.84739607704509 
2277	 0.848371379696345 
2278	 0.847124024770585 
2279	 0.842101588485573 
2280	 0.841560585408855 
2281	 0.840991481476206 
2282	 0.839568182961809 
2283	 0.843762447795071 
2284	 0.843377965532245 
2285	 0.836259367055866 
2286	 0.83347817908068 
2287	 0.831421615751799 
2288	 0.829759626291796 
2289	 0.827367723806526 
2290	 0.832061481223275 
2291	 0.835332012042988 
2292	 0.83209329774436 
2293	 0.836163760659481 
2294	 0.839067066361839 
2295	 0.835335661986422 
2296	 0.836901433597004 
2297	 0.834564915517751 
2298	 0.829627718745091 
2299	 0.828193478554761 
2300	 0.825690980463034 
2301	 0.828941263123175 
2302	 0.833872492267827 
2303	 0.836152246559569 
2304	 0.839433556017463 
2305	 0.838545296705039 
2306	 0.834219629679416 
2307	 0.836052408870745 
2308	 0.84102593299148 
2309	 0.845664585337735 
2310	 0.856652020771146 
2311	 0.864708144213713 
2312	 0.867366712143024 
2313	 0.872190748958662 
2314	 0.873058437843202 
2315	 0.869138865666053 
2316	 0.863554067115157 
2317	 0.860310420631303 
2318	 0.861782075568453 
2319	 0.863023244147865 
2320	 0.870368231875466 
2321	 0.875657076104234 
2322	 0.876816065466152 
2323	 0.878269921016536 
2324	 0.881030649539152 
2325	 0.884798858530249 
2326	 0.883477518479721 
2327	 0.884186533971642 
2328	 0.881907792932783 
2329	 0.87847443731329 
2330	 0.879728502794833 
2331	 0.881892199999565 
2332	 0.88353056940143 
2333	 0.880672152685013 
2334	 0.879331782798481 
2335	 0.881463090158016 
2336	 0.885922790693274 
2337	 0.890662630686505 
2338	 0.883274169346006 
2339	 0.877848524542435 
2340	 0.876568167896509 
2341	 0.871321058072272 
2342	 0.867383884305111 
2343	 0.862584645508632 
2344	 0.858610554000487 
2345	 0.858591687788341 
2346	 0.867705150047197 
2347	 0.875216332581689 
2348	 0.876436829978908 
2349	 0.880526704668675 
2350	 0.885338342323756 
2351	 0.887107488573677 
2352	 0.884798307978659 
2353	 0.884928977465498 
2354	 0.880370283981857 
2355	 0.878737471241405 
2356	 0.889657266032124 
2357	 0.891950716457419 
2358	 0.892901090014014 
2359	 0.893945571761696 
2360	 0.883250705348322 
2361	 0.881782531731007 
2362	 0.884896170864047 
2363	 0.882152296558804 
2364	 0.886063365494279 
2365	 0.892915237036218 
2366	 0.89139081086653 
2367	 0.891863584160605 
2368	 0.901759938403216 
2369	 0.902144353852266 
2370	 0.909419514173277 
2371	 0.923356436787582 
2372	 0.927152060449186 
2373	 0.924376325279288 
2374	 0.923568521973669 
2375	 0.914636815290339 
2376	 0.910421512317631 
2377	 0.905569553804115 
2378	 0.902283412390477 
2379	 0.902988484178345 
2380	 0.903545756200998 
2381	 0.908416089365389 
2382	 0.911728572632994 
2383	 0.911524621092417 
2384	 0.910318459929148 
2385	 0.909564208440389 
2386	 0.903688816514597 
2387	 0.888777884173935 
2388	 0.890101951939229 
2389	 0.903055047395015 
2390	 0.908290783520799 
2391	 0.914602316409602 
2392	 0.922895577153815 
2393	 0.925584059723107 
2394	 0.930496187827411 
2395	 0.949236739402588 
2396	 0.958357321896292 
2397	 0.960791146213284 
2398	 0.956611481883298 
2399	 0.943495120273844 
2400	 0.937009832135949 
2401	 0.925793488406116 
2402	 0.920379865426058 
2403	 0.926590887141769 
2404	 0.927356236545747 
2405	 0.926712994658593 
2406	 0.925396472203022 
2407	 0.922087634712415 
2408	 0.921617995434508 
2409	 0.932757792635599 
2410	 0.954931285222428 
2411	 0.960977652312825 
2412	 0.956095813946678 
2413	 0.968571094850844 
2414	 0.953713897367176 
2415	 0.940811978336217 
2416	 0.967094336406776 
2417	 0.967473850697887 
2418	 0.972359661833224 
2419	 0.996772488917921 
2420	 1.00298878531948 
2421	 0.998118187238709 
2422	 0.998190302422036 
2423	 1.00555222572104 
2424	 0.997553396074445 
2425	 0.978091529808812 
2426	 0.968671336834359 
2427	 0.958252158539008 
2428	 0.949787884883243 
2429	 0.975139936959564 
2430	 0.997640599391009 
2431	 1.01151715651029 
2432	 1.02890332467811 
2433	 1.0273297815283 
2434	 1.01478468154225 
2435	 0.982463411178604 
2436	 0.967579904657645 
2437	 0.934243400157559 
2438	 0.934941874531741 
2439	 0.973282097833234 
2440	 0.981483540318837 
2441	 1.00236220305509 
2442	 1.01231449057985 
2443	 0.997311447773965 
2444	 0.994031452915067 
2445	 0.988802348642905 
2446	 0.985026853629884 
2447	 0.984119044195259 
2448	 0.991874985219174 
2449	 1.02136089808371 
2450	 1.02971349639459 
2451	 1.00460563653092 
2452	 1.0019095566328 
2453	 1.0120507770707 
2454	 1.01833977221803 
2455	 1.05657205850808 
2456	 1.05642243075962 
2457	 1.01143826325117 
2458	 0.989227363005385 
2459	 0.959775745197068 
2460	 0.950287681832008 
2461	 0.95914743001236 
2462	 0.955203756169547 
2463	 0.94480921077785 
2464	 0.959234537932196 
2465	 0.991769705779824 
2466	 1.01779713910621 
2467	 1.06051392517596 
2468	 1.08916063812163 
2469	 1.11115125434593 
2470	 1.12020519993597 
2471	 1.1361403597298 
2472	 1.14644564665608 
2473	 1.09778566520128 
2474	 1.08097472910282 
2475	 1.10185222752812 
2476	 1.08007090141012 
2477	 1.05780833345568 
2478	 1.0191654807081 
2479	 0.865164017466255 
2480	 0.839100017992454 
2481	 0.923655910107584 
2482	 0.954855836588943 
2483	 1.10895220178751 
2484	 1.12700787074075 
2485	 0.914052318021436 
2486	 0.766741542566077 
2487	 0.906512940993388 
2488	 1.12467798826153 
2489	 1.28836996046454 
2490	 1.28888226022679 
2491	 1.26686464915415 
2492	 1.05106774669614 
2493	 0.802312807469285 
2494	 0.886567099886581 
2495	 0.926290957743124 
2496	 0.959881604026355 
2497	 1.12449258082396 
2498	 1.05667692793563 
2499	 1.21936163907992 
2500	 1.23456208616283 
