Wavelength	ref00108.asd
350	 0.966727948790208 
351	 0.965620295339895 
352	 0.998153257286833 
353	 0.97848707703281 
354	 0.988298768115592 
355	 0.991654432434907 
356	 0.965020598780322 
357	 0.949441009851168 
358	 0.982339654239464 
359	 1.0017231611482 
360	 0.954362222180892 
361	 0.965881103225635 
362	 0.973736936303014 
363	 0.968866324198485 
364	 0.977086165459867 
365	 0.97227442086463 
366	 0.967946541307953 
367	 0.969958288529944 
368	 0.967766894555544 
369	 0.960200020667588 
370	 0.961167312405515 
371	 0.975506296405777 
372	 0.971596642677393 
373	 0.961254450330121 
374	 0.957430449553235 
375	 0.967515228776049 
376	 0.954234020342631 
377	 0.946601608379909 
378	 0.954718264950369 
379	 0.960695147256102 
380	 0.963409199042885 
381	 0.956720019405571 
382	 0.943094767703083 
383	 0.947487169016281 
384	 0.95239059963595 
385	 0.954411904893062 
386	 0.955459563123738 
387	 0.950391081609117 
388	 0.94620113893188 
389	 0.946720994671711 
390	 0.951323583118977 
391	 0.952085192820774 
392	 0.954015343488854 
393	 0.959732913980595 
394	 0.961404310151725 
395	 0.956801986728752 
396	 0.951373334881009 
397	 0.950688782609973 
398	 0.947058885298814 
399	 0.946990704208381 
400	 0.948367897303615 
401	 0.943206549979072 
402	 0.947606920353548 
403	 0.949301455439171 
404	 0.942784310060195 
405	 0.943767177335134 
406	 0.943289275560546 
407	 0.941352081345317 
408	 0.940789650842048 
409	 0.944686982336996 
410	 0.942736274960092 
411	 0.937638386057805 
412	 0.942022525536192 
413	 0.942704618079579 
414	 0.941937061650524 
415	 0.941695305430253 
416	 0.938087082454186 
417	 0.937696748143763 
418	 0.939281991521082 
419	 0.939150504705377 
420	 0.935208282656578 
421	 0.934926840574352 
422	 0.938781981159326 
423	 0.940974882858622 
424	 0.939110729218232 
425	 0.936357091846047 
426	 0.93623854202853 
427	 0.941769620831988 
428	 0.941300820534311 
429	 0.938411720238523 
430	 0.939649644122954 
431	 0.936554207687491 
432	 0.934187705608225 
433	 0.933829756476416 
434	 0.933173406301042 
435	 0.933672652186368 
436	 0.934987158896297 
437	 0.935738325856665 
438	 0.932424019698731 
439	 0.932024821264745 
440	 0.932687416074853 
441	 0.930821897922584 
442	 0.931386062136492 
443	 0.930666366935523 
444	 0.929188858681872 
445	 0.931392065378847 
446	 0.930989093080426 
447	 0.929929025685413 
448	 0.930207683657104 
449	 0.930608345090632 
450	 0.928574422662096 
451	 0.926870056511653 
452	 0.929032079447001 
453	 0.928018429700766 
454	 0.927374536792791 
455	 0.928248360482478 
456	 0.928168329098737 
457	 0.927909241114589 
458	 0.926950514483941 
459	 0.925395799947602 
460	 0.925824267588751 
461	 0.926748406039221 
462	 0.927027806498498 
463	 0.926095215577726 
464	 0.926357215857114 
465	 0.927302039632728 
466	 0.927935339773384 
467	 0.927050534063746 
468	 0.926952224419331 
469	 0.926667827427222 
470	 0.925308124537535 
471	 0.925904173707372 
472	 0.926320254830345 
473	 0.925917273499567 
474	 0.925233713075988 
475	 0.924682188602774 
476	 0.924670100177141 
477	 0.924990826243738 
478	 0.924397025696949 
479	 0.923064092416355 
480	 0.92219678955379 
481	 0.922737407652627 
482	 0.922237877613806 
483	 0.923123409017397 
484	 0.925325708514783 
485	 0.926192821324295 
486	 0.926616250862083 
487	 0.925761105776761 
488	 0.92378191114794 
489	 0.9239670712766 
490	 0.923838123129295 
491	 0.923557517246906 
492	 0.92413481118393 
493	 0.924654131137574 
494	 0.924702780555856 
495	 0.924754834868695 
496	 0.926242425472059 
497	 0.926781286417068 
498	 0.926883167744234 
499	 0.927504801501748 
500	 0.928753058172153 
501	 0.92913837486183 
502	 0.928941553985763 
503	 0.929383960800313 
504	 0.929291840009654 
505	 0.928310854887011 
506	 0.92758340734446 
507	 0.930583611161386 
508	 0.931546247033734 
509	 0.930847148535054 
510	 0.930890118081157 
511	 0.934211865853554 
512	 0.93485099702567 
513	 0.932876673893792 
514	 0.933460750524511 
515	 0.934846652199672 
516	 0.937119010638338 
517	 0.939758673138125 
518	 0.940470930972335 
519	 0.939026003814945 
520	 0.937942157292916 
521	 0.939644184872623 
522	 0.93938159795427 
523	 0.939689694743743 
524	 0.941279838559207 
525	 0.942393550754592 
526	 0.942976376540567 
527	 0.943020608086447 
528	 0.942947320226169 
529	 0.94433325097373 
530	 0.944888706567611 
531	 0.944681085275126 
532	 0.945017091815451 
533	 0.94548559020034 
534	 0.946115374023377 
535	 0.946484299807034 
536	 0.945317341836181 
537	 0.945055605137679 
538	 0.945857129997592 
539	 0.946988924065947 
540	 0.947250569666903 
541	 0.948018468970652 
542	 0.948440209299879 
543	 0.946155735022252 
544	 0.946566941128396 
545	 0.947703219172805 
546	 0.947844112468674 
547	 0.948740260924604 
548	 0.949450596844458 
549	 0.950114257724135 
550	 0.950984514670639 
551	 0.950184348900192 
552	 0.949660302373416 
553	 0.950147335773927 
554	 0.950633906896831 
555	 0.949987765874536 
556	 0.949235744908853 
557	 0.949336617892047 
558	 0.949162545969784 
559	 0.948656436357184 
560	 0.948203767910856 
561	 0.94844452176334 
562	 0.949685264390617 
563	 0.949629880559921 
564	 0.948190976498709 
565	 0.949749392927349 
566	 0.95037134999305 
567	 0.949975447228315 
568	 0.949667788929311 
569	 0.949699050735678 
570	 0.949992329044499 
571	 0.950485657590704 
572	 0.951111495704698 
573	 0.950971023845295 
574	 0.95086293709008 
575	 0.951150676822663 
576	 0.950259906183921 
577	 0.949162912042637 
578	 0.948338835371359 
579	 0.947932771074803 
580	 0.947375424698015 
581	 0.94686411557417 
582	 0.946586473044582 
583	 0.946627606419142 
584	 0.94639211254962 
585	 0.945940443481435 
586	 0.945586058035723 
587	 0.945816621657041 
588	 0.946188012953197 
589	 0.946629564408213 
590	 0.947294615566288 
591	 0.947639673653629 
592	 0.947929950067343 
593	 0.948084007026762 
594	 0.947022122678363 
595	 0.947025357588896 
596	 0.947408985482717 
597	 0.946778310202901 
598	 0.945705187570941 
599	 0.944700125856623 
600	 0.943968288188688 
601	 0.943399196052051 
602	 0.942678866073498 
603	 0.941984698382049 
604	 0.941576575940619 
605	 0.94173666410487 
606	 0.941387681628952 
607	 0.941133012762519 
608	 0.942090199460129 
609	 0.94241523558974 
610	 0.942449123501295 
611	 0.942396129903153 
612	 0.941958439485858 
613	 0.942280483706849 
614	 0.942932979043788 
615	 0.943204674978423 
616	 0.943114138799223 
617	 0.942902000352139 
618	 0.942762044795683 
619	 0.942801990937184 
620	 0.942762040379225 
621	 0.942740047103722 
622	 0.942727360809586 
623	 0.942367897154755 
624	 0.942622812564641 
625	 0.942701372160572 
626	 0.941796441034829 
627	 0.94245148462401 
628	 0.942458113989772 
629	 0.941709732464167 
630	 0.942196835116449 
631	 0.942177342816838 
632	 0.941471429823557 
633	 0.94053155258765 
634	 0.940560911463823 
635	 0.941038761923926 
636	 0.94139145706684 
637	 0.941111988712833 
638	 0.940467534783853 
639	 0.940629410546743 
640	 0.94133540169712 
641	 0.940456744981403 
642	 0.939888692684035 
643	 0.93979949863823 
644	 0.939753305472559 
645	 0.938752338168577 
646	 0.938400538708705 
647	 0.93860556877501 
648	 0.938299410381193 
649	 0.938139294254244 
650	 0.938022073706992 
651	 0.937804782516667 
652	 0.937396367477962 
653	 0.937331662463144 
654	 0.937208840880085 
655	 0.936761307701337 
656	 0.937774599815554 
657	 0.938047327279533 
658	 0.937200203277184 
659	 0.936503729838681 
660	 0.936752463272492 
661	 0.936931877310388 
662	 0.936422464204651 
663	 0.935792658706987 
664	 0.935791699547814 
665	 0.935701522165708 
666	 0.934766560350823 
667	 0.93491978600765 
668	 0.934863711211717 
669	 0.934467428732769 
670	 0.934713778567102 
671	 0.934692529746327 
672	 0.934518662144113 
673	 0.934386348243236 
674	 0.934225958536248 
675	 0.934186639677078 
676	 0.933854825928839 
677	 0.932986228664506 
678	 0.933531770125768 
679	 0.934171909700902 
680	 0.934210975667386 
681	 0.933866568652074 
682	 0.9341860727215 
683	 0.934444326274661 
684	 0.93418525718456 
685	 0.934553513643577 
686	 0.935534469676952 
687	 0.936689719929573 
688	 0.937348402405102 
689	 0.938325816854391 
690	 0.938886500389452 
691	 0.938971961804135 
692	 0.939221101045373 
693	 0.93967751742418 
694	 0.940091049094879 
695	 0.940425442264065 
696	 0.941403081503139 
697	 0.942538832612731 
698	 0.943624122437458 
699	 0.944572323895087 
700	 0.94543307895577 
701	 0.945658359166764 
702	 0.945388831155388 
703	 0.945569843708455 
704	 0.945758148889924 
705	 0.945861063240941 
706	 0.945907754471147 
707	 0.946050148122279 
708	 0.946411181698907 
709	 0.946836624285527 
710	 0.94706707643524 
711	 0.94716249516414 
712	 0.947140749861806 
713	 0.94726701638289 
714	 0.948022800945216 
715	 0.947454435868118 
716	 0.946879288112819 
717	 0.947572047770576 
718	 0.948689073436099 
719	 0.94923246429278 
720	 0.948696951227486 
721	 0.947443445914177 
722	 0.947579595721218 
723	 0.948179913024 
724	 0.948520473005458 
725	 0.948216320971012 
726	 0.947842784659523 
727	 0.947482755948643 
728	 0.947289866983474 
729	 0.947992717232987 
730	 0.94804570060871 
731	 0.947794953537752 
732	 0.948098439687634 
733	 0.94830196779523 
734	 0.948068755329126 
735	 0.947656188469084 
736	 0.947766415344085 
737	 0.947725326007667 
738	 0.947322474517324 
739	 0.946851953118218 
740	 0.947543192028731 
741	 0.947703221048039 
742	 0.947435372063678 
743	 0.947380297483857 
744	 0.94758178336643 
745	 0.947577466277573 
746	 0.947445189100968 
747	 0.94762744188944 
748	 0.947735565043998 
749	 0.947316973946838 
750	 0.946544365764365 
751	 0.946613370288742 
752	 0.946315149344796 
753	 0.94634707948076 
754	 0.947167657848823 
755	 0.946587999623072 
756	 0.945845375913781 
757	 0.945177316605661 
758	 0.944476961057422 
759	 0.946578251754324 
760	 0.949155697963341 
761	 0.949459737140165 
762	 0.947613819240444 
763	 0.947547159472102 
764	 0.947938478119837 
765	 0.947583656451658 
766	 0.947378642853326 
767	 0.946566405063097 
768	 0.945948984699273 
769	 0.946202068463474 
770	 0.945298861961707 
771	 0.944824145404489 
772	 0.945167794625154 
773	 0.945515655873524 
774	 0.944765181237958 
775	 0.944388613724414 
776	 0.944926317803614 
777	 0.944692809698974 
778	 0.944255218819828 
779	 0.944222034950929 
780	 0.944792731239458 
781	 0.944710343759811 
782	 0.944519412412342 
783	 0.944618985175998 
784	 0.945095385212589 
785	 0.94456961001287 
786	 0.9441923723943 
787	 0.94427110165818 
788	 0.944024361418311 
789	 0.943874753443084 
790	 0.943933955452813 
791	 0.944116125171863 
792	 0.944042720927891 
793	 0.94405163204453 
794	 0.944100028721407 
795	 0.943965800192866 
796	 0.943138655359999 
797	 0.943194106278466 
798	 0.943652610989254 
799	 0.943113000235274 
800	 0.943401106514056 
801	 0.943114237464364 
802	 0.942215401807133 
803	 0.942443022961064 
804	 0.943111655680687 
805	 0.943021355146036 
806	 0.942016469029995 
807	 0.942251271415968 
808	 0.942105314253371 
809	 0.942164924369121 
810	 0.942941264875077 
811	 0.941919442861781 
812	 0.941512828422565 
813	 0.941750249188656 
814	 0.941427431025622 
815	 0.941853312442024 
816	 0.941989272920232 
817	 0.941424653671864 
818	 0.940712593372758 
819	 0.940326603884034 
820	 0.940525269724594 
821	 0.941120651711248 
822	 0.94133609068961 
823	 0.941616597753634 
824	 0.941119790512548 
825	 0.939654213712735 
826	 0.939609286660062 
827	 0.940315482451481 
828	 0.941069280341134 
829	 0.941172039928715 
830	 0.940443884714509 
831	 0.939913046224557 
832	 0.939982874905359 
833	 0.940407082417392 
834	 0.94033721448688 
835	 0.94014015026875 
836	 0.93999230886157 
837	 0.939690073344266 
838	 0.940057652389941 
839	 0.939958614248507 
840	 0.938992293378193 
841	 0.938886311592375 
842	 0.939375553197403 
843	 0.939596391034677 
844	 0.939094351643455 
845	 0.939485274474212 
846	 0.93917003127771 
847	 0.938540861995889 
848	 0.938692270537362 
849	 0.93930938290885 
850	 0.93945029364876 
851	 0.938992355748723 
852	 0.938572917319682 
853	 0.939186095413357 
854	 0.939527328207094 
855	 0.938732424079981 
856	 0.936981486898331 
857	 0.936637159675327 
858	 0.937011439231023 
859	 0.937310646150714 
860	 0.937470944375423 
861	 0.937001211141686 
862	 0.937003818743778 
863	 0.938044309874239 
864	 0.938324223262738 
865	 0.938707388404639 
866	 0.939205786375629 
867	 0.939401938629223 
868	 0.938388630377729 
869	 0.937257925726642 
870	 0.936650700975434 
871	 0.93681124389779 
872	 0.937702583543586 
873	 0.937892809306189 
874	 0.937344887191958 
875	 0.93701784598629 
876	 0.936677062605572 
877	 0.936873973230034 
878	 0.937201897798774 
879	 0.936517080448942 
880	 0.937106542080675 
881	 0.93700867623855 
882	 0.935956740540504 
883	 0.936597351884802 
884	 0.936378934847379 
885	 0.936124628975708 
886	 0.93655685184042 
887	 0.937001026271721 
888	 0.936845096105182 
889	 0.936174650306558 
890	 0.935501509243121 
891	 0.935795535491884 
892	 0.936157717049335 
893	 0.935878125030215 
894	 0.934851341157466 
895	 0.93457424472221 
896	 0.936134469837882 
897	 0.937717570023699 
898	 0.937354405589116 
899	 0.93908603000071 
900	 0.938658468632278 
901	 0.936201727742017 
902	 0.934482412159528 
903	 0.935581796617662 
904	 0.935605235296186 
905	 0.934449561970847 
906	 0.934495571566304 
907	 0.936230519156982 
908	 0.936290864763782 
909	 0.934925781435024 
910	 0.935251509257901 
911	 0.93494991850641 
912	 0.934539894151655 
913	 0.93413804932942 
914	 0.9333737890106 
915	 0.933809962384385 
916	 0.933384424494756 
917	 0.93253799828043 
918	 0.934346985009812 
919	 0.932969593576314 
920	 0.931965819198383 
921	 0.932506728428592 
922	 0.931221350254533 
923	 0.93174336922644 
924	 0.931756432411604 
925	 0.930853496303672 
926	 0.932868485879806 
927	 0.931383224346998 
928	 0.931812069894548 
929	 0.935949317128723 
930	 0.933817572987376 
931	 0.938860860620586 
932	 0.941493550866761 
933	 0.936180477382386 
934	 0.940833627115887 
935	 0.941892734418693 
936	 0.937153210634237 
937	 0.93120307289436 
938	 0.93344118726898 
939	 0.931527235050305 
940	 0.930411383011379 
941	 0.933123059572223 
942	 0.931838810334452 
943	 0.934509154291181 
944	 0.937259944730733 
945	 0.937033147294033 
946	 0.939038337725434 
947	 0.937298427307528 
948	 0.932539316890041 
949	 0.928672248017457 
950	 0.931377999141103 
951	 0.93264717896003 
952	 0.93204797540251 
953	 0.931093399066267 
954	 0.930787611646227 
955	 0.931307331821017 
956	 0.93243817046159 
957	 0.93356657651723 
958	 0.933738065027479 
959	 0.929635740345259 
960	 0.928931131879976 
961	 0.933806246708438 
962	 0.932426058549732 
963	 0.937067708954953 
964	 0.936793321689569 
965	 0.929150217156964 
966	 0.93275764646066 
967	 0.935562079082339 
968	 0.933837768700403 
969	 0.9297390495135 
970	 0.930956716014847 
971	 0.93399908681689 
972	 0.933623100925728 
973	 0.930542334447036 
974	 0.933398441270414 
975	 0.93048047510522 
976	 0.92963410055703 
977	 0.934055971214379 
978	 0.93634457562516 
979	 0.931808097009729 
980	 0.930156348594077 
981	 0.933833694960112 
982	 0.934805715868145 
983	 0.928639770100205 
984	 0.925281937300264 
985	 0.927407335566868 
986	 0.929087220352358 
987	 0.927624758498811 
988	 0.929406876454811 
989	 0.933212507651618 
990	 0.932318933099925 
991	 0.928913846360536 
992	 0.927147692903098 
993	 0.929532013112753 
994	 0.934969407073667 
995	 0.93292964275688 
996	 0.930810442362811 
997	 0.930412320987461 
998	 0.930430354895919 
999	 0.932485366620383 
1000	 0.927450251060333 
1001	 0.958205809505674 
1002	 0.958271281377712 
1003	 0.958408570122733 
1004	 0.958720534241615 
1005	 0.958687512689127 
1006	 0.958653763918297 
1007	 0.958738294252085 
1008	 0.958551125719153 
1009	 0.958376986998422 
1010	 0.958577353753957 
1011	 0.958530595285536 
1012	 0.957490504112532 
1013	 0.956886285308434 
1014	 0.956562975106688 
1015	 0.956242598196732 
1016	 0.956198856520305 
1017	 0.956267962327309 
1018	 0.95662895339851 
1019	 0.957508279806697 
1020	 0.95759882693696 
1021	 0.957684085065774 
1022	 0.957596116883017 
1023	 0.957045741449583 
1024	 0.956137788873318 
1025	 0.955942627209351 
1026	 0.956021335526212 
1027	 0.955741304989577 
1028	 0.955676695895183 
1029	 0.955515010311676 
1030	 0.955126097317181 
1031	 0.954906281160027 
1032	 0.954582899731751 
1033	 0.954155552017713 
1034	 0.95350536520265 
1035	 0.953122349700574 
1036	 0.952681735685733 
1037	 0.95241665835149 
1038	 0.952415984375041 
1039	 0.95220886035936 
1040	 0.951998360940577 
1041	 0.951974026395559 
1042	 0.951765813727589 
1043	 0.951893802931522 
1044	 0.951894405191363 
1045	 0.951338534252014 
1046	 0.950704381703376 
1047	 0.950046893938234 
1048	 0.949613967109615 
1049	 0.949941136724878 
1050	 0.950022346069506 
1051	 0.950402533288595 
1052	 0.950245855440968 
1053	 0.95002527479119 
1054	 0.949646038021288 
1055	 0.949713699638813 
1056	 0.950252087300028 
1057	 0.950486263830544 
1058	 0.95098191531551 
1059	 0.951487875454925 
1060	 0.951265849919703 
1061	 0.951168573158423 
1062	 0.951381862074636 
1063	 0.951557678324861 
1064	 0.952275993365369 
1065	 0.952800312053007 
1066	 0.953732983250992 
1067	 0.954147597749674 
1068	 0.953940629899439 
1069	 0.953430983487685 
1070	 0.953693791493115 
1071	 0.95410499954372 
1072	 0.954166214323799 
1073	 0.954756125237879 
1074	 0.955033450976516 
1075	 0.954665719541713 
1076	 0.954618737345383 
1077	 0.954842580853553 
1078	 0.955167216317137 
1079	 0.955565326664012 
1080	 0.956108015416506 
1081	 0.956411573839897 
1082	 0.956560054526726 
1083	 0.956308790763407 
1084	 0.956334119178687 
1085	 0.956651429985186 
1086	 0.956825906997696 
1087	 0.957039086096758 
1088	 0.957395227914226 
1089	 0.95730530947357 
1090	 0.957188482979043 
1091	 0.957214253783269 
1092	 0.95706610151129 
1093	 0.95696392703806 
1094	 0.957008262628497 
1095	 0.957330910222838 
1096	 0.957593211355107 
1097	 0.958049489592949 
1098	 0.95806219571738 
1099	 0.957874367542288 
1100	 0.957802539095075 
1101	 0.957345597016618 
1102	 0.957355768673106 
1103	 0.957838786179864 
1104	 0.95767953173461 
1105	 0.957649566057893 
1106	 0.957855251252685 
1107	 0.957821483276157 
1108	 0.957637507943834 
1109	 0.957675751977012 
1110	 0.95762070231701 
1111	 0.957437604665972 
1112	 0.957131704098395 
1113	 0.957134942325342 
1114	 0.95718307868228 
1115	 0.957173132020388 
1116	 0.957299183327648 
1117	 0.957520066659699 
1118	 0.957846263991031 
1119	 0.957339062716519 
1120	 0.956804271887085 
1121	 0.956579483542693 
1122	 0.955907553811757 
1123	 0.955515297670827 
1124	 0.955555735302425 
1125	 0.95545760914943 
1126	 0.955634258396267 
1127	 0.956199486483029 
1128	 0.956306339735494 
1129	 0.95651803896307 
1130	 0.956420320743855 
1131	 0.955629811973437 
1132	 0.955561283382166 
1133	 0.955699942655039 
1134	 0.955969500423971 
1135	 0.956339174784582 
1136	 0.956351584329364 
1137	 0.956420409838205 
1138	 0.956052315633016 
1139	 0.955666897742605 
1140	 0.955703674266325 
1141	 0.955273491224364 
1142	 0.955469936708495 
1143	 0.95557444509659 
1144	 0.955818884621912 
1145	 0.955839970776623 
1146	 0.955998695278888 
1147	 0.955742726232445 
1148	 0.954892497874969 
1149	 0.954827161048439 
1150	 0.95528934917111 
1151	 0.955190959813882 
1152	 0.95514008796349 
1153	 0.95505644097857 
1154	 0.954757777205197 
1155	 0.954500223758949 
1156	 0.954508974144413 
1157	 0.954813433190271 
1158	 0.954817645159798 
1159	 0.954213265730332 
1160	 0.953967127427139 
1161	 0.953632509037389 
1162	 0.953613998978166 
1163	 0.953978966846661 
1164	 0.95395181608432 
1165	 0.953846193605977 
1166	 0.953779270839379 
1167	 0.953480885696563 
1168	 0.953311959371857 
1169	 0.953291525096785 
1170	 0.953258138944946 
1171	 0.95311616605314 
1172	 0.953142044204602 
1173	 0.95329692555651 
1174	 0.953459030658254 
1175	 0.953486896040343 
1176	 0.953302674657478 
1177	 0.953128763768009 
1178	 0.952731773741443 
1179	 0.952524221720077 
1180	 0.952420836555613 
1181	 0.952260655267366 
1182	 0.952072397214958 
1183	 0.951977024951803 
1184	 0.951911401248515 
1185	 0.951794984885481 
1186	 0.951686699990385 
1187	 0.951656730534748 
1188	 0.951588000419127 
1189	 0.95164931572627 
1190	 0.951705410194259 
1191	 0.951761269192482 
1192	 0.951903663834079 
1193	 0.951893875552081 
1194	 0.951813042016976 
1195	 0.951686705145341 
1196	 0.951642889212233 
1197	 0.951458691689634 
1198	 0.951434478678019 
1199	 0.951650966173528 
1200	 0.951689834399071 
1201	 0.951697692069005 
1202	 0.951602275514497 
1203	 0.951322271321344 
1204	 0.951213727089238 
1205	 0.951121170121445 
1206	 0.951046603600085 
1207	 0.95118928884213 
1208	 0.951145570378979 
1209	 0.950929274389787 
1210	 0.950734699613823 
1211	 0.950647782085908 
1212	 0.950630489036574 
1213	 0.950549318834257 
1214	 0.95050902184522 
1215	 0.950537116856894 
1216	 0.950481746265131 
1217	 0.95059067192439 
1218	 0.950927662274764 
1219	 0.951105740222338 
1220	 0.951377426666038 
1221	 0.951400972794776 
1222	 0.951182797697204 
1223	 0.951150496696652 
1224	 0.951102716154078 
1225	 0.950986995090355 
1226	 0.95104621203868 
1227	 0.950897310764903 
1228	 0.950521909068252 
1229	 0.950001798028209 
1230	 0.950052221948624 
1231	 0.950125856305333 
1232	 0.950157292465856 
1233	 0.950554195890693 
1234	 0.950518550590519 
1235	 0.950165636811832 
1236	 0.949948443646721 
1237	 0.949519098529144 
1238	 0.949461486494862 
1239	 0.949616061554555 
1240	 0.949651210674848 
1241	 0.950078762617204 
1242	 0.950020221498622 
1243	 0.949396666289396 
1244	 0.949206885891141 
1245	 0.949017732725491 
1246	 0.948897986106601 
1247	 0.949181383018245 
1248	 0.949198526469761 
1249	 0.949030692536519 
1250	 0.94886743452455 
1251	 0.948569725856197 
1252	 0.9483092862887 
1253	 0.948197760650324 
1254	 0.948186140714326 
1255	 0.948038136028936 
1256	 0.948057500520382 
1257	 0.947764079264405 
1258	 0.947118087303107 
1259	 0.946755395036908 
1260	 0.946280142417224 
1261	 0.946069847398376 
1262	 0.946173086998461 
1263	 0.94610777126129 
1264	 0.94616619489753 
1265	 0.946096049703717 
1266	 0.945820890598162 
1267	 0.945706926581295 
1268	 0.945537638288822 
1269	 0.945546265989062 
1270	 0.945926020546888 
1271	 0.946004663964469 
1272	 0.945843434867207 
1273	 0.946044542907567 
1274	 0.945915256145122 
1275	 0.945391841090888 
1276	 0.945454061772421 
1277	 0.945694774500298 
1278	 0.945990156467239 
1279	 0.946656388057238 
1280	 0.947007517577498 
1281	 0.947306861854799 
1282	 0.947515821514949 
1283	 0.947509218699117 
1284	 0.947722214313036 
1285	 0.947913567893309 
1286	 0.948227585728957 
1287	 0.948851577144642 
1288	 0.94920096992732 
1289	 0.949413984562838 
1290	 0.949699933905499 
1291	 0.949695968563362 
1292	 0.95005816542984 
1293	 0.950829541911196 
1294	 0.951394952083564 
1295	 0.952300094098686 
1296	 0.952806313346177 
1297	 0.953038313267629 
1298	 0.952884772026864 
1299	 0.952948107049798 
1300	 0.952691481998106 
1301	 0.952898028135403 
1302	 0.953456039954786 
1303	 0.95373064426315 
1304	 0.954044424795465 
1305	 0.954349883516994 
1306	 0.954554421982427 
1307	 0.954767319896835 
1308	 0.955067558341783 
1309	 0.955299142337397 
1310	 0.955417512354545 
1311	 0.955548237074985 
1312	 0.955629399774067 
1313	 0.955821961396337 
1314	 0.956217632530399 
1315	 0.956320408079637 
1316	 0.956279282425273 
1317	 0.956313256308925 
1318	 0.956060372526687 
1319	 0.955968463548828 
1320	 0.956003919072743 
1321	 0.956307349135436 
1322	 0.956256090154986 
1323	 0.956054044733835 
1324	 0.955977080513067 
1325	 0.955747754613786 
1326	 0.95574077345755 
1327	 0.95607813532665 
1328	 0.955957449475251 
1329	 0.955514722155535 
1330	 0.955475357527331 
1331	 0.955548796389176 
1332	 0.955335579129282 
1333	 0.955235228728916 
1334	 0.955104939046388 
1335	 0.954583835027392 
1336	 0.954238346458504 
1337	 0.954154867892978 
1338	 0.954028938038912 
1339	 0.953857952259994 
1340	 0.953536464882678 
1341	 0.952981056377814 
1342	 0.952803978841024 
1343	 0.952691832259956 
1344	 0.952570570442064 
1345	 0.953056561915004 
1346	 0.953337259655448 
1347	 0.953663208366785 
1348	 0.953683144426338 
1349	 0.953737011709792 
1350	 0.953902539356948 
1351	 0.954244759816484 
1352	 0.954205835267748 
1353	 0.954551659391833 
1354	 0.956428358512659 
1355	 0.957327847915658 
1356	 0.955579509323727 
1357	 0.957158565518442 
1358	 0.965112238787694 
1359	 0.966399340195836 
1360	 0.952317379887089 
1361	 0.956046750221391 
1362	 0.97310492239176 
1363	 0.976916450369681 
1364	 0.996586802504196 
1365	 1.02055938612113 
1366	 1.01971721548204 
1367	 1.00505936019813 
1368	 1.00053142359052 
1369	 0.996024937417817 
1370	 0.970308659702773 
1371	 0.95915320177657 
1372	 0.958931596463043 
1373	 0.959856369373221 
1374	 0.959963124536458 
1375	 0.964786427835582 
1376	 0.957496049936668 
1377	 0.951597308966779 
1378	 0.948836611484346 
1379	 0.939877180791505 
1380	 0.933173172449297 
1381	 0.933631485145651 
1382	 0.932547046394344 
1383	 0.923157055045178 
1384	 0.926229872305388 
1385	 0.94102799854038 
1386	 0.944071766253415 
1387	 0.945565991600535 
1388	 0.946523155911342 
1389	 0.944956045115743 
1390	 0.943068338117681 
1391	 0.940572465033339 
1392	 0.938682372120875 
1393	 0.93546318122318 
1394	 0.933108543055625 
1395	 0.93182741106732 
1396	 0.93163081270936 
1397	 0.930614758651337 
1398	 0.930739798890575 
1399	 0.932663856428974 
1400	 0.934000816624966 
1401	 0.93743965663873 
1402	 0.937666215133146 
1403	 0.936444449135616 
1404	 0.934773305091644 
1405	 0.932671424598744 
1406	 0.927764025776284 
1407	 0.921311089879831 
1408	 0.920821049940831 
1409	 0.921105827915433 
1410	 0.920128980460996 
1411	 0.920322831457369 
1412	 0.922305146748999 
1413	 0.92306428137292 
1414	 0.923384049395608 
1415	 0.92295942101454 
1416	 0.922790632345985 
1417	 0.921822819696631 
1418	 0.919171458505068 
1419	 0.918918638247609 
1420	 0.919678920049656 
1421	 0.920028820364835 
1422	 0.921646263186718 
1423	 0.921226039767845 
1424	 0.919128216338856 
1425	 0.918567538726792 
1426	 0.917370856827479 
1427	 0.917613000743065 
1428	 0.920011283722677 
1429	 0.920645125350429 
1430	 0.921021614348542 
1431	 0.92120420460927 
1432	 0.919992073544435 
1433	 0.919938358779813 
1434	 0.921118095953969 
1435	 0.921252482389025 
1436	 0.921178172477343 
1437	 0.921214651543313 
1438	 0.920359129293792 
1439	 0.920025247006308 
1440	 0.920312732711239 
1441	 0.920519829259497 
1442	 0.921119568894703 
1443	 0.921160127000743 
1444	 0.920867587077171 
1445	 0.920286415283126 
1446	 0.920112061794357 
1447	 0.920785848073456 
1448	 0.921051582711059 
1449	 0.921983265295992 
1450	 0.921959799792102 
1451	 0.921078178294395 
1452	 0.921170638052888 
1453	 0.921516774181276 
1454	 0.921748593147671 
1455	 0.922510704719394 
1456	 0.922470623234292 
1457	 0.921943398971462 
1458	 0.921536921632009 
1459	 0.920813185424068 
1460	 0.920457318794363 
1461	 0.919876597660248 
1462	 0.920018517434694 
1463	 0.920641905348856 
1464	 0.921306564879514 
1465	 0.923101407362047 
1466	 0.923734011393365 
1467	 0.923716607290116 
1468	 0.923867710380915 
1469	 0.923326583423774 
1470	 0.923160107760023 
1471	 0.923460300168032 
1472	 0.923397746139141 
1473	 0.923028025936512 
1474	 0.922837735279891 
1475	 0.922344960986104 
1476	 0.922447147870879 
1477	 0.922942852391128 
1478	 0.923394203006681 
1479	 0.92437742729129 
1480	 0.924877934915595 
1481	 0.92506639853339 
1482	 0.925340363863612 
1483	 0.925472441904692 
1484	 0.925641820491732 
1485	 0.925886217461884 
1486	 0.926056063303506 
1487	 0.926350831083156 
1488	 0.92625480011605 
1489	 0.926054041371938 
1490	 0.926186551826016 
1491	 0.926480586931729 
1492	 0.926641787817805 
1493	 0.926810825013244 
1494	 0.926704399751094 
1495	 0.926712213500277 
1496	 0.926425066351203 
1497	 0.926653377108323 
1498	 0.927228568988898 
1499	 0.92750552286048 
1500	 0.927947306376332 
1501	 0.928006514135429 
1502	 0.927615818345023 
1503	 0.927816628968945 
1504	 0.928259128335488 
1505	 0.928316912623968 
1506	 0.928417992003857 
1507	 0.928655530839442 
1508	 0.928638729143997 
1509	 0.92874528853684 
1510	 0.929217669340154 
1511	 0.929448022658502 
1512	 0.929450967203311 
1513	 0.929501179161592 
1514	 0.929587909677047 
1515	 0.929698210086547 
1516	 0.929549188564764 
1517	 0.92982900405442 
1518	 0.930660911663658 
1519	 0.930902789064732 
1520	 0.931055641281419 
1521	 0.931138050578942 
1522	 0.930788202972665 
1523	 0.930709210478983 
1524	 0.930758041820947 
1525	 0.930862386305852 
1526	 0.931108006598672 
1527	 0.931144174816748 
1528	 0.931087474693586 
1529	 0.931159885430761 
1530	 0.931073462643648 
1531	 0.931176918732286 
1532	 0.931846456245681 
1533	 0.931880571408817 
1534	 0.931322825243248 
1535	 0.931268271039801 
1536	 0.931090018934665 
1537	 0.931089575709876 
1538	 0.931647910546183 
1539	 0.931944219118023 
1540	 0.932146752199232 
1541	 0.932215853484028 
1542	 0.932160050000009 
1543	 0.932170285159684 
1544	 0.932010963208868 
1545	 0.931961344981009 
1546	 0.932074990391789 
1547	 0.932117308655291 
1548	 0.932041855317597 
1549	 0.932140821223022 
1550	 0.932387816852137 
1551	 0.932560571225039 
1552	 0.93296462664271 
1553	 0.93308350584646 
1554	 0.932776120904112 
1555	 0.932762364117102 
1556	 0.933030346357882 
1557	 0.932891779530544 
1558	 0.932507449183841 
1559	 0.932378189841722 
1560	 0.931815116038233 
1561	 0.931665925365002 
1562	 0.932365855845259 
1563	 0.932630581777007 
1564	 0.932778105508939 
1565	 0.932945181863989 
1566	 0.932585433868048 
1567	 0.932123739102359 
1568	 0.932112035893251 
1569	 0.932113437213642 
1570	 0.93247960071859 
1571	 0.933456114573541 
1572	 0.933636521168776 
1573	 0.933631027444606 
1574	 0.933717178086344 
1575	 0.933508353617351 
1576	 0.933380330440143 
1577	 0.93340868214995 
1578	 0.933334722683981 
1579	 0.932920315402627 
1580	 0.933070911122794 
1581	 0.933724719855105 
1582	 0.933668449749881 
1583	 0.933505024512438 
1584	 0.933364751953531 
1585	 0.932749181388707 
1586	 0.932694154311343 
1587	 0.933068296045365 
1588	 0.933106384183697 
1589	 0.933151230376101 
1590	 0.933074295777683 
1591	 0.932819353003868 
1592	 0.932763608094942 
1593	 0.932838853941802 
1594	 0.932587395248945 
1595	 0.93213526610448 
1596	 0.932112705423518 
1597	 0.932017510019734 
1598	 0.932089782359895 
1599	 0.9328332986174 
1600	 0.932648432431118 
1601	 0.931870668508595 
1602	 0.931540509628006 
1603	 0.930819570405015 
1604	 0.930900418799444 
1605	 0.931738235666733 
1606	 0.93186027040572 
1607	 0.932171044303238 
1608	 0.931927389749949 
1609	 0.930989006547041 
1610	 0.930578830178007 
1611	 0.929948199415377 
1612	 0.930111254966071 
1613	 0.930973816301899 
1614	 0.931099314508303 
1615	 0.931476029331732 
1616	 0.931410234714099 
1617	 0.930634056240661 
1618	 0.930339937074162 
1619	 0.930156942762749 
1620	 0.930076371313389 
1621	 0.930071771888854 
1622	 0.930051434872489 
1623	 0.930242740594844 
1624	 0.930181504274522 
1625	 0.929851007771783 
1626	 0.929889233899899 
1627	 0.930113264824769 
1628	 0.93007991416348 
1629	 0.93014349304135 
1630	 0.930061994057801 
1631	 0.929638257693637 
1632	 0.929534517084365 
1633	 0.929704456594828 
1634	 0.929465648367828 
1635	 0.92906137572426 
1636	 0.928820695324219 
1637	 0.92828854712108 
1638	 0.928351262341785 
1639	 0.928971125580763 
1640	 0.929058220254671 
1641	 0.9292138204681 
1642	 0.92908557821596 
1643	 0.928598697072426 
1644	 0.928188508391859 
1645	 0.927518827021303 
1646	 0.927542501785988 
1647	 0.927986821970522 
1648	 0.927763151612933 
1649	 0.927604962819823 
1650	 0.927633825698881 
1651	 0.927171013892824 
1652	 0.927168280233538 
1653	 0.927892514758601 
1654	 0.927996800929843 
1655	 0.927778861761547 
1656	 0.927486964271531 
1657	 0.927096344173852 
1658	 0.926775494798846 
1659	 0.92619395915977 
1660	 0.926418376843489 
1661	 0.9269838777062 
1662	 0.927068453096535 
1663	 0.927186719011007 
1664	 0.926744375767062 
1665	 0.926187743999425 
1666	 0.926299394486841 
1667	 0.926642884492542 
1668	 0.926819023691526 
1669	 0.927042723979978 
1670	 0.927130037672373 
1671	 0.926524503009147 
1672	 0.92625415513841 
1673	 0.926193045636485 
1674	 0.926007335676874 
1675	 0.926073839407782 
1676	 0.926172385177013 
1677	 0.926359142779967 
1678	 0.925978450379038 
1679	 0.925685410002606 
1680	 0.925917920233633 
1681	 0.925498288751429 
1682	 0.925361698252772 
1683	 0.925660122466116 
1684	 0.925449988886937 
1685	 0.925622246689593 
1686	 0.925998156734076 
1687	 0.926054640481778 
1688	 0.926086560909901 
1689	 0.925926662643656 
1690	 0.926322473588889 
1691	 0.926342381993121 
1692	 0.92629117737428 
1693	 0.926217475261843 
1694	 0.925507710618794 
1695	 0.925186682061536 
1696	 0.925373036383701 
1697	 0.925220345323501 
1698	 0.924895968185643 
1699	 0.924888341223813 
1700	 0.925132352235435 
1701	 0.924975341156549 
1702	 0.924724391360909 
1703	 0.924558036255972 
1704	 0.923839725347097 
1705	 0.923690898720182 
1706	 0.924340937022667 
1707	 0.924338792964793 
1708	 0.923980105387877 
1709	 0.924043287426368 
1710	 0.924032809877005 
1711	 0.92400264567578 
1712	 0.924532210193021 
1713	 0.9244915303589 
1714	 0.923965532162181 
1715	 0.923581359571181 
1716	 0.922830859017286 
1717	 0.922724910494925 
1718	 0.92268518338351 
1719	 0.923011901143801 
1720	 0.924432445064341 
1721	 0.924846884420081 
1722	 0.924915319496906 
1723	 0.924846739672273 
1724	 0.92427823331419 
1725	 0.923665124397233 
1726	 0.922806370837544 
1727	 0.922406781652994 
1728	 0.922007463360352 
1729	 0.921772624233274 
1730	 0.921942256166569 
1731	 0.922112147927561 
1732	 0.921826696204358 
1733	 0.921118920933544 
1734	 0.921021191404825 
1735	 0.920915386257796 
1736	 0.920664357788395 
1737	 0.921004277719914 
1738	 0.921478746932834 
1739	 0.921406522489958 
1740	 0.921026902059399 
1741	 0.92075376488845 
1742	 0.920512014231733 
1743	 0.920584170785701 
1744	 0.92088645808094 
1745	 0.921353963471585 
1746	 0.921173194848811 
1747	 0.919949644268442 
1748	 0.919499038342672 
1749	 0.919192583451957 
1750	 0.918904236956338 
1751	 0.919330163827883 
1752	 0.919212327436714 
1753	 0.918740464969908 
1754	 0.918457821985591 
1755	 0.918208672728037 
1756	 0.918225493082846 
1757	 0.918302932080276 
1758	 0.918169235246618 
1759	 0.918323799608408 
1760	 0.918116731694229 
1761	 0.9172800919488 
1762	 0.917098852576063 
1763	 0.917307466387861 
1764	 0.917017809093118 
1765	 0.916796627471711 
1766	 0.916677965276203 
1767	 0.915913278879394 
1768	 0.915781248268617 
1769	 0.916349324235365 
1770	 0.91645970313457 
1771	 0.916758194816159 
1772	 0.916321699152035 
1773	 0.915352478764577 
1774	 0.914262022325803 
1775	 0.913621683743941 
1776	 0.914508798114981 
1777	 0.914840016774519 
1778	 0.914492969228456 
1779	 0.914810796126353 
1780	 0.914457122619311 
1781	 0.913790178935267 
1782	 0.913936159813948 
1783	 0.91420168830266 
1784	 0.913587336211463 
1785	 0.913217076850257 
1786	 0.913960943356774 
1787	 0.913102254008431 
1788	 0.912218443694743 
1789	 0.912415438085349 
1790	 0.911043709438567 
1791	 0.91030753984315 
1792	 0.911016567895319 
1793	 0.910735257145085 
1794	 0.909436527351513 
1795	 0.908034512764388 
1796	 0.906989590932201 
1797	 0.906576559806852 
1798	 0.90597079102854 
1799	 0.907284400950502 
1800	 0.910179409088681 
1801	 0.923775274790137 
1802	 0.926888509803811 
1803	 0.927230699796005 
1804	 0.924781396240607 
1805	 0.923917368672258 
1806	 0.922907490030757 
1807	 0.921429804231954 
1808	 0.919999383656023 
1809	 0.917658774540802 
1810	 0.916823790327962 
1811	 0.916233411702724 
1812	 0.917305169644558 
1813	 0.922212296476999 
1814	 0.923470968047601 
1815	 0.922049133653859 
1816	 0.923159052602288 
1817	 0.926312129725324 
1818	 0.926350496426831 
1819	 0.925551757461717 
1820	 0.926577974070025 
1821	 0.925141374011651 
1822	 0.913096301626175 
1823	 0.912752256097434 
1824	 0.926444810550639 
1825	 0.92911820882527 
1826	 0.931579216187066 
1827	 0.934169422795195 
1828	 0.933481799397196 
1829	 0.912292958174565 
1830	 0.912553441103632 
1831	 0.93288127584431 
1832	 0.951024833059135 
1833	 1.02878673082291 
1834	 1.04191797569112 
1835	 0.945891093402286 
1836	 0.908170740642111 
1837	 0.788807364478077 
1838	 0.744232807216072 
1839	 0.753259971233932 
1840	 0.928731880671785 
1841	 0.959240811827825 
1842	 0.979313852202733 
1843	 0.963885855563078 
1844	 0.839412280881809 
1845	 0.817359205669018 
1846	 0.817286889104906 
1847	 0.831763880824457 
1848	 0.867907540189813 
1849	 0.969938671609677 
1850	 0.997805039794341 
1851	 1.0148286923126 
1852	 1.02276938845017 
1853	 0.996619835785339 
1854	 0.970900206589576 
1855	 0.95041180558793 
1856	 0.922724211194831 
1857	 0.866831212713533 
1858	 0.843121441224596 
1859	 0.828864212230165 
1860	 0.820620766560229 
1861	 0.809498052192349 
1862	 0.808541579449205 
1863	 0.815590128339998 
1864	 0.808302465406848 
1865	 0.833022332296217 
1866	 0.987130846928863 
1867	 0.960840694094178 
1868	 0.934523344464499 
1869	 1.01763353994277 
1870	 1.05886501094958 
1871	 1.06970059012036 
1872	 1.1044611991296 
1873	 1.2284804924028 
1874	 1.18639672921709 
1875	 1.01206773115845 
1876	 0.967321336899636 
1877	 0.933854691362165 
1878	 0.903705626736768 
1879	 0.900875787122225 
1880	 0.969764052638053 
1881	 0.968229969687177 
1882	 0.932207060571997 
1883	 0.911382553371644 
1884	 0.866924653869355 
1885	 0.863941075961824 
1886	 0.863898764553494 
1887	 0.905489691870755 
1888	 0.940860707248283 
1889	 0.938798127894994 
1890	 0.949092168424294 
1891	 0.938180970495366 
1892	 0.939214540682147 
1893	 0.965937194330029 
1894	 0.968522735983011 
1895	 0.936502824540798 
1896	 0.938264099965266 
1897	 0.96057789936198 
1898	 0.957999080835913 
1899	 1.01246765794229 
1900	 1.06329588625205 
1901	 1.06091357432795 
1902	 0.95029698223204 
1903	 0.955462929653997 
1904	 0.966934220268396 
1905	 0.979433588944017 
1906	 1.07360267694765 
1907	 1.18815617151702 
1908	 1.08151117069669 
1909	 1.026441229185 
1910	 0.999613413025304 
1911	 0.933973122894037 
1912	 0.918422333167021 
1913	 0.944802715843809 
1914	 0.931872583934259 
1915	 0.913856129494949 
1916	 0.903887684226317 
1917	 0.881657643136199 
1918	 0.875700766367158 
1919	 0.906894591853199 
1920	 0.909080082116051 
1921	 0.898667189316852 
1922	 0.885900553635088 
1923	 0.881302732133278 
1924	 0.858776022658554 
1925	 0.855874792702335 
1926	 0.882139245370303 
1927	 0.88685082893774 
1928	 0.881098369879125 
1929	 0.872990276463514 
1930	 0.876438808846348 
1931	 0.871507773340899 
1932	 0.878028848365245 
1933	 0.886515551757512 
1934	 0.884150336267774 
1935	 0.876452190073884 
1936	 0.87442192698613 
1937	 0.86962182547065 
1938	 0.864863634942126 
1939	 0.862231521602986 
1940	 0.858850124881095 
1941	 0.855211316443894 
1942	 0.859552250512847 
1943	 0.869252915978642 
1944	 0.870177174482187 
1945	 0.876015468547024 
1946	 0.876453548707466 
1947	 0.877181491639995 
1948	 0.881133240782729 
1949	 0.882397941593315 
1950	 0.881031935981631 
1951	 0.878458620001901 
1952	 0.875268180566236 
1953	 0.86854160872732 
1954	 0.865420973329941 
1955	 0.86650662119674 
1956	 0.865663620406683 
1957	 0.865065572143717 
1958	 0.865989317730706 
1959	 0.865599184614234 
1960	 0.866030514365807 
1961	 0.867928098590666 
1962	 0.872581650205358 
1963	 0.870722905603813 
1964	 0.868330696204523 
1965	 0.866797967464908 
1966	 0.863196098163534 
1967	 0.863403866498728 
1968	 0.863780631976426 
1969	 0.864928884835949 
1970	 0.869106638994346 
1971	 0.869315653528288 
1972	 0.866782316247648 
1973	 0.867700763140136 
1974	 0.87056044922306 
1975	 0.871035918265115 
1976	 0.873202996091681 
1977	 0.874628073497633 
1978	 0.870641423483095 
1979	 0.868136767491082 
1980	 0.867503105789305 
1981	 0.865319977503628 
1982	 0.865287402109415 
1983	 0.867592843041668 
1984	 0.86800937173478 
1985	 0.867436624547489 
1986	 0.870230150869322 
1987	 0.870899772114895 
1988	 0.869979195339641 
1989	 0.871019807517782 
1990	 0.870970598209738 
1991	 0.869647406764855 
1992	 0.871473525856283 
1993	 0.873911577468568 
1994	 0.87428146819795 
1995	 0.875270449655192 
1996	 0.877576162191711 
1997	 0.878257257488132 
1998	 0.876663563659739 
1999	 0.876016345286004 
2000	 0.873598040179553 
2001	 0.873103696223814 
2002	 0.874898107742589 
2003	 0.875466730721631 
2004	 0.878771990464569 
2005	 0.881001678415671 
2006	 0.881336597617286 
2007	 0.87851597483317 
2008	 0.87919250727227 
2009	 0.880390889237809 
2010	 0.881302783890386 
2011	 0.884387294262062 
2012	 0.885549622202895 
2013	 0.882232531179579 
2014	 0.878006984922742 
2015	 0.875839318690566 
2016	 0.875416857044618 
2017	 0.878738976436845 
2018	 0.8816416307984 
2019	 0.882232539842215 
2020	 0.881189562962685 
2021	 0.880758832910774 
2022	 0.880314319698075 
2023	 0.87938823206197 
2024	 0.880733963728251 
2025	 0.882938044839232 
2026	 0.883695991021311 
2027	 0.884403049277424 
2028	 0.886075569130372 
2029	 0.886551609043316 
2030	 0.885174730414141 
2031	 0.885760606308403 
2032	 0.88617807819851 
2033	 0.886273582777135 
2034	 0.885463198833153 
2035	 0.887138554023385 
2036	 0.889174910408082 
2037	 0.889656827113269 
2038	 0.88950235746175 
2039	 0.889992312555708 
2040	 0.889591654139277 
2041	 0.890182886558679 
2042	 0.892852908027149 
2043	 0.893365455479795 
2044	 0.893632746052272 
2045	 0.893593108889055 
2046	 0.892689382473093 
2047	 0.890112179556455 
2048	 0.890992750314571 
2049	 0.892013441204485 
2050	 0.891403213258375 
2051	 0.894594111676706 
2052	 0.896696710186187 
2053	 0.896232585961652 
2054	 0.897578044653824 
2055	 0.896134850933649 
2056	 0.894636283328535 
2057	 0.896407221369203 
2058	 0.897192947689051 
2059	 0.89799368924314 
2060	 0.899994799606785 
2061	 0.901588767259425 
2062	 0.900975454800158 
2063	 0.90067037044083 
2064	 0.901298987571128 
2065	 0.90156862360344 
2066	 0.901126482079887 
2067	 0.901377394444859 
2068	 0.901346263428048 
2069	 0.900551411118711 
2070	 0.901465371430198 
2071	 0.902994279824045 
2072	 0.904214979000014 
2073	 0.90587799052971 
2074	 0.908226864770926 
2075	 0.908136472717077 
2076	 0.906438232182564 
2077	 0.906052321954571 
2078	 0.90423852132531 
2079	 0.903292817972472 
2080	 0.906123934182415 
2081	 0.906876234226194 
2082	 0.906027844631582 
2083	 0.9057888696032 
2084	 0.90393745606569 
2085	 0.902758316480349 
2086	 0.905187552831277 
2087	 0.906596857135221 
2088	 0.909211764350768 
2089	 0.9097134802052 
2090	 0.909550919566652 
2091	 0.907413674352856 
2092	 0.90506364945548 
2093	 0.904708360226549 
2094	 0.905643054088752 
2095	 0.906970337030242 
2096	 0.906556258130303 
2097	 0.90554442274935 
2098	 0.904049650107747 
2099	 0.902673983760319 
2100	 0.904704645528789 
2101	 0.907092426950241 
2102	 0.90780972401936 
2103	 0.908104996409024 
2104	 0.908440662230128 
2105	 0.908544445362357 
2106	 0.908305733368062 
2107	 0.909470102337041 
2108	 0.911438562191314 
2109	 0.910310427579363 
2110	 0.908965396830815 
2111	 0.909392869289664 
2112	 0.90878117265225 
2113	 0.908531761805434 
2114	 0.91007811663767 
2115	 0.910453884302101 
2116	 0.910113551377082 
2117	 0.910370827339907 
2118	 0.910455023645799 
2119	 0.910396340538052 
2120	 0.91040338710482 
2121	 0.911861643505466 
2122	 0.91103714250961 
2123	 0.910120780991965 
2124	 0.908974622852011 
2125	 0.906091335087141 
2126	 0.905936579379478 
2127	 0.907714464890071 
2128	 0.908628446699306 
2129	 0.909679312599414 
2130	 0.908781925860913 
2131	 0.907830587551743 
2132	 0.908802280072336 
2133	 0.909734789195994 
2134	 0.910431136526426 
2135	 0.912126624670944 
2136	 0.912339036462535 
2137	 0.911169041452758 
2138	 0.910796592204066 
2139	 0.910144409708507 
2140	 0.910529337321145 
2141	 0.911125936638228 
2142	 0.910494420754337 
2143	 0.91179420409298 
2144	 0.913130161567628 
2145	 0.912254762416732 
2146	 0.912862895933505 
2147	 0.913432637233527 
2148	 0.910058535487815 
2149	 0.907715136816796 
2150	 0.907749967086523 
2151	 0.907719367240847 
2152	 0.908625190055564 
2153	 0.909489646545774 
2154	 0.912171484778137 
2155	 0.91096919267896 
2156	 0.908350065971226 
2157	 0.905181276488593 
2158	 0.901835439689846 
2159	 0.900107376379868 
2160	 0.90118170094323 
2161	 0.902015071861683 
2162	 0.902450003855873 
2163	 0.905029072305487 
2164	 0.906285887344055 
2165	 0.907254065575135 
2166	 0.90811709126438 
2167	 0.90614911282897 
2168	 0.905367876685892 
2169	 0.903687244305845 
2170	 0.903080019994618 
2171	 0.902978447700962 
2172	 0.904661507394061 
2173	 0.905275862366783 
2174	 0.905501538735282 
2175	 0.906679400750968 
2176	 0.907364302473766 
2177	 0.907742018505819 
2178	 0.908229005112628 
2179	 0.90726718513766 
2180	 0.905487858957209 
2181	 0.904585626240451 
2182	 0.904605020947969 
2183	 0.905563715153855 
2184	 0.905426545445423 
2185	 0.903582166394303 
2186	 0.90249019534868 
2187	 0.902131936894395 
2188	 0.902385382514308 
2189	 0.902391213118677 
2190	 0.904038016058053 
2191	 0.902224552756923 
2192	 0.899398159553288 
2193	 0.898814675472462 
2194	 0.89792344546512 
2195	 0.899318999844321 
2196	 0.901918973639333 
2197	 0.899537082094829 
2198	 0.898040776173382 
2199	 0.899172814244617 
2200	 0.900078704968759 
2201	 0.902883225644471 
2202	 0.904821919728347 
2203	 0.90328409042241 
2204	 0.902724521581817 
2205	 0.902045829849069 
2206	 0.900597621715653 
2207	 0.903079406065006 
2208	 0.904106102001162 
2209	 0.903558244162138 
2210	 0.903178648963436 
2211	 0.903621273721632 
2212	 0.903553175085286 
2213	 0.900537877515978 
2214	 0.900296789486172 
2215	 0.901665620551475 
2216	 0.900086788461271 
2217	 0.901292945623612 
2218	 0.904551682689941 
2219	 0.906331499605936 
2220	 0.907493078972941 
2221	 0.907768172009071 
2222	 0.905255621635751 
2223	 0.900088135422447 
2224	 0.899042182251674 
2225	 0.900583947339116 
2226	 0.901732068455658 
2227	 0.904214971288901 
2228	 0.905124749004389 
2229	 0.904188243704358 
2230	 0.903772907445283 
2231	 0.903742761719276 
2232	 0.905271265667342 
2233	 0.905843993093482 
2234	 0.905975541557971 
2235	 0.905698515790604 
2236	 0.904662358542596 
2237	 0.904228873474765 
2238	 0.904136789850382 
2239	 0.903087695293903 
2240	 0.90475993022012 
2241	 0.905494504758995 
2242	 0.904541793553412 
2243	 0.906445224016465 
2244	 0.906565397925468 
2245	 0.906841889519065 
2246	 0.906884534896931 
2247	 0.904718507602672 
2248	 0.90601473729934 
2249	 0.906316672799023 
2250	 0.905329495544772 
2251	 0.906512632445106 
2252	 0.907706734183512 
2253	 0.908394294377389 
2254	 0.911294192676998 
2255	 0.916701950127504 
2256	 0.917969631035886 
2257	 0.915964557805324 
2258	 0.914678686418526 
2259	 0.914851391240174 
2260	 0.91098403061461 
2261	 0.911644318811334 
2262	 0.914162380640395 
2263	 0.913425315606904 
2264	 0.9148500450922 
2265	 0.914297529256455 
2266	 0.911932194681573 
2267	 0.913198498591851 
2268	 0.914984883875414 
2269	 0.915689034885091 
2270	 0.916568901458727 
2271	 0.915480066515079 
2272	 0.911938193749275 
2273	 0.912630382545212 
2274	 0.916612484681256 
2275	 0.917490500948194 
2276	 0.915919822764382 
2277	 0.913991610206791 
2278	 0.909408921655163 
2279	 0.905354467072965 
2280	 0.908343751201778 
2281	 0.908685818465243 
2282	 0.906669002095536 
2283	 0.908249659146324 
2284	 0.905408042670302 
2285	 0.902568812245048 
2286	 0.903996886014074 
2287	 0.909933705558044 
2288	 0.912863840119231 
2289	 0.913868303491968 
2290	 0.917807958393679 
2291	 0.915294094142708 
2292	 0.908582381960505 
2293	 0.907587352544725 
2294	 0.904885813604595 
2295	 0.898156845456195 
2296	 0.89665477350657 
2297	 0.895050708143796 
2298	 0.892375814498097 
2299	 0.898045163257087 
2300	 0.902218595342329 
2301	 0.903765681358373 
2302	 0.904788084382715 
2303	 0.900901094100674 
2304	 0.897736829921054 
2305	 0.898236263014664 
2306	 0.8992156517016 
2307	 0.897189223055425 
2308	 0.900636941757604 
2309	 0.904670680750667 
2310	 0.900917741353665 
2311	 0.904688145245073 
2312	 0.911288858464034 
2313	 0.91071162132419 
2314	 0.912975047644705 
2315	 0.909113809876623 
2316	 0.897639633639215 
2317	 0.894920320896945 
2318	 0.897717738852727 
2319	 0.90007451487245 
2320	 0.903534133020794 
2321	 0.906551764506087 
2322	 0.903569649524969 
2323	 0.903560546045168 
2324	 0.906007453476937 
2325	 0.912531446599961 
2326	 0.912003015795508 
2327	 0.912963245669434 
2328	 0.911701967559139 
2329	 0.90724750771783 
2330	 0.903577691427305 
2331	 0.898306355499558 
2332	 0.896594708250654 
2333	 0.892308609987002 
2334	 0.890393455456713 
2335	 0.893743549754061 
2336	 0.900185035880642 
2337	 0.907568123789197 
2338	 0.906229606717583 
2339	 0.90233384931005 
2340	 0.89636950767472 
2341	 0.889222251918728 
2342	 0.886004288672302 
2343	 0.883928215324533 
2344	 0.880080065904435 
2345	 0.877450067704357 
2346	 0.884080598962797 
2347	 0.894048698758198 
2348	 0.899685848979164 
2349	 0.901742150488876 
2350	 0.90330611086624 
2351	 0.906101574909103 
2352	 0.905270164679186 
2353	 0.907335089863716 
2354	 0.90279623775528 
2355	 0.888740231358653 
2356	 0.894538589820468 
2357	 0.903344677849149 
2358	 0.901252532890783 
2359	 0.907114069354153 
2360	 0.89866937897334 
2361	 0.888222424082598 
2362	 0.896173328202352 
2363	 0.891019096842288 
2364	 0.88428029820505 
2365	 0.88626405043888 
2366	 0.875240767215884 
2367	 0.870756132524077 
2368	 0.882652818121345 
2369	 0.885944529674806 
2370	 0.888954589838052 
2371	 0.89779463242863 
2372	 0.900442797356984 
2373	 0.893249361938031 
2374	 0.894452393295665 
2375	 0.900760285668861 
2376	 0.899261927770526 
2377	 0.893882160981775 
2378	 0.88896352287831 
2379	 0.876867637882145 
2380	 0.873445471984993 
2381	 0.878839092406076 
2382	 0.881882441030559 
2383	 0.88747198470235 
2384	 0.892725625018934 
2385	 0.897009178347285 
2386	 0.89538453343808 
2387	 0.892235530739732 
2388	 0.888833724205249 
2389	 0.878934659786996 
2390	 0.879086471196974 
2391	 0.885663777471807 
2392	 0.884318326905146 
2393	 0.881988156409375 
2394	 0.884983302757418 
2395	 0.885888496066247 
2396	 0.890448834861309 
2397	 0.911336987688702 
2398	 0.90979984088015 
2399	 0.88919014782358 
2400	 0.885045183263446 
2401	 0.877492213966892 
2402	 0.871380662254331 
2403	 0.885479137433819 
2404	 0.894593758876562 
2405	 0.895177621845082 
2406	 0.886889100257851 
2407	 0.873821798195251 
2408	 0.872877837487939 
2409	 0.863629793107314 
2410	 0.863320816946872 
2411	 0.871930905885569 
2412	 0.862596226865876 
2413	 0.877760489690392 
2414	 0.882999254110874 
2415	 0.869741316560234 
2416	 0.887414722518929 
2417	 0.888336722336216 
2418	 0.88610062852577 
2419	 0.903367079111254 
2420	 0.902892314065749 
2421	 0.89507321506488 
2422	 0.900716704921802 
2423	 0.898546198592342 
2424	 0.882333569115689 
2425	 0.864345216819045 
2426	 0.844545098830931 
2427	 0.838116023569564 
2428	 0.850332246676117 
2429	 0.883138843031615 
2430	 0.919756287393172 
2431	 0.94759709498865 
2432	 0.951176304042278 
2433	 0.913724916726722 
2434	 0.899586741448887 
2435	 0.888081264597263 
2436	 0.880283783048877 
2437	 0.87707518342604 
2438	 0.879089516666497 
2439	 0.883767369455403 
2440	 0.883296736916842 
2441	 0.902163804118975 
2442	 0.906051636485974 
2443	 0.885378227653003 
2444	 0.87408102943367 
2445	 0.849006590918246 
2446	 0.849941934634018 
2447	 0.883189995163418 
2448	 0.904685077658772 
2449	 0.952560681908042 
2450	 0.970932279644626 
2451	 0.936244885097788 
2452	 0.927718232727139 
2453	 0.934886606285977 
2454	 0.929733789472223 
2455	 0.932816141665986 
2456	 0.923994734699808 
2457	 0.898362744721574 
2458	 0.875431857325919 
2459	 0.847139919073589 
2460	 0.831040411189075 
2461	 0.805486102736107 
2462	 0.801286461991498 
2463	 0.823070049575556 
2464	 0.825466118994315 
2465	 0.833276304042556 
2466	 0.835974998230351 
2467	 0.804872481830875 
2468	 0.81011657067104 
2469	 0.864121339064347 
2470	 0.887449688077046 
2471	 0.919201773487388 
2472	 0.935421498762994 
2473	 0.904159320632815 
2474	 0.882185217953668 
2475	 0.835762001305969 
2476	 0.88081795347144 
2477	 1.04982423575423 
2478	 1.09880989252966 
2479	 1.14780698386855 
2480	 1.08669128666191 
2481	 0.778887674414618 
2482	 0.697691990457336 
2483	 0.734350406990444 
2484	 0.801907069513869 
2485	 0.982422588001987 
2486	 1.17856349186322 
2487	 1.18544304189766 
2488	 1.34461798005809 
2489	 1.43211500997187 
2490	 1.4535953722793 
2491	 1.76370651635018 
2492	 1.33239717151084 
2493	 1.16284982411085 
2494	 1.30151219907448 
2495	 1.08670574770812 
2496	 1.27991454490929 
2497	 1.58157130582452 
2498	 1.15428870086312 
2499	 1.06035497095957 
2500	 1.04277215877342 
