Wavelength	ref00003.asd
350	 1.60889176697502E-02 
351	 1.62369665894437E-02 
352	 1.52355284110833E-02 
353	 1.56835523175091E-02 
354	 1.61423503796339E-02 
355	 1.61058944303408E-02 
356	 0.01567379621089 
357	 1.58212420080044E-02 
358	 1.59550238991613E-02 
359	 1.60036631978126E-02 
360	 1.60518720797512E-02 
361	 1.61343895954859E-02 
362	 1.62936879391893E-02 
363	 1.63486169665802E-02 
364	 1.60275501408814E-02 
365	 1.55295469031589E-02 
366	 1.55178486819684E-02 
367	 1.59437379914838E-02 
368	 1.57445467171338E-02 
369	 1.56107322025249E-02 
370	 1.56095563308951E-02 
371	 1.56948586817652E-02 
372	 1.59719001778237E-02 
373	 1.61050125404999E-02 
374	 0.016186788949354 
375	 1.64626422220106E-02 
376	 1.65330106901864E-02 
377	 1.63673201474729E-02 
378	 1.61827902866822E-02 
379	 1.64223282655604E-02 
380	 0.016653928713169 
381	 1.68760600210736E-02 
382	 1.71009746141402E-02 
383	 1.71011290060678E-02 
384	 1.71843989193299E-02 
385	 1.72790056924731E-02 
386	 1.72381517918564E-02 
387	 1.75828308253704E-02 
388	 1.80944749078649E-02 
389	 1.85015852020799E-02 
390	 1.85778614256396E-02 
391	 1.88281144602702E-02 
392	 1.90316400757806E-02 
393	 1.90865549367241E-02 
394	 1.94701887205493E-02 
395	 1.99223140489947E-02 
396	 2.00983441125794E-02 
397	 1.98775127256922E-02 
398	 2.03458473954537E-02 
399	 2.07033622330834E-02 
400	 2.08742427133416E-02 
401	 2.13998016813795E-02 
402	 0.021526722553433 
403	 2.16173520890116E-02 
404	 2.19605922403563E-02 
405	 2.23888558111305E-02 
406	 2.27491941625503E-02 
407	 2.30145057678144E-02 
408	 2.32502976223835E-02 
409	 2.37194103087798E-02 
410	 2.38994804549735E-02 
411	 2.39267402398103E-02 
412	 2.44813392731645E-02 
413	 2.50220964634653E-02 
414	 2.54575466530687E-02 
415	 2.57629916023355E-02 
416	 2.58555126388889E-02 
417	 2.61725646453109E-02 
418	 2.66290345658152E-02 
419	 2.69773173764206E-02 
420	 2.71990894278248E-02 
421	 2.74602785472065E-02 
422	 2.77590859807164E-02 
423	 2.79541955692855E-02 
424	 2.82614114722731E-02 
425	 0.028549258935197 
426	 0.028728787984132 
427	 2.89123452489344E-02 
428	 2.92515885921451E-02 
429	 2.95859167934806E-02 
430	 2.97339057650772E-02 
431	 3.00532434953753E-02 
432	 3.03230964625453E-02 
433	 3.04787676655148E-02 
434	 3.06231858245596E-02 
435	 0.030890690719496 
436	 0.031103095964689 
437	 3.11867868946049E-02 
438	 3.13811834513145E-02 
439	 3.16262311247125E-02 
440	 3.18301470528166E-02 
441	 3.19386560073046E-02 
442	 3.21846824710945E-02 
443	 3.24217418414849E-02 
444	 3.26198814410335E-02 
445	 3.28756839369364E-02 
446	 3.30849035282794E-02 
447	 3.32490293896008E-02 
448	 3.34021304004922E-02 
449	 3.36117910697194E-02 
450	 3.37660364939498E-02 
451	 3.39530962248918E-02 
452	 3.42884418496501E-02 
453	 3.44821664388642E-02 
454	 3.46119219803362E-02 
455	 3.47691976243658E-02 
456	 3.50218133166815E-02 
457	 3.52015401664691E-02 
458	 3.53409763592439E-02 
459	 3.54926878961587E-02 
460	 3.56185443040686E-02 
461	 3.57209774014343E-02 
462	 3.58198191994281E-02 
463	 3.59413919111936E-02 
464	 3.60638220345872E-02 
465	 3.62735511522611E-02 
466	 3.65201559420566E-02 
467	 3.65339405079668E-02 
468	 3.66275987547845E-02 
469	 3.68181989217572E-02 
470	 3.70237724473333E-02 
471	 3.71401304825739E-02 
472	 3.72475516342732E-02 
473	 3.73788909601952E-02 
474	 3.75221638612791E-02 
475	 3.75903937706949E-02 
476	 3.76992472394384E-02 
477	 3.79071830012656E-02 
478	 3.81219672434861E-02 
479	 3.82531157505576E-02 
480	 3.83714709798201E-02 
481	 3.85685727825527E-02 
482	 3.87096193166591E-02 
483	 3.88442961070313E-02 
484	 3.90143055823279E-02 
485	 3.92384937652297E-02 
486	 3.93993779419429E-02 
487	 3.95791166778537E-02 
488	 3.98426973719052E-02 
489	 4.01132398458382E-02 
490	 4.03422739556634E-02 
491	 4.05375739201398E-02 
492	 4.07470133581307E-02 
493	 4.10606964963057E-02 
494	 4.13244360129954E-02 
495	 0.041534825272798 
496	 4.18934342024729E-02 
497	 4.22510348295219E-02 
498	 4.26535600093092E-02 
499	 0.043136137018608 
500	 4.35303946244149E-02 
501	 4.40644305293416E-02 
502	 4.46809412607727E-02 
503	 4.51746796182982E-02 
504	 0.045777231794534 
505	 4.63924768689789E-02 
506	 4.69933589173344E-02 
507	 4.77311013618883E-02 
508	 4.84227281165177E-02 
509	 4.91772903733024E-02 
510	 5.01188373486297E-02 
511	 5.10227577007499E-02 
512	 5.19838537325799E-02 
513	 5.30163137453943E-02 
514	 5.40656233962048E-02 
515	 5.52303799023598E-02 
516	 5.64936455134624E-02 
517	 5.78083099313439E-02 
518	 5.91270542653178E-02 
519	 6.04904288581431E-02 
520	 6.18793716076885E-02 
521	 6.32597667568169E-02 
522	 6.46424527893286E-02 
523	 6.59673821449962E-02 
524	 6.72315679540086E-02 
525	 0.068482441662569 
526	 6.97711943268418E-02 
527	 7.11093598820719E-02 
528	 7.24494217889638E-02 
529	 7.36059837433777E-02 
530	 7.46563638229047E-02 
531	 7.56552715261998E-02 
532	 7.66370509872589E-02 
533	 7.75199641664878E-02 
534	 7.83884050367929E-02 
535	 7.92509146960585E-02 
536	 7.99683310864621E-02 
537	 8.06388829502299E-02 
538	 8.12387849756058E-02 
539	 8.17543311595295E-02 
540	 8.23844616782836E-02 
541	 8.30184030086749E-02 
542	 8.35871582306072E-02 
543	 0.084076181429462 
544	 8.45744271338206E-02 
545	 8.50863810273812E-02 
546	 8.55854417167541E-02 
547	 8.60061648782416E-02 
548	 8.63902742095304E-02 
549	 0.086787597289134 
550	 8.72254597744132E-02 
551	 8.75649280793158E-02 
552	 8.78868355380156E-02 
553	 0.088177517583952 
554	 8.82920856104456E-02 
555	 8.84642062976904E-02 
556	 0.088574449540598 
557	 8.85106900532129E-02 
558	 8.84872377062426E-02 
559	 8.84237988511946E-02 
560	 8.82797555135455E-02 
561	 8.80502639681646E-02 
562	 8.78128325133245E-02 
563	 8.74620587800642E-02 
564	 8.69947645712016E-02 
565	 8.66361979582779E-02 
566	 8.61922620604409E-02 
567	 8.56930177161042E-02 
568	 8.52115505070514E-02 
569	 8.46463344413827E-02 
570	 8.41125441429155E-02 
571	 8.36252997105506E-02 
572	 8.30987148423947E-02 
573	 8.25644512194148E-02 
574	 8.20685887127103E-02 
575	 8.16328445504235E-02 
576	 8.12350926843547E-02 
577	 8.07644331977387E-02 
578	 8.03226050000626E-02 
579	 8.00649374239913E-02 
580	 7.97239493998475E-02 
581	 0.079369018844589 
582	 7.90713190037664E-02 
583	 7.88614621848803E-02 
584	 7.86427650794365E-02 
585	 7.84500807997042E-02 
586	 7.83234095577106E-02 
587	 7.81799412318836E-02 
588	 0.078053238933839 
589	 7.79231457836503E-02 
590	 7.77434490761253E-02 
591	 7.76215341078126E-02 
592	 7.75292679327433E-02 
593	 7.74371857189308E-02 
594	 7.73591091730316E-02 
595	 7.72758662931432E-02 
596	 7.72322133641806E-02 
597	 7.72684811546635E-02 
598	 7.73019239029103E-02 
599	 7.73077816408686E-02 
600	 7.72993818596209E-02 
601	 7.73188405547905E-02 
602	 7.72136544416885E-02 
603	 7.71186148790709E-02 
604	 7.71141594640441E-02 
605	 7.69844642655999E-02 
606	 7.68153631916803E-02 
607	 7.66191334787213E-02 
608	 0.076385090933601 
609	 0.076174166898836 
610	 7.59643585848366E-02 
611	 7.57238480105118E-02 
612	 0.075417648901152 
613	 7.51514298115265E-02 
614	 7.48920102588545E-02 
615	 0.074592424661992 
616	 0.074303329221006 
617	 7.40099943527352E-02 
618	 7.37543758264123E-02 
619	 7.36026356171197E-02 
620	 7.35036912888393E-02 
621	 7.34199035938668E-02 
622	 7.33445590523295E-02 
623	 7.33304934845241E-02 
624	 7.32678984819514E-02 
625	 0.073198986625048 
626	 7.32100145853629E-02 
627	 7.32954705254066E-02 
628	 0.073416775525719 
629	 7.35265801125315E-02 
630	 7.35761803358669E-02 
631	 7.36462252096102E-02 
632	 7.36896706860273E-02 
633	 7.36622920414728E-02 
634	 0.073590509012805 
635	 7.34753016032283E-02 
636	 0.073313863319037 
637	 0.07310463461395 
638	 0.072882293619439 
639	 7.24901946052099E-02 
640	 7.19609504053107E-02 
641	 7.15936768371468E-02 
642	 7.11350752463359E-02 
643	 7.06108313317842E-02 
644	 7.01041733416939E-02 
645	 6.96752812496145E-02 
646	 6.92091002222514E-02 
647	 6.87220648966438E-02 
648	 6.83092659816487E-02 
649	 6.79429829849204E-02 
650	 6.77042344057658E-02 
651	 6.75802348071928E-02 
652	 6.73853318568335E-02 
653	 6.71951769267484E-02 
654	 6.70592217410341E-02 
655	 6.69826315732239E-02 
656	 6.68199303984999E-02 
657	 6.65914616628309E-02 
658	 6.62854983582633E-02 
659	 6.58467351873876E-02 
660	 0.065481999573747 
661	 6.51284316026132E-02 
662	 6.47468180068064E-02 
663	 6.43928681150023E-02 
664	 6.40010564597076E-02 
665	 6.35981900111753E-02 
666	 0.063238171616285 
667	 6.29462808004608E-02 
668	 6.26698484840227E-02 
669	 6.24417471746918E-02 
670	 0.062358407759392 
671	 6.22384768444794E-02 
672	 6.21747500489074E-02 
673	 6.22265566537389E-02 
674	 6.22586272574556E-02 
675	 6.22971540959944E-02 
676	 6.23961747418155E-02 
677	 6.25949436817306E-02 
678	 6.27565699760362E-02 
679	 6.29662006132046E-02 
680	 6.32862769665459E-02 
681	 0.063733051871154 
682	 6.41619468142685E-02 
683	 6.48237470524943E-02 
684	 6.58272931799851E-02 
685	 6.66767846183236E-02 
686	 6.78817821167055E-02 
687	 6.95496528608453E-02 
688	 7.14078489249927E-02 
689	 7.32712355211844E-02 
690	 7.52869929200258E-02 
691	 7.76440685602026E-02 
692	 8.03642135894661E-02 
693	 8.33257419947294E-02 
694	 8.65749764268103E-02 
695	 9.01071090201676E-02 
696	 0.093781215867979 
697	 9.74263248821401E-02 
698	 0.101260645829893 
699	 0.105550505349709 
700	 0.109740438815598 
701	 0.114006827625967 
702	 0.118338368717351 
703	 0.12242686353643 
704	 0.126509982678738 
705	 0.130486385622391 
706	 0.134348608310539 
707	 0.138433978206987 
708	 0.142426529798452 
709	 0.146333384514361 
710	 0.150256632239886 
711	 0.154053089705311 
712	 0.157874650861091 
713	 0.161766751294523 
714	 0.165626917734654 
715	 0.169434806030311 
716	 0.173199598255418 
717	 0.177035002839669 
718	 0.180949370990718 
719	 0.184868226984583 
720	 0.188714998961973 
721	 0.192479410187138 
722	 0.196113165676151 
723	 0.199630421019555 
724	 0.203262856127823 
725	 0.207011126587855 
726	 0.210308004502037 
727	 0.213473103764232 
728	 0.216832888596262 
729	 0.219993552442489 
730	 0.222973908885038 
731	 0.225871220666177 
732	 0.228771856124604 
733	 0.231365777495658 
734	 0.233785363907432 
735	 0.236170494506597 
736	 0.238565390259144 
737	 0.240732683424225 
738	 0.242746358077838 
739	 0.244718081955549 
740	 0.24662986760239 
741	 0.24837817444092 
742	 0.249946876861983 
743	 0.251379875712075 
744	 0.252879670832604 
745	 0.254236899040641 
746	 0.255403462688152 
747	 0.256476332209418 
748	 0.257609090648483 
749	 0.258649755829391 
750	 0.259536527658726 
751	 0.260432906865424 
752	 0.261249630558573 
753	 0.261991852887607 
754	 0.262687648186421 
755	 0.263343968490281 
756	 0.263995468251175 
757	 0.264699330183427 
758	 0.265517008213239 
759	 0.266305260660602 
760	 0.267278651166073 
761	 0.268455577042621 
762	 0.269098948166282 
763	 0.26907110064134 
764	 0.269065563895528 
765	 0.269317411856968 
766	 0.269110869029621 
767	 0.269258605170395 
768	 0.269620648699836 
769	 0.269872146891984 
770	 0.270094549785633 
771	 0.270355150584456 
772	 0.270662825387917 
773	 0.270977919495513 
774	 0.271299622660963 
775	 0.271644007242151 
776	 0.271991670786883 
777	 0.272262250601111 
778	 0.272530767418483 
779	 0.272788752617594 
780	 0.273030149617133 
781	 0.27334717290544 
782	 0.273670603397622 
783	 0.273960492599411 
784	 0.274207011411671 
785	 0.27446228602396 
786	 0.274785240057062 
787	 0.275121913541366 
788	 0.275315813531751 
789	 0.275632365541517 
790	 0.275939694554827 
791	 0.276151373583299 
792	 0.276433198540592 
793	 0.276757344786444 
794	 0.277123984350382 
795	 0.277501809508123 
796	 0.277724948494561 
797	 0.278039561393653 
798	 0.278396065397204 
799	 0.278600137227972 
800	 0.278846991962537 
801	 0.279075943178591 
802	 0.279303326769029 
803	 0.279652562737574 
804	 0.280035034053802 
805	 0.280384313535524 
806	 0.280642019254478 
807	 0.280745627079874 
808	 0.281003154766369 
809	 0.281340955986546 
810	 0.281605638153365 
811	 0.281887807773753 
812	 0.282142850188016 
813	 0.282323090480502 
814	 0.282404985985379 
815	 0.282529991121708 
816	 0.282811205826898 
817	 0.283165837995692 
818	 0.28334097461583 
819	 0.28360570496438 
820	 0.284028781836142 
821	 0.284469242033169 
822	 0.284501156177822 
823	 0.284673185243796 
824	 0.285036390810404 
825	 0.285470101163642 
826	 0.285877127318213 
827	 0.286122073928565 
828	 0.286258979341702 
829	 0.286419579655502 
830	 0.286659886399895 
831	 0.286935640212638 
832	 0.287229009712487 
833	 0.287546738165775 
834	 0.287907961528591 
835	 0.288130610722573 
836	 0.288259803174798 
837	 0.288609480050042 
838	 0.288961729904073 
839	 0.289278864459416 
840	 0.289550475796539 
841	 0.289757110328162 
842	 0.289853705712904 
843	 0.290101434616478 
844	 0.290648810381156 
845	 0.291014464509459 
846	 0.291281025122654 
847	 0.291477652950898 
848	 0.291627218157633 
849	 0.291761834712814 
850	 0.292143792033839 
851	 0.292558858542037 
852	 0.292535319031678 
853	 0.292649488773908 
854	 0.292829599330535 
855	 0.293109356992546 
856	 0.293666827205174 
857	 0.294043614855737 
858	 0.294295543309399 
859	 0.294485222430554 
860	 0.294524217514377 
861	 0.29490936746101 
862	 0.295301909739308 
863	 0.295392652636673 
864	 0.295512467892957 
865	 0.295530670642581 
866	 0.295648923768849 
867	 0.296052575628131 
868	 0.296458215691025 
869	 0.29675281257093 
870	 0.296961710927562 
871	 0.29719142494572 
872	 0.297531718869058 
873	 0.29784731044214 
874	 0.298067553382805 
875	 0.298228017148241 
876	 0.298708028012223 
877	 0.298901790414553 
878	 0.298825108130345 
879	 0.299139030831818 
880	 0.299397334763488 
881	 0.299726325763919 
882	 0.300096334187427 
883	 0.300193469924178 
884	 0.300408503377185 
885	 0.300567207633772 
886	 0.300650366678632 
887	 0.301112103719476 
888	 0.301530179172055 
889	 0.301819687343601 
890	 0.302055238908095 
891	 0.302489143440347 
892	 0.302586981900167 
893	 0.302555998643054 
894	 0.302700475452721 
895	 0.302706727532727 
896	 0.302831453218923 
897	 0.303055970769788 
898	 0.303225467508693 
899	 0.303182968499271 
900	 0.303386183046969 
901	 0.303810938121204 
902	 0.304226571632875 
903	 0.304952722105701 
904	 0.305271740239377 
905	 0.305338334171135 
906	 0.305698054384494 
907	 0.305380933973817 
908	 0.305267606695251 
909	 0.305496873035107 
910	 0.305555555347106 
911	 0.306185649162404 
912	 0.306429201818788 
913	 0.306327553118968 
914	 0.306913710182877 
915	 0.307438142730192 
916	 0.307567817277298 
917	 0.307492143825322 
918	 0.307846443595156 
919	 0.308300536195828 
920	 0.308471272811617 
921	 0.308453775614498 
922	 0.308871209017017 
923	 0.308743322495661 
924	 0.308808501429367 
925	 0.309278682006172 
926	 0.309117006620735 
927	 0.308765255952624 
928	 0.308486415231152 
929	 0.308314658647669 
930	 0.30789577214801 
931	 0.307220848254691 
932	 0.306593832500037 
933	 0.306118498292953 
934	 0.305220985154297 
935	 0.30545249915226 
936	 0.306607082459041 
937	 0.307783711650727 
938	 0.308042421716967 
939	 0.308050389321658 
940	 0.30808983612041 
941	 0.308209993987791 
942	 0.308207084218742 
943	 0.308470798322805 
944	 0.308289194957304 
945	 0.307462675836267 
946	 0.307447777521835 
947	 0.307885198305648 
948	 0.307957339842992 
949	 0.307538850166822 
950	 0.308133837875394 
951	 0.308116251169168 
952	 0.307509829334283 
953	 0.306958834275046 
954	 0.307371208699889 
955	 0.307482244630378 
956	 0.307553802151003 
957	 0.307636087060327 
958	 0.306649633094596 
959	 0.306713950633487 
960	 0.307192419701052 
961	 0.307570701111534 
962	 0.308790481318485 
963	 0.308793166451887 
964	 0.308302550977507 
965	 0.308119617018461 
966	 0.308035472771085 
967	 0.309001008461538 
968	 0.309451469761414 
969	 0.308901354844143 
970	 0.309241581582284 
971	 0.309481660941319 
972	 0.309650462784069 
973	 0.309724510557731 
974	 0.309418798087247 
975	 0.309754569350499 
976	 0.310243856260521 
977	 0.310849351268287 
978	 0.312272699418025 
979	 0.312219027252466 
980	 0.31231481726923 
981	 0.312728996966197 
982	 0.311748136944241 
983	 0.311978471129399 
984	 0.312462562870797 
985	 0.312820886602287 
986	 0.313505506483323 
987	 0.313571345299942 
988	 0.31370625423854 
989	 0.313913549373722 
990	 0.313783944039977 
991	 0.314716651970644 
992	 0.314896721711735 
993	 0.314965298020466 
994	 0.316578209810977 
995	 0.317622861949895 
996	 0.316986583109875 
997	 0.315757017881909 
998	 0.31555873904889 
999	 0.315109740610408 
1000	 0.316504797932507 
1001	 0.314086832814007 
1002	 0.314328111637573 
1003	 0.314635500157175 
1004	 0.314969118348607 
1005	 0.315220697963961 
1006	 0.315414548713045 
1007	 0.315706128681711 
1008	 0.316005159513319 
1009	 0.316328876188994 
1010	 0.316739095139795 
1011	 0.317122187284254 
1012	 0.317483958504975 
1013	 0.317735317103206 
1014	 0.318045834488433 
1015	 0.318416365142653 
1016	 0.318713844458387 
1017	 0.31890265969126 
1018	 0.319141155998539 
1019	 0.319323296791683 
1020	 0.319619122755168 
1021	 0.319987748798871 
1022	 0.320353185668953 
1023	 0.320834252043059 
1024	 0.321114896517193 
1025	 0.321328481124581 
1026	 0.321574764436171 
1027	 0.321796578254658 
1028	 0.322147226184873 
1029	 0.322537337925298 
1030	 0.322937592657049 
1031	 0.323341576273309 
1032	 0.323612775667984 
1033	 0.323891300079749 
1034	 0.324140574707321 
1035	 0.324457028127605 
1036	 0.32474791304478 
1037	 0.325084985458742 
1038	 0.325543785174177 
1039	 0.325849929463215 
1040	 0.326085661980256 
1041	 0.326396221158955 
1042	 0.326598284122436 
1043	 0.326831626318666 
1044	 0.32715099002472 
1045	 0.32749175693736 
1046	 0.32782999485368 
1047	 0.328061302222445 
1048	 0.328243873433133 
1049	 0.328396849109147 
1050	 0.328588631220985 
1051	 0.328755234972267 
1052	 0.329043145210977 
1053	 0.329329854645298 
1054	 0.32951898018383 
1055	 0.329672893297985 
1056	 0.329864125338819 
1057	 0.330098753954812 
1058	 0.330316842808185 
1059	 0.330436406079718 
1060	 0.330628299656823 
1061	 0.330795989603199 
1062	 0.330859231855479 
1063	 0.330990204413113 
1064	 0.331029260316154 
1065	 0.331075357096756 
1066	 0.331043600141365 
1067	 0.331122216272108 
1068	 0.331253076281228 
1069	 0.331411874476768 
1070	 0.33161595299159 
1071	 0.331821297448952 
1072	 0.331913025168957 
1073	 0.331925689902051 
1074	 0.33190633519719 
1075	 0.331878613095417 
1076	 0.331929201334664 
1077	 0.332022882595752 
1078	 0.332077791782402 
1079	 0.332108559856276 
1080	 0.33208231445419 
1081	 0.33213414825526 
1082	 0.332222875605633 
1083	 0.332367002350694 
1084	 0.332441621815707 
1085	 0.332524060584322 
1086	 0.332465645510697 
1087	 0.33237785772721 
1088	 0.332419828081708 
1089	 0.332516660105569 
1090	 0.332679575912864 
1091	 0.332828972449329 
1092	 0.33291572682 
1093	 0.332899751682771 
1094	 0.332877746051932 
1095	 0.332895086537417 
1096	 0.332912397788633 
1097	 0.332949376622086 
1098	 0.332984937622939 
1099	 0.333029595996979 
1100	 0.333061499147823 
1101	 0.333081262147271 
1102	 0.333096118344917 
1103	 0.333131706324373 
1104	 0.333079041061113 
1105	 0.33303395704863 
1106	 0.332998546428563 
1107	 0.332966418199537 
1108	 0.33299867056255 
1109	 0.332902579116686 
1110	 0.332757586887967 
1111	 0.332622551049095 
1112	 0.332364280461308 
1113	 0.332155005667771 
1114	 0.332014234555117 
1115	 0.331836971950429 
1116	 0.33161515885751 
1117	 0.331414839589477 
1118	 0.3312317973472 
1119	 0.330961866796829 
1120	 0.330732416335162 
1121	 0.330554008435267 
1122	 0.330275721537443 
1123	 0.330158161925687 
1124	 0.330075202963023 
1125	 0.329787938065914 
1126	 0.329667231281987 
1127	 0.329756056939718 
1128	 0.329637083072024 
1129	 0.329511738348934 
1130	 0.329317644062754 
1131	 0.329028319155487 
1132	 0.32870338536622 
1133	 0.328331352756444 
1134	 0.327956513481168 
1135	 0.327569788683334 
1136	 0.327232365293888 
1137	 0.326822332722951 
1138	 0.326267080709189 
1139	 0.325622846570064 
1140	 0.324877508393776 
1141	 0.324204900220487 
1142	 0.323675380918264 
1143	 0.323052140182175 
1144	 0.322513643126237 
1145	 0.321803794248512 
1146	 0.320912475348007 
1147	 0.320141124033369 
1148	 0.319302862648595 
1149	 0.318663083791966 
1150	 0.318082206524708 
1151	 0.317668619709014 
1152	 0.317427993391054 
1153	 0.317282075107337 
1154	 0.317131740048441 
1155	 0.317138222091246 
1156	 0.317073179348156 
1157	 0.316975777003224 
1158	 0.31697345906302 
1159	 0.316985040105457 
1160	 0.316971960387394 
1161	 0.316975750207912 
1162	 0.316965394403464 
1163	 0.316876746191076 
1164	 0.316907780852841 
1165	 0.317011117087539 
1166	 0.317100104271016 
1167	 0.317235081607809 
1168	 0.317363167359358 
1169	 0.317491951345852 
1170	 0.317632336615802 
1171	 0.317698594980225 
1172	 0.317767518023368 
1173	 0.3178779482345 
1174	 0.317939795915549 
1175	 0.318027211740848 
1176	 0.318126400876285 
1177	 0.31819922962512 
1178	 0.318220704855398 
1179	 0.318250140849221 
1180	 0.31828078223558 
1181	 0.318339558530722 
1182	 0.31838708793899 
1183	 0.318420208621401 
1184	 0.318484355795987 
1185	 0.31853304210123 
1186	 0.318558779134995 
1187	 0.318570886453786 
1188	 0.318556179710439 
1189	 0.318592716498299 
1190	 0.318621301640334 
1191	 0.318628365193996 
1192	 0.318745711258371 
1193	 0.318820403317387 
1194	 0.318894029671002 
1195	 0.318972187102728 
1196	 0.319048410830347 
1197	 0.31908556790831 
1198	 0.319189625486718 
1199	 0.319326817611925 
1200	 0.31946498292659 
1201	 0.319640466038512 
1202	 0.319819415301243 
1203	 0.319994099289523 
1204	 0.320178453846683 
1205	 0.32038097492576 
1206	 0.320588351627097 
1207	 0.320797324272607 
1208	 0.321010742157397 
1209	 0.321229834579836 
1210	 0.321469171357356 
1211	 0.321683889193812 
1212	 0.32192420787925 
1213	 0.322135213093081 
1214	 0.322319101148532 
1215	 0.322546758156239 
1216	 0.322762377263852 
1217	 0.323035392106921 
1218	 0.323376678248642 
1219	 0.32368107217151 
1220	 0.323999659873137 
1221	 0.324299657701861 
1222	 0.324581789240706 
1223	 0.324869705629009 
1224	 0.325183655354445 
1225	 0.325466054392845 
1226	 0.325754164871293 
1227	 0.325990539301803 
1228	 0.326171607437084 
1229	 0.326329147184634 
1230	 0.326557358498017 
1231	 0.326821177708517 
1232	 0.327096911108954 
1233	 0.327460572386351 
1234	 0.327757625270855 
1235	 0.328022506030368 
1236	 0.328295537727016 
1237	 0.328568468223582 
1238	 0.328841087411606 
1239	 0.329139369918345 
1240	 0.32936830937334 
1241	 0.329548778686313 
1242	 0.32976922064015 
1243	 0.329960755921455 
1244	 0.330153434055842 
1245	 0.330343777125979 
1246	 0.330589126347993 
1247	 0.330863324795393 
1248	 0.331107791208451 
1249	 0.33143106033199 
1250	 0.331695185308846 
1251	 0.331876818379151 
1252	 0.332078325233419 
1253	 0.332250547235835 
1254	 0.332379437779297 
1255	 0.332588884319659 
1256	 0.332808428497758 
1257	 0.333045445646716 
1258	 0.333376848382067 
1259	 0.333618622637966 
1260	 0.333806018571253 
1261	 0.334023405513791 
1262	 0.334251856699663 
1263	 0.334440310676332 
1264	 0.334614252006687 
1265	 0.334778739624767 
1266	 0.334898932052199 
1267	 0.335019152950314 
1268	 0.335161934715483 
1269	 0.335258220555984 
1270	 0.335292934351214 
1271	 0.335346588247157 
1272	 0.335442003369051 
1273	 0.335430638947498 
1274	 0.335428317867307 
1275	 0.335433829301281 
1276	 0.335376854859456 
1277	 0.335251297857649 
1278	 0.335153700043407 
1279	 0.335041036711339 
1280	 0.33492264245476 
1281	 0.334783486459847 
1282	 0.33467472871516 
1283	 0.334589685334588 
1284	 0.334463187831076 
1285	 0.33434941980264 
1286	 0.334202373905615 
1287	 0.334028939298935 
1288	 0.33381753512225 
1289	 0.333551715695089 
1290	 0.333323192234014 
1291	 0.333117803699797 
1292	 0.332839175523956 
1293	 0.332528116088421 
1294	 0.332232084473424 
1295	 0.331853959688521 
1296	 0.331504534348554 
1297	 0.331193703422952 
1298	 0.330989029915337 
1299	 0.330604094643395 
1300	 0.330138881504409 
1301	 0.329719381514224 
1302	 0.329199729717062 
1303	 0.328777037149913 
1304	 0.328472434831403 
1305	 0.328043069146297 
1306	 0.327578035393368 
1307	 0.327088712297557 
1308	 0.326525063452816 
1309	 0.325991190318616 
1310	 0.325448956949586 
1311	 0.32490887429405 
1312	 0.324406974357783 
1313	 0.323829830248354 
1314	 0.323223909013817 
1315	 0.322592451537157 
1316	 0.321881285155603 
1317	 0.321193085055846 
1318	 0.320488246263619 
1319	 0.31980256911287 
1320	 0.31910005044556 
1321	 0.318460995873201 
1322	 0.317732406397135 
1323	 0.316980000447284 
1324	 0.316207769386738 
1325	 0.315369139625509 
1326	 0.314518311876997 
1327	 0.313618681102486 
1328	 0.312766986576226 
1329	 0.311917972859225 
1330	 0.311003216984209 
1331	 0.31013781222409 
1332	 0.309175637394703 
1333	 0.308055858664461 
1334	 0.307056935616454 
1335	 0.306024012984063 
1336	 0.305130505726337 
1337	 0.304350645105746 
1338	 0.303559097792328 
1339	 0.302867432703755 
1340	 0.302106854162962 
1341	 0.301193590601417 
1342	 0.300348606067988 
1343	 0.299348446670735 
1344	 0.298447948400039 
1345	 0.297536901797551 
1346	 0.29671343566626 
1347	 0.295753879798489 
1348	 0.294757982828121 
1349	 0.29382816966627 
1350	 0.292930900801867 
1351	 0.291778140979065 
1352	 0.290948096851191 
1353	 0.289430619547316 
1354	 0.286852802817964 
1355	 0.284336620981462 
1356	 0.282209026992546 
1357	 0.279566077392196 
1358	 0.280137499902916 
1359	 0.278127264269587 
1360	 0.277125952254652 
1361	 0.275430348200626 
1362	 0.274889045811798 
1363	 0.271987762603278 
1364	 0.271467212661009 
1365	 0.270960376393765 
1366	 0.273373728962574 
1367	 0.266725737301959 
1368	 0.257302262293522 
1369	 0.25336351888963 
1370	 0.245182626530836 
1371	 0.244067646239389 
1372	 0.25127485978609 
1373	 0.252143901307826 
1374	 0.249823799560344 
1375	 0.251244705135099 
1376	 0.249749010510171 
1377	 0.244098516290732 
1378	 0.241564874473844 
1379	 0.239737614215934 
1380	 0.236622760354872 
1381	 0.233203196565183 
1382	 0.230799253671363 
1383	 0.229259036605422 
1384	 0.225549873956522 
1385	 0.221863302721756 
1386	 0.218395155148784 
1387	 0.214400956402705 
1388	 0.210513962636859 
1389	 0.208351022065645 
1390	 0.204270692035536 
1391	 0.197761564332016 
1392	 0.194352027499303 
1393	 0.192278736235723 
1394	 0.188788974243455 
1395	 0.185304752937873 
1396	 0.182623179106809 
1397	 0.179332576165695 
1398	 0.176407912772148 
1399	 0.175467997180144 
1400	 0.172997175348642 
1401	 0.168347358324441 
1402	 0.165759582049417 
1403	 0.165092120270791 
1404	 0.162555227796435 
1405	 0.159354624614246 
1406	 0.157568958590267 
1407	 0.15576830759746 
1408	 0.152851700412146 
1409	 0.150831975432586 
1410	 0.149587735793579 
1411	 0.148239478213049 
1412	 0.146491646146358 
1413	 0.14556929825717 
1414	 0.145357135822951 
1415	 0.144569345343611 
1416	 0.143851988804697 
1417	 0.142721062981805 
1418	 0.14119392689269 
1419	 0.14027079027914 
1420	 0.139322739328333 
1421	 0.138607002120087 
1422	 0.138339710226794 
1423	 0.137802833672902 
1424	 0.137095000752684 
1425	 0.136551698076238 
1426	 0.136007735018476 
1427	 0.135498111701053 
1428	 0.134869838295366 
1429	 0.134582281301396 
1430	 0.134588408356546 
1431	 0.134386546719815 
1432	 0.134301744689426 
1433	 0.134140871302201 
1434	 0.133825671479032 
1435	 0.133491794720402 
1436	 0.133119565529065 
1437	 0.132843705411731 
1438	 0.132443269934512 
1439	 0.132219758100487 
1440	 0.13228325342127 
1441	 0.132238620068571 
1442	 0.132187421850099 
1443	 0.132131757632096 
1444	 0.13197817827308 
1445	 0.131929086725873 
1446	 0.132214537509613 
1447	 0.132449706215657 
1448	 0.132577700988071 
1449	 0.13276031694828 
1450	 0.132919904924768 
1451	 0.13297180453445 
1452	 0.13303035553036 
1453	 0.133131741795553 
1454	 0.133255751695001 
1455	 0.133318152147142 
1456	 0.133424285389671 
1457	 0.133635538293489 
1458	 0.133772869675094 
1459	 0.133829632821736 
1460	 0.133962402334526 
1461	 0.134142887053715 
1462	 0.134345150763374 
1463	 0.134551509720453 
1464	 0.134855096138671 
1465	 0.1352303135502 
1466	 0.135666424823753 
1467	 0.136230121686205 
1468	 0.136760346677926 
1469	 0.137305477855086 
1470	 0.137875826331879 
1471	 0.138377205070746 
1472	 0.138980857559735 
1473	 0.139515297863474 
1474	 0.14025321709292 
1475	 0.141274853602973 
1476	 0.141997908603002 
1477	 0.142620672021947 
1478	 0.143326199494162 
1479	 0.143738188781028 
1480	 0.144457830850331 
1481	 0.145514040906656 
1482	 0.146402936573544 
1483	 0.147245845102573 
1484	 0.148165035058244 
1485	 0.149088588323939 
1486	 0.149956677619914 
1487	 0.15079317452878 
1488	 0.151714440886029 
1489	 0.152573357836033 
1490	 0.153431522193833 
1491	 0.154365213453487 
1492	 0.155199188130179 
1493	 0.156020329661289 
1494	 0.156850059701142 
1495	 0.157698793420295 
1496	 0.158583057280543 
1497	 0.159488840656583 
1498	 0.160443231176093 
1499	 0.161328550083248 
1500	 0.162224213650284 
1501	 0.163142768076406 
1502	 0.164021457632191 
1503	 0.164963549387417 
1504	 0.165982708580563 
1505	 0.166952581307087 
1506	 0.16790162367288 
1507	 0.168870970547357 
1508	 0.169871681925354 
1509	 0.170794926616726 
1510	 0.171676472815169 
1511	 0.172594189745924 
1512	 0.173486024839136 
1513	 0.174390403897994 
1514	 0.175332395404296 
1515	 0.176264195323118 
1516	 0.177201635116198 
1517	 0.178103996356305 
1518	 0.178982096737914 
1519	 0.179924603194542 
1520	 0.180874530264359 
1521	 0.181817088871716 
1522	 0.182839277775987 
1523	 0.183794638548488 
1524	 0.184687046831586 
1525	 0.185598306924355 
1526	 0.186505550184684 
1527	 0.187429979121774 
1528	 0.188395185138456 
1529	 0.189283296835813 
1530	 0.190159824302216 
1531	 0.191003165597852 
1532	 0.191728555506435 
1533	 0.192548906025419 
1534	 0.193416610057038 
1535	 0.194282597899909 
1536	 0.19521281046421 
1537	 0.196086045286539 
1538	 0.19691021662726 
1539	 0.19776516419462 
1540	 0.198624247093522 
1541	 0.199472024441027 
1542	 0.200344049903284 
1543	 0.201190981491111 
1544	 0.202012440292367 
1545	 0.202821193247564 
1546	 0.203579689572556 
1547	 0.204402599808528 
1548	 0.205290346339073 
1549	 0.206112788719983 
1550	 0.20693858866228 
1551	 0.207767284636301 
1552	 0.208555543250304 
1553	 0.209327772270829 
1554	 0.210148703252564 
1555	 0.210906689434487 
1556	 0.211559339266051 
1557	 0.212253442671227 
1558	 0.212932032346803 
1559	 0.213630950140106 
1560	 0.214370971739401 
1561	 0.215102242194783 
1562	 0.215893204021496 
1563	 0.216598361089841 
1564	 0.217292169989522 
1565	 0.217879689849687 
1566	 0.218455490551359 
1567	 0.219109207104422 
1568	 0.219772792240392 
1569	 0.220496444615149 
1570	 0.221192869569793 
1571	 0.22189285582132 
1572	 0.222586214637364 
1573	 0.223283492951573 
1574	 0.223965046478565 
1575	 0.22463815023884 
1576	 0.225270812719934 
1577	 0.225862425870792 
1578	 0.22649155218348 
1579	 0.227099705955497 
1580	 0.227707027833067 
1581	 0.228342309174377 
1582	 0.228933432781837 
1583	 0.229463876655249 
1584	 0.230077930440223 
1585	 0.230728088206357 
1586	 0.231349046557467 
1587	 0.23198973439372 
1588	 0.232637526493116 
1589	 0.23329498203173 
1590	 0.233889445779768 
1591	 0.234485608304353 
1592	 0.235061676553566 
1593	 0.235548299661615 
1594	 0.236134323448251 
1595	 0.236793384853816 
1596	 0.23739216769761 
1597	 0.238002515209996 
1598	 0.238573801706985 
1599	 0.239116874260201 
1600	 0.239647846269951 
1601	 0.240173564838375 
1602	 0.240651999429656 
1603	 0.241060008707977 
1604	 0.241555039531896 
1605	 0.242031836589717 
1606	 0.242582936536123 
1607	 0.243240458776056 
1608	 0.243796650319127 
1609	 0.244327482435332 
1610	 0.244869914278695 
1611	 0.24540109811173 
1612	 0.245886351097231 
1613	 0.246364018762896 
1614	 0.24682642903814 
1615	 0.247223762921732 
1616	 0.247654081273928 
1617	 0.248106884424218 
1618	 0.248546979334038 
1619	 0.248939946971425 
1620	 0.249431669008617 
1621	 0.250016396039447 
1622	 0.250478726418859 
1623	 0.250964082839471 
1624	 0.251354445866762 
1625	 0.25158630965885 
1626	 0.251974779944706 
1627	 0.252417939919794 
1628	 0.252824968004927 
1629	 0.253289920061705 
1630	 0.253689569408284 
1631	 0.25401789446186 
1632	 0.254401153166086 
1633	 0.254824631535611 
1634	 0.255190603666094 
1635	 0.25556305071014 
1636	 0.255876088116993 
1637	 0.25610976676428 
1638	 0.256397660929562 
1639	 0.256667007255275 
1640	 0.256977984209873 
1641	 0.2573309141033 
1642	 0.257656699416663 
1643	 0.257989445064437 
1644	 0.258302838272471 
1645	 0.258616247370542 
1646	 0.25886909475183 
1647	 0.259107295183079 
1648	 0.259284897912365 
1649	 0.259356827561865 
1650	 0.259565480904352 
1651	 0.259795901280745 
1652	 0.260000135073242 
1653	 0.260289527609088 
1654	 0.260459772282854 
1655	 0.260532216401264 
1656	 0.260695757343644 
1657	 0.260860290984889 
1658	 0.260978346653425 
1659	 0.26121331926872 
1660	 0.261308412440319 
1661	 0.261428366805112 
1662	 0.26157915011843 
1663	 0.261589082067321 
1664	 0.261651892753135 
1665	 0.261747192924931 
1666	 0.261884266031717 
1667	 0.261997378105064 
1668	 0.262043877850607 
1669	 0.262093382242569 
1670	 0.262017384401895 
1671	 0.261950439501843 
1672	 0.262059161562791 
1673	 0.262188622195013 
1674	 0.262205492344944 
1675	 0.262176932927916 
1676	 0.262092345403363 
1677	 0.261976559634732 
1678	 0.261946387686883 
1679	 0.2619174542068 
1680	 0.261786065145508 
1681	 0.261541031873783 
1682	 0.261367653204172 
1683	 0.261230343016777 
1684	 0.260966387322444 
1685	 0.26076362792133 
1686	 0.260628866728071 
1687	 0.260434646005453 
1688	 0.260285847498894 
1689	 0.260131975976279 
1690	 0.259675439971103 
1691	 0.259418280491857 
1692	 0.259313982080201 
1693	 0.259108807188566 
1694	 0.258997696957677 
1695	 0.25880045474669 
1696	 0.258405730292072 
1697	 0.258109042090315 
1698	 0.257912494221684 
1699	 0.25761915077609 
1700	 0.257255864570599 
1701	 0.256954381402472 
1702	 0.256634011420589 
1703	 0.256311730206131 
1704	 0.256021829252121 
1705	 0.255801860394487 
1706	 0.255619425230384 
1707	 0.255337671920386 
1708	 0.255108268996606 
1709	 0.25477799354223 
1710	 0.254246417697852 
1711	 0.253883770426227 
1712	 0.253599756510877 
1713	 0.253309058118124 
1714	 0.253124667358876 
1715	 0.252844997785458 
1716	 0.252539782032377 
1717	 0.252122223567847 
1718	 0.251540388445457 
1719	 0.25109360682872 
1720	 0.250609179977549 
1721	 0.250245484151536 
1722	 0.250060021587856 
1723	 0.249765254417917 
1724	 0.249455224222305 
1725	 0.249123212479644 
1726	 0.248743077237796 
1727	 0.248393854473437 
1728	 0.248021243443052 
1729	 0.247779520825835 
1730	 0.247649393240739 
1731	 0.247428783484714 
1732	 0.247137535284053 
1733	 0.246726404379229 
1734	 0.246347449168259 
1735	 0.24611006355777 
1736	 0.24588591941566 
1737	 0.245523390504918 
1738	 0.245128177825039 
1739	 0.244721937420149 
1740	 0.244242161200306 
1741	 0.243799663236634 
1742	 0.243421521916976 
1743	 0.243085448524888 
1744	 0.242669810012215 
1745	 0.242105798170186 
1746	 0.241571845930677 
1747	 0.241112233099418 
1748	 0.240480511676806 
1749	 0.239916414242604 
1750	 0.2394595665956 
1751	 0.238805278764312 
1752	 0.238265399744943 
1753	 0.237838694447489 
1754	 0.237406391095089 
1755	 0.237025929918474 
1756	 0.236573737280503 
1757	 0.236145280401653 
1758	 0.235616030864125 
1759	 0.234860134267432 
1760	 0.234286020516614 
1761	 0.233802865770655 
1762	 0.233253058358338 
1763	 0.2327736047902 
1764	 0.232237631315513 
1765	 0.231494567221898 
1766	 0.231011260952019 
1767	 0.230679345468398 
1768	 0.230415359780371 
1769	 0.230382076961093 
1770	 0.230141223362773 
1771	 0.229820010530323 
1772	 0.22946552847735 
1773	 0.229051594962176 
1774	 0.228753624667434 
1775	 0.228325155201704 
1776	 0.228074622840164 
1777	 0.227863058417305 
1778	 0.227411008478768 
1779	 0.227122596026141 
1780	 0.226885026309235 
1781	 0.226342009619399 
1782	 0.22622106701307 
1783	 0.226575376546971 
1784	 0.226666356369186 
1785	 0.226681286635598 
1786	 0.226624684635497 
1787	 0.226150091618655 
1788	 0.225679807404023 
1789	 0.225629124299244 
1790	 0.225412411131878 
1791	 0.22510536768967 
1792	 0.225199970662894 
1793	 0.225093393526346 
1794	 0.225244592614049 
1795	 0.225721642944686 
1796	 0.22546937629252 
1797	 0.225222187000784 
1798	 0.225136055966356 
1799	 0.224826207807348 
1800	 0.225634935201754 
1801	 0.224276925410199 
1802	 0.22407486589214 
1803	 0.223958892688506 
1804	 0.224097935211502 
1805	 0.223947158239579 
1806	 0.223225342112574 
1807	 0.223199461994899 
1808	 0.22366225572322 
1809	 0.224006031640396 
1810	 0.224487647045318 
1811	 0.225971339926588 
1812	 0.226403743222042 
1813	 0.226115917586351 
1814	 0.22584193641939 
1815	 0.224623068369718 
1816	 0.224007116736551 
1817	 0.223008726367599 
1818	 0.222877202768968 
1819	 0.223336678630159 
1820	 0.225723175686746 
1821	 0.225446384966695 
1822	 0.223716536018258 
1823	 0.223529873875261 
1824	 0.222193696311519 
1825	 0.221284560697947 
1826	 0.223066875922701 
1827	 0.223791611329396 
1828	 0.223967066044322 
1829	 0.219734487646044 
1830	 0.221943418472304 
1831	 0.233674078601544 
1832	 0.238241973509189 
1833	 0.248781999455843 
1834	 0.250097351441461 
1835	 0.212269306886686 
1836	 0.1936573440481 
1837	 0.190731426592486 
1838	 0.177518786902655 
1839	 0.168390075350194 
1840	 0.174514142996806 
1841	 0.18710784142684 
1842	 0.205463696066916 
1843	 0.210439760295191 
1844	 0.217365647292234 
1845	 0.23092508437678 
1846	 0.238080503740834 
1847	 0.244657142561896 
1848	 0.255355666821166 
1849	 0.303766000465866 
1850	 0.295108904705786 
1851	 0.236836375151679 
1852	 0.22207887234916 
1853	 0.198707725025538 
1854	 0.191231315897227 
1855	 0.219992451960283 
1856	 0.226492869227645 
1857	 0.225603907771878 
1858	 0.215242706182229 
1859	 0.221541707494447 
1860	 0.232007411757887 
1861	 0.238281656535342 
1862	 0.262644622176893 
1863	 0.260056288745873 
1864	 0.22913646866084 
1865	 0.219960507782228 
1866	 0.219197190588477 
1867	 0.193715497878713 
1868	 0.18215879565092 
1869	 0.210460688963106 
1870	 0.204327014533165 
1871	 0.175382269288532 
1872	 0.164819316577184 
1873	 0.157096614366437 
1874	 0.150092195568581 
1875	 0.166550139127983 
1876	 0.157549617743682 
1877	 0.140842380570757 
1878	 0.122636148888146 
1879	 0.110982048742028 
1880	 0.103673102509665 
1881	 0.104414793698859 
1882	 0.117617831756677 
1883	 0.119871377850831 
1884	 0.122250053619155 
1885	 0.120404527189289 
1886	 0.113243981919537 
1887	 0.108206719109217 
1888	 0.1033992409545 
1889	 0.101292682266988 
1890	 0.102446173166863 
1891	 0.110950077868665 
1892	 0.109678197446305 
1893	 0.103766233613471 
1894	 0.1032685604882 
1895	 9.91162290826307E-02 
1896	 9.81669957024804E-02 
1897	 0.103893116081574 
1898	 0.112590427474303 
1899	 0.120431646682508 
1900	 0.122476513647601 
1901	 0.122449565135343 
1902	 0.124878165879783 
1903	 0.118068360586042 
1904	 8.60196545761959E-02 
1905	 7.44089581950057E-02 
1906	 7.75487664023583E-02 
1907	 6.76848440389214E-02 
1908	 6.39356365446349E-02 
1909	 6.57927362543031E-02 
1910	 5.67878454274388E-02 
1911	 4.60157258027155E-02 
1912	 4.88011228081919E-02 
1913	 6.08115719231281E-02 
1914	 6.26844178601898E-02 
1915	 0.063920966124336 
1916	 6.59076714687484E-02 
1917	 6.68107256913857E-02 
1918	 6.43955645794459E-02 
1919	 6.68772711075237E-02 
1920	 6.84423768632722E-02 
1921	 6.59510050672481E-02 
1922	 0.065821371101839 
1923	 6.67030310417985E-02 
1924	 6.77757501914661E-02 
1925	 6.89201237730909E-02 
1926	 7.22959038895107E-02 
1927	 7.31293613653633E-02 
1928	 7.26543691632369E-02 
1929	 0.072218216570633 
1930	 7.12507639754247E-02 
1931	 7.03758009085367E-02 
1932	 6.91351063168451E-02 
1933	 6.79972342506242E-02 
1934	 6.68925921436927E-02 
1935	 6.52557142802662E-02 
1936	 0.064622927640343 
1937	 6.41188026436887E-02 
1938	 6.45220662173519E-02 
1939	 6.52447771336072E-02 
1940	 6.70630958913944E-02 
1941	 6.92598246441737E-02 
1942	 6.91800583281036E-02 
1943	 6.95539499771392E-02 
1944	 7.03482608744975E-02 
1945	 6.93735191169597E-02 
1946	 6.89449456137453E-02 
1947	 6.90975390829533E-02 
1948	 6.91840483765958E-02 
1949	 6.94293972323695E-02 
1950	 7.03361804046668E-02 
1951	 7.13374284504131E-02 
1952	 7.15148963139467E-02 
1953	 7.13924888928452E-02 
1954	 7.12033759998647E-02 
1955	 7.15852034119906E-02 
1956	 7.25805167345841E-02 
1957	 7.37599101725073E-02 
1958	 7.41074808628487E-02 
1959	 7.40666055752842E-02 
1960	 7.41449941486025E-02 
1961	 7.38699118095213E-02 
1962	 7.33573697533286E-02 
1963	 7.37528030524068E-02 
1964	 7.43376026178841E-02 
1965	 7.46476271237565E-02 
1966	 7.51162156009221E-02 
1967	 7.55660848766634E-02 
1968	 7.59095913887858E-02 
1969	 7.65624082181202E-02 
1970	 7.77360257018919E-02 
1971	 7.83706071250104E-02 
1972	 7.89509875848058E-02 
1973	 7.93618672139138E-02 
1974	 7.97103969935814E-02 
1975	 7.97952993239246E-02 
1976	 8.00973814844913E-02 
1977	 8.05571745761398E-02 
1978	 8.08548059229324E-02 
1979	 8.13838413951872E-02 
1980	 8.18357258408716E-02 
1981	 8.22878999379265E-02 
1982	 0.082712005935212 
1983	 8.31260075734679E-02 
1984	 8.34558758619624E-02 
1985	 0.083913498982893 
1986	 0.084303583208344 
1987	 8.50123941599649E-02 
1988	 8.58205081089981E-02 
1989	 8.63694707007498E-02 
1990	 8.68591063764761E-02 
1991	 8.73662559812754E-02 
1992	 8.77184686209052E-02 
1993	 8.81277407229641E-02 
1994	 8.86541426185773E-02 
1995	 8.91139609047953E-02 
1996	 8.95916891955636E-02 
1997	 8.98013885385909E-02 
1998	 8.99352978805544E-02 
1999	 9.05869928322846E-02 
2000	 9.06696026170962E-02 
2001	 9.07970612168336E-02 
2002	 9.15860617734952E-02 
2003	 9.19877940616068E-02 
2004	 9.28283177053681E-02 
2005	 9.39154150729402E-02 
2006	 9.48191841058586E-02 
2007	 9.53710514740286E-02 
2008	 9.62404073810518E-02 
2009	 9.75959291993019E-02 
2010	 9.85518832687965E-02 
2011	 9.94058894819398E-02 
2012	 0.100039013284731 
2013	 0.10014406949954 
2014	 0.100592310279864 
2015	 0.10124703673864 
2016	 0.101717420390858 
2017	 0.102268660335554 
2018	 0.102503902050268 
2019	 0.102590560267048 
2020	 0.102403786271338 
2021	 0.102649379890232 
2022	 0.102948092447273 
2023	 0.103173352709834 
2024	 0.103795228540292 
2025	 0.104259399173948 
2026	 0.104397995382968 
2027	 0.104622683085389 
2028	 0.104745447109738 
2029	 0.104897284928333 
2030	 0.105398296545147 
2031	 0.105913192974222 
2032	 0.106303781680263 
2033	 0.106788826707431 
2034	 0.107178959086185 
2035	 0.107285741088435 
2036	 0.107640146151792 
2037	 0.108082379476825 
2038	 0.108355002460874 
2039	 0.108838879564795 
2040	 0.109150086515798 
2041	 0.109549440435949 
2042	 0.110201283098295 
2043	 0.110632833848747 
2044	 0.111013078598848 
2045	 0.111285851752547 
2046	 0.111367901497166 
2047	 0.111442784984276 
2048	 0.111647899053771 
2049	 0.111830047387312 
2050	 0.112091552848983 
2051	 0.112483776121808 
2052	 0.112930596746772 
2053	 0.113152027072752 
2054	 0.113550525002058 
2055	 0.113931906870462 
2056	 0.114140259021381 
2057	 0.114707808349576 
2058	 0.115323891944597 
2059	 0.115718050447213 
2060	 0.115994812553519 
2061	 0.116231509182541 
2062	 0.116348375555486 
2063	 0.116420219863344 
2064	 0.116686382897948 
2065	 0.116859235753883 
2066	 0.117303719201367 
2067	 0.1180768424927 
2068	 0.118526524234123 
2069	 0.11919392787693 
2070	 0.120019516630201 
2071	 0.12049283381642 
2072	 0.120860324012211 
2073	 0.121176902934272 
2074	 0.121553620185173 
2075	 0.121719545846773 
2076	 0.121686936012135 
2077	 0.121813688943958 
2078	 0.122026363281236 
2079	 0.122154266596462 
2080	 0.122597396044506 
2081	 0.123565019043253 
2082	 0.124427089036473 
2083	 0.124915350581075 
2084	 0.125394056141474 
2085	 0.125675577625678 
2086	 0.125886043954471 
2087	 0.1261540875906 
2088	 0.126558507343276 
2089	 0.126968532449694 
2090	 0.127403346528338 
2091	 0.127616575758345 
2092	 0.127900625882746 
2093	 0.128239458895182 
2094	 0.12861854405268 
2095	 0.129215968890778 
2096	 0.129541492889444 
2097	 0.129894850150937 
2098	 0.130081486051287 
2099	 0.130214888680569 
2100	 0.131034818260501 
2101	 0.13174782887835 
2102	 0.132272747123366 
2103	 0.13278685380594 
2104	 0.13318848037532 
2105	 0.133290675756539 
2106	 0.133614404220845 
2107	 0.1338552536937 
2108	 0.134262371696146 
2109	 0.134855611407191 
2110	 0.135267606193451 
2111	 0.135840431687933 
2112	 0.136246969705023 
2113	 0.136479276033562 
2114	 0.137019248732401 
2115	 0.137821170571992 
2116	 0.13878327554293 
2117	 0.139361884798498 
2118	 0.139734411852761 
2119	 0.14001102580613 
2120	 0.139953965232688 
2121	 0.139995826562156 
2122	 0.140412143457655 
2123	 0.140973284177459 
2124	 0.141683329173398 
2125	 0.142066100222363 
2126	 0.142091968917342 
2127	 0.142459127905121 
2128	 0.142722358698573 
2129	 0.142943446904656 
2130	 0.143460644680122 
2131	 0.143973593381889 
2132	 0.144514891300554 
2133	 0.145203197674469 
2134	 0.145654120189625 
2135	 0.146024180584008 
2136	 0.146249089885046 
2137	 0.146484631838317 
2138	 0.146512536606994 
2139	 0.146902238927971 
2140	 0.147333475406933 
2141	 0.147341208124537 
2142	 0.147673269654876 
2143	 0.148103837091477 
2144	 0.148472161831028 
2145	 0.149008117804464 
2146	 0.149550751497117 
2147	 0.149827272636964 
2148	 0.149784664670829 
2149	 0.149929182112113 
2150	 0.149984524398505 
2151	 0.150206526195736 
2152	 0.150772060246993 
2153	 0.151126489505318 
2154	 0.151452923652357 
2155	 0.151746901185746 
2156	 0.151779926678594 
2157	 0.15156471872609 
2158	 0.151814368210765 
2159	 0.152081476641624 
2160	 0.152271778254494 
2161	 0.152831589845773 
2162	 0.153029795308592 
2163	 0.15312147904425 
2164	 0.153668420510579 
2165	 0.153717367128782 
2166	 0.154072177393013 
2167	 0.154512063490591 
2168	 0.15450747817741 
2169	 0.154263334177259 
2170	 0.15420666810749 
2171	 0.153858985981244 
2172	 0.15349658839951 
2173	 0.153880732659615 
2174	 0.154352220692831 
2175	 0.154630625608911 
2176	 0.155126838604818 
2177	 0.155487687800663 
2178	 0.155473645962337 
2179	 0.155766442394494 
2180	 0.155728149247204 
2181	 0.155833309802308 
2182	 0.15641860741921 
2183	 0.156527991612544 
2184	 0.156751656023081 
2185	 0.157068991956306 
2186	 0.157013060979692 
2187	 0.157121686101906 
2188	 0.157404681102594 
2189	 0.157749471900525 
2190	 0.158168230702892 
2191	 0.158420773409326 
2192	 0.158786672156562 
2193	 0.15898016002225 
2194	 0.158429220230495 
2195	 0.158073495599709 
2196	 0.157829601433567 
2197	 0.157358499347663 
2198	 0.157567878244502 
2199	 0.157908225994817 
2200	 0.157943944505707 
2201	 0.15823548258505 
2202	 0.158511542401909 
2203	 0.158614567290931 
2204	 0.159032514136122 
2205	 0.15919367221407 
2206	 0.159087625947126 
2207	 0.159285080043238 
2208	 0.159226034556864 
2209	 0.158723094632575 
2210	 0.158565575064483 
2211	 0.1585547300574 
2212	 0.158464527581642 
2213	 0.158441643655186 
2214	 0.158780691146754 
2215	 0.159041615840159 
2216	 0.158876893573758 
2217	 0.159101956646075 
2218	 0.159576598902182 
2219	 0.159594300112385 
2220	 0.160042520484831 
2221	 0.160410229086019 
2222	 0.15993948706384 
2223	 0.159792080511949 
2224	 0.159855886569935 
2225	 0.160020167064811 
2226	 0.160228856523963 
2227	 0.160003986026978 
2228	 0.159680552085505 
2229	 0.159165264127601 
2230	 0.158496793559181 
2231	 0.157977088519115 
2232	 0.15790641097096 
2233	 0.157501678951615 
2234	 0.156879842309626 
2235	 0.156170226241461 
2236	 0.155711601339256 
2237	 0.155420992236319 
2238	 0.154976016108142 
2239	 0.154908124384608 
2240	 0.155196667480237 
2241	 0.155037768340122 
2242	 0.154177851526957 
2243	 0.15348226005079 
2244	 0.152545878030623 
2245	 0.151339467310127 
2246	 0.151473471603738 
2247	 0.151841989047659 
2248	 0.151865046945233 
2249	 0.151688977226164 
2250	 0.150805957593378 
2251	 0.149979392445864 
2252	 0.148936830182477 
2253	 0.148017801333077 
2254	 0.147619737229598 
2255	 0.146619982230892 
2256	 0.145762163590569 
2257	 0.144962857835377 
2258	 0.144118736138134 
2259	 0.143255961515281 
2260	 0.143378742235837 
2261	 0.143076790455385 
2262	 0.142804644623039 
2263	 0.142902085111404 
2264	 0.142334430985855 
2265	 0.141609532940166 
2266	 0.141250653987516 
2267	 0.141167213158162 
2268	 0.140665081450269 
2269	 0.1405254186245 
2270	 0.140709419136245 
2271	 0.140641039595944 
2272	 0.14047409676234 
2273	 0.139709662058646 
2274	 0.139088754157932 
2275	 0.138322530652505 
2276	 0.137378318303255 
2277	 0.137154143416833 
2278	 0.137227306945445 
2279	 0.137228154922468 
2280	 0.137324601135533 
2281	 0.137217446261953 
2282	 0.13714740008573 
2283	 0.13700883900829 
2284	 0.136561597229523 
2285	 0.13652758160909 
2286	 0.136293442732023 
2287	 0.135854909942261 
2288	 0.135331240776811 
2289	 0.135016217905999 
2290	 0.134423165925267 
2291	 0.134044786208198 
2292	 0.133775790625403 
2293	 0.133756025883741 
2294	 0.133677808138923 
2295	 0.133201862581371 
2296	 0.132734116984653 
2297	 0.13171691398583 
2298	 0.130698958998153 
2299	 0.130166267598778 
2300	 0.129635692537979 
2301	 0.129347480243765 
2302	 0.128877946739826 
2303	 0.128323602024921 
2304	 0.127703982874995 
2305	 0.127195578034195 
2306	 0.126988722500486 
2307	 0.126302387333536 
2308	 0.12586143298406 
2309	 0.125182841447082 
2310	 0.124590048077521 
2311	 0.124895505952725 
2312	 0.125336936833821 
2313	 0.125428402553716 
2314	 0.124543030154071 
2315	 0.123888312184302 
2316	 0.123126956657367 
2317	 0.122332930125443 
2318	 0.122777233258463 
2319	 0.122866370418522 
2320	 0.122364079366168 
2321	 0.122404961011992 
2322	 0.123302187451746 
2323	 0.123243189336976 
2324	 0.122899740491816 
2325	 0.122389307189079 
2326	 0.121976420104898 
2327	 0.120648325077587 
2328	 0.120158369134166 
2329	 0.120437503505083 
2330	 0.119575638228764 
2331	 0.118434859468723 
2332	 0.117480029614042 
2333	 0.116719506567599 
2334	 0.116845124667319 
2335	 0.117237109926207 
2336	 0.117260482781565 
2337	 0.116913511965529 
2338	 0.116366774641767 
2339	 0.115986665489111 
2340	 0.115586983329214 
2341	 0.115525686252283 
2342	 0.115095545263729 
2343	 0.113921047310711 
2344	 0.112996372333662 
2345	 0.112591508776276 
2346	 0.111814318045843 
2347	 0.111180686864687 
2348	 0.111678945749969 
2349	 0.111465505442143 
2350	 0.111105353271881 
2351	 0.111050397503282 
2352	 0.110996574167262 
2353	 0.111469783781426 
2354	 0.111646316870729 
2355	 0.111581327803447 
2356	 0.111663889850106 
2357	 0.11241675605389 
2358	 0.11273442956907 
2359	 0.113308805664916 
2360	 0.113382433641979 
2361	 0.111668271671808 
2362	 0.110532934925138 
2363	 0.109568956706868 
2364	 0.109011911443886 
2365	 0.108533314031537 
2366	 0.107753020216655 
2367	 0.107130429741956 
2368	 0.106089225383467 
2369	 0.105562232160865 
2370	 0.105552342796584 
2371	 0.106100632743508 
2372	 0.106749937416905 
2373	 0.108221382083246 
2374	 0.108840361977947 
2375	 0.109251391349885 
2376	 0.10908166213076 
2377	 0.108533846518844 
2378	 0.107026693824779 
2379	 0.104292706404681 
2380	 0.103016274078412 
2381	 0.101147122340215 
2382	 0.100717859750634 
2383	 0.102480151114412 
2384	 0.102887229569312 
2385	 0.103375910793498 
2386	 0.102845215827763 
2387	 0.100960180186298 
2388	 0.100136167260697 
2389	 9.93882158928847E-02 
2390	 9.88189206645006E-02 
2391	 9.90312810627473E-02 
2392	 9.83920590590008E-02 
2393	 0.096113104531952 
2394	 9.60478803295008E-02 
2395	 9.79670873800351E-02 
2396	 9.94679610299222E-02 
2397	 0.102849797558285 
2398	 0.103924653880027 
2399	 0.10309977685528 
2400	 0.101582370222398 
2401	 9.86185722368093E-02 
2402	 0.095168268058216 
2403	 9.35952078559071E-02 
2404	 0.093830956526787 
2405	 9.58906579779623E-02 
2406	 9.86887794677155E-02 
2407	 9.74838915582057E-02 
2408	 9.48042997416946E-02 
2409	 9.24320560296397E-02 
2410	 8.96705191304253E-02 
2411	 0.091249089629142 
2412	 9.40692482913766E-02 
2413	 0.092462524383601 
2414	 9.20048252501392E-02 
2415	 9.08289019592497E-02 
2416	 0.088024786258893 
2417	 0.086294443675302 
2418	 8.58253336769439E-02 
2419	 8.62737479421769E-02 
2420	 8.64265595552729E-02 
2421	 9.04383835960176E-02 
2422	 9.09166365587213E-02 
2423	 8.56149519664877E-02 
2424	 8.52590501593245E-02 
2425	 8.59357076267774E-02 
2426	 8.55138326718185E-02 
2427	 9.05680612922372E-02 
2428	 9.65710499946432E-02 
2429	 9.84507951129493E-02 
2430	 0.100260392561112 
2431	 0.103820794569502 
2432	 0.101521261262633 
2433	 9.71665202582318E-02 
2434	 9.42897473265569E-02 
2435	 8.77580721371993E-02 
2436	 8.59455590907485E-02 
2437	 8.86132138809816E-02 
2438	 8.72685216621394E-02 
2439	 8.73200807546474E-02 
2440	 8.58168033454793E-02 
2441	 7.99319987190252E-02 
2442	 7.72322115151935E-02 
2443	 7.56808503715552E-02 
2444	 7.22579412769092E-02 
2445	 6.72642419268272E-02 
2446	 6.58350693098348E-02 
2447	 6.66714020875414E-02 
2448	 6.75358118140429E-02 
2449	 7.48519161454149E-02 
2450	 7.59912814365764E-02 
2451	 6.91853185479307E-02 
2452	 6.82742438081669E-02 
2453	 6.64694076434042E-02 
2454	 0.067293410130624 
2455	 7.46939064619778E-02 
2456	 0.078477214176604 
2457	 8.25420334751506E-02 
2458	 8.37624707583446E-02 
2459	 8.09145131249521E-02 
2460	 8.09688774846659E-02 
2461	 8.09397441041503E-02 
2462	 7.96678288385526E-02 
2463	 7.98513406376273E-02 
2464	 0.080513470259175 
2465	 8.13042910425612E-02 
2466	 0.080968521774634 
2467	 7.84339763761295E-02 
2468	 0.078956849750423 
2469	 0.081745747008504 
2470	 7.97799908518684E-02 
2471	 7.87813605551657E-02 
2472	 7.43084994517348E-02 
2473	 5.83249616407055E-02 
2474	 5.38329967596066E-02 
2475	 5.83914313491737E-02 
2476	 5.71743996597887E-02 
2477	 5.65744726481049E-02 
2478	 5.88732701912223E-02 
2479	 6.09325897731426E-02 
2480	 6.22392450923246E-02 
2481	 7.20704815690278E-02 
2482	 7.56213725022765E-02 
2483	 7.01526592398958E-02 
2484	 6.87683785571247E-02 
2485	 6.51544724439609E-02 
2486	 0.051812406065408 
2487	 5.05646980194651E-02 
2488	 7.71671066347973E-02 
2489	 0.11649337779216 
2490	 0.142415167594953 
2491	 0.158177447540231 
2492	 0.142002746092221 
2493	 0.11255155622459 
2494	 0.113203988502555 
2495	 0.130874232344381 
2496	 0.166633144647852 
2497	 0.201085863088864 
2498	 0.184735503508452 
2499	 0.167208277227808 
2500	 0.101155841814611 
