Wavelength	ref00023.asd
350	 4.27137506434579E-02 
351	 0.042908205285198 
352	 0.04312941810904 
353	 4.28620439691759E-02 
354	 4.28381713334127E-02 
355	 4.26970359431988E-02 
356	 4.22555462286615E-02 
357	 4.20703022990182E-02 
358	 4.21701347596133E-02 
359	 4.22098324785152E-02 
360	 4.19539555189202E-02 
361	 4.21616240716892E-02 
362	 4.23865332512626E-02 
363	 4.25349219689672E-02 
364	 4.27328299943365E-02 
365	 4.24681032132483E-02 
366	 4.25258672753959E-02 
367	 4.30487944799066E-02 
368	 4.31037817203684E-02 
369	 4.32565979437266E-02 
370	 4.33971734476499E-02 
371	 4.34440911150937E-02 
372	 4.39219317767933E-02 
373	 4.41802293810726E-02 
374	 4.42786233303129E-02 
375	 4.46187084635041E-02 
376	 4.51309218835183E-02 
377	 4.55848023995771E-02 
378	 4.58872396666209E-02 
379	 4.61309129122653E-02 
380	 4.66202125638079E-02 
381	 4.74398241152456E-02 
382	 4.83898423519665E-02 
383	 4.86476393975795E-02 
384	 4.92411294488458E-02 
385	 5.00971866414766E-02 
386	 5.07135404994103E-02 
387	 5.13140119769036E-02 
388	 5.21831105436011E-02 
389	 5.32237372102722E-02 
390	 5.39609212472333E-02 
391	 5.46775791939275E-02 
392	 5.54117846133971E-02 
393	 5.61678581911986E-02 
394	 5.69439824531771E-02 
395	 5.79655442347382E-02 
396	 5.89380451159187E-02 
397	 5.95438436197575E-02 
398	 6.03333820311965E-02 
399	 6.10398360404432E-02 
400	 6.16458212775963E-02 
401	 6.23498684603049E-02 
402	 6.28666601325069E-02 
403	 6.32290110417434E-02 
404	 6.35743793661656E-02 
405	 0.064188371200772 
406	 6.45505206944048E-02 
407	 6.46932555367467E-02 
408	 6.48482698624985E-02 
409	 6.51497096375897E-02 
410	 6.55095325475721E-02 
411	 6.57857494953435E-02 
412	 6.58345139886876E-02 
413	 0.065980370227589 
414	 6.60779003641336E-02 
415	 6.60369368505515E-02 
416	 0.066029519727101 
417	 6.61430601354926E-02 
418	 6.61647660224737E-02 
419	 6.58859789103169E-02 
420	 6.56656988495965E-02 
421	 6.55881988682184E-02 
422	 6.55357736828301E-02 
423	 6.52531242272193E-02 
424	 0.065045147864975 
425	 0.064825871580567 
426	 6.45406569506295E-02 
427	 6.43708103098686E-02 
428	 6.39627038900463E-02 
429	 6.34599755159857E-02 
430	 6.31417321636333E-02 
431	 6.29659333314056E-02 
432	 6.27788500922696E-02 
433	 6.24892764876989E-02 
434	 0.062088367535564 
435	 6.18491714854293E-02 
436	 6.15722668884774E-02 
437	 0.06115388684986 
438	 6.08457210847638E-02 
439	 6.05544815202572E-02 
440	 6.02320267298304E-02 
441	 5.98802304976301E-02 
442	 5.96910100368605E-02 
443	 5.95215215932435E-02 
444	 5.92663854716553E-02 
445	 0.058889388311944 
446	 5.86930164731968E-02 
447	 5.84800696271712E-02 
448	 5.81227365218874E-02 
449	 0.057902949696407 
450	 5.75894263219241E-02 
451	 5.72068361008667E-02 
452	 5.68789378366031E-02 
453	 0.056616482323867 
454	 5.62798949917789E-02 
455	 5.58680860008557E-02 
456	 5.55502173784872E-02 
457	 5.51599615072927E-02 
458	 0.054769370754233 
459	 0.054444374788375 
460	 5.40711073049159E-02 
461	 5.37287194440125E-02 
462	 5.33631866103842E-02 
463	 0.052883815338496 
464	 5.25265466932438E-02 
465	 0.052248055624748 
466	 5.19763808615216E-02 
467	 5.16490627328538E-02 
468	 5.12432954045049E-02 
469	 5.08710958173267E-02 
470	 5.06168762339105E-02 
471	 5.03028118875734E-02 
472	 5.00440965295537E-02 
473	 0.049819767204046 
474	 4.95224733873317E-02 
475	 4.92581444042579E-02 
476	 4.89959451248922E-02 
477	 4.87401828046354E-02 
478	 4.86014840293142E-02 
479	 4.84653174906734E-02 
480	 4.82850695080931E-02 
481	 4.80647958991332E-02 
482	 4.79297006062552E-02 
483	 4.78043385802727E-02 
484	 4.76686502801781E-02 
485	 4.75633424972847E-02 
486	 4.74231028400153E-02 
487	 4.72639535284501E-02 
488	 0.047126900699315 
489	 4.70673688585109E-02 
490	 4.70677223128899E-02 
491	 4.70388018694415E-02 
492	 4.68981590986133E-02 
493	 4.68099355995851E-02 
494	 4.67937392999302E-02 
495	 4.68112683263065E-02 
496	 4.67708492127656E-02 
497	 4.68109794637571E-02 
498	 4.68654272929019E-02 
499	 4.68565845224243E-02 
500	 4.68346384888198E-02 
501	 4.68699781653445E-02 
502	 4.69148019827393E-02 
503	 4.68683771627171E-02 
504	 4.69029399299218E-02 
505	 0.046910140411197 
506	 4.68875626562522E-02 
507	 4.70685249245332E-02 
508	 4.70801548565346E-02 
509	 4.70707590409864E-02 
510	 4.72505543006602E-02 
511	 4.73481573564393E-02 
512	 4.73757096324348E-02 
513	 4.73934797400123E-02 
514	 0.047488653639361 
515	 4.75782591679649E-02 
516	 4.76558110750768E-02 
517	 4.77174549845378E-02 
518	 4.77267747824704E-02 
519	 4.77766796971198E-02 
520	 4.78473614177498E-02 
521	 4.78923173800913E-02 
522	 4.80135162480646E-02 
523	 4.80850451754031E-02 
524	 4.80886389666986E-02 
525	 4.81386319506914E-02 
526	 4.81733611671047E-02 
527	 4.82472167119496E-02 
528	 4.83840297627476E-02 
529	 4.84401778814497E-02 
530	 4.85222022338804E-02 
531	 4.85879528536764E-02 
532	 0.04854274254803 
533	 4.86121723659581E-02 
534	 4.87678664305963E-02 
535	 4.89258460657845E-02 
536	 4.89638267336283E-02 
537	 4.90464992909967E-02 
538	 4.91248725487153E-02 
539	 4.91386467987581E-02 
540	 4.92916077784191E-02 
541	 4.94411617434155E-02 
542	 4.95179955648915E-02 
543	 4.95383697150394E-02 
544	 4.96312781425339E-02 
545	 4.97666540216251E-02 
546	 0.049899817903225 
547	 5.00180806966051E-02 
548	 5.01675174886213E-02 
549	 5.03048343302905E-02 
550	 5.03801016033963E-02 
551	 5.05603826093868E-02 
552	 5.07109081445313E-02 
553	 5.07942593149106E-02 
554	 5.09148184146275E-02 
555	 5.10599533862978E-02 
556	 5.11946600510497E-02 
557	 5.13098807907432E-02 
558	 5.15137428642046E-02 
559	 5.16986515628555E-02 
560	 5.18321153657942E-02 
561	 5.19489722161418E-02 
562	 5.21905688332955E-02 
563	 5.23883066643459E-02 
564	 5.24917162328163E-02 
565	 5.27291228496408E-02 
566	 5.29417157663736E-02 
567	 0.0531920229138 
568	 5.35528629321133E-02 
569	 5.38042291702582E-02 
570	 5.40152507899761E-02 
571	 5.42589642806708E-02 
572	 5.45914341108907E-02 
573	 5.48990881852916E-02 
574	 5.52459526941486E-02 
575	 5.56664220861136E-02 
576	 5.60220622253107E-02 
577	 5.64064559930178E-02 
578	 5.68405465044211E-02 
579	 5.73071184984095E-02 
580	 5.77638122980522E-02 
581	 5.82683238564485E-02 
582	 0.058846536574375 
583	 5.94732551619304E-02 
584	 6.00928767648275E-02 
585	 0.060787728470496 
586	 6.16290435598076E-02 
587	 6.25201168083459E-02 
588	 0.063433715094432 
589	 6.43988817275015E-02 
590	 6.54724266709603E-02 
591	 6.67322230686633E-02 
592	 6.80696778092228E-02 
593	 6.94765266462302E-02 
594	 7.11060757578223E-02 
595	 7.28440845864157E-02 
596	 7.46639399023237E-02 
597	 7.65826383170063E-02 
598	 7.86224143268856E-02 
599	 8.08187026912269E-02 
600	 8.31782013235395E-02 
601	 0.0856728317758 
602	 8.83295465812804E-02 
603	 0.091111812081417 
604	 9.39991276730464E-02 
605	 0.097077987768591 
606	 0.100308461362945 
607	 0.103643402830977 
608	 0.107034721377733 
609	 0.110600916835516 
610	 0.114218067703936 
611	 0.117842970324371 
612	 0.121607078683529 
613	 0.125309015256469 
614	 0.129008201196727 
615	 0.132773835395871 
616	 0.136480384747216 
617	 0.140205747325831 
618	 0.143931642170263 
619	 0.14763243014398 
620	 0.151249566590734 
621	 0.15484207563423 
622	 0.158440995735503 
623	 0.161982468256577 
624	 0.165480204463222 
625	 0.168953932082288 
626	 0.172404479474397 
627	 0.175798305760184 
628	 0.179037758835462 
629	 0.182144703540647 
630	 0.185212083702377 
631	 0.188065714583498 
632	 0.190717248339827 
633	 0.193177682947613 
634	 0.195378634607876 
635	 0.197337330761738 
636	 0.199068550505381 
637	 0.20055985675598 
638	 0.201693257214619 
639	 0.202531625986415 
640	 0.203137275805137 
641	 0.203529621591399 
642	 0.203707892393511 
643	 0.203651441850899 
644	 0.203369274967237 
645	 0.202970759203813 
646	 0.202371509704594 
647	 0.201609858527651 
648	 0.200815191251758 
649	 0.200152045471341 
650	 0.199484395904222 
651	 0.198754833230522 
652	 0.198063181249099 
653	 0.19733508134828 
654	 0.196508347400782 
655	 0.19544565913572 
656	 0.193842617207074 
657	 0.191788357805584 
658	 0.189648513760288 
659	 0.187525587454483 
660	 0.184987577056289 
661	 0.182172371225989 
662	 0.179300251411712 
663	 0.176406028461136 
664	 0.173496017499956 
665	 0.170679508940977 
666	 0.168081697703783 
667	 0.16585019017985 
668	 0.163765174694351 
669	 0.16189810205828 
670	 0.160543933323194 
671	 0.159424432704462 
672	 0.158661355356314 
673	 0.158318274503523 
674	 0.15814280471741 
675	 0.158184655462572 
676	 0.158460775405585 
677	 0.158974123338513 
678	 0.159662992478225 
679	 0.16063182598669 
680	 0.162018961230778 
681	 0.163975537348353 
682	 0.166536001270002 
683	 0.169793925960889 
684	 0.173852908953157 
685	 0.178806739639878 
686	 0.184841518934213 
687	 0.19226941570446 
688	 0.200593646636738 
689	 0.209120235672995 
690	 0.218004770128429 
691	 0.227673161300917 
692	 0.237954401555146 
693	 0.248617570981641 
694	 0.259851948471726 
695	 0.27160958172684 
696	 0.283292011691612 
697	 0.294874107613092 
698	 0.306287591247902 
699	 0.317376497844118 
700	 0.328229460868856 
701	 0.338730965719048 
702	 0.348748986519372 
703	 0.35813848373075 
704	 0.367018274852941 
705	 0.375350784154632 
706	 0.383209937992943 
707	 0.39081578292017 
708	 0.398151628320662 
709	 0.405189623730501 
710	 0.41186520402843 
711	 0.418347449222152 
712	 0.424726307555334 
713	 0.430961045810459 
714	 0.436879222146575 
715	 0.44253573823858 
716	 0.44787346689366 
717	 0.453008467272698 
718	 0.45805939431629 
719	 0.463375000619158 
720	 0.468890900431642 
721	 0.474316609205034 
722	 0.479281732153791 
723	 0.483705976123805 
724	 0.487872541886578 
725	 0.491913162131674 
726	 0.495979509278641 
727	 0.499921325047039 
728	 0.503685341262033 
729	 0.507280400650259 
730	 0.510541796663405 
731	 0.513675851868748 
732	 0.516940409258773 
733	 0.519940987041314 
734	 0.52257444591277 
735	 0.524946554912224 
736	 0.527251150404038 
737	 0.52939229365778 
738	 0.531426513405315 
739	 0.53338781553453 
740	 0.535121875649251 
741	 0.536723666926467 
742	 0.538226969284396 
743	 0.539616719542568 
744	 0.540817755965175 
745	 0.541902837323536 
746	 0.542865032559006 
747	 0.543652874311927 
748	 0.544493842802377 
749	 0.545232337255245 
750	 0.545829876409806 
751	 0.546535128540004 
752	 0.547142302768229 
753	 0.547574922076136 
754	 0.547858415873527 
755	 0.548210445688208 
756	 0.54856985012532 
757	 0.548855594775171 
758	 0.5491286449033 
759	 0.550857639800758 
760	 0.553247366005176 
761	 0.554923644038237 
762	 0.554578204225336 
763	 0.554141477994806 
764	 0.553601637034499 
765	 0.552759549858706 
766	 0.551953653177984 
767	 0.551376363867662 
768	 0.551132500349643 
769	 0.551215213673281 
770	 0.551188562585599 
771	 0.551191788711884 
772	 0.551250274472865 
773	 0.551280465686974 
774	 0.551363314961458 
775	 0.551439319447165 
776	 0.55145883580167 
777	 0.551417702672717 
778	 0.55159106838297 
779	 0.551769736738877 
780	 0.551737207691609 
781	 0.551760383644909 
782	 0.551825965678534 
783	 0.551897074511606 
784	 0.551929362812972 
785	 0.551949500648602 
786	 0.55195334445321 
787	 0.551935464106239 
788	 0.551896435362538 
789	 0.551947806536834 
790	 0.551986319511571 
791	 0.551996481274082 
792	 0.552238598159661 
793	 0.552470039729236 
794	 0.55257056954071 
795	 0.552527823494866 
796	 0.552546590586505 
797	 0.552631780365741 
798	 0.552747265477574 
799	 0.55283294827958 
800	 0.552863716688385 
801	 0.552831349842299 
802	 0.552811255677513 
803	 0.552953027839369 
804	 0.553092464371874 
805	 0.553239370985784 
806	 0.553389993004194 
807	 0.553442800238543 
808	 0.553509453167756 
809	 0.553553919320842 
810	 0.553470673473355 
811	 0.553077697098894 
812	 0.552671797849571 
813	 0.552390879033069 
814	 0.552219009504922 
815	 0.551814809249838 
816	 0.551546528735962 
817	 0.551611918096283 
818	 0.551899148943193 
819	 0.552036122368549 
820	 0.552183293756889 
821	 0.552413636903694 
822	 0.552491851127208 
823	 0.552480655902908 
824	 0.552562318666113 
825	 0.552851459602766 
826	 0.553216177554621 
827	 0.553350795661464 
828	 0.553325532807239 
829	 0.553340414325431 
830	 0.553288535461733 
831	 0.553299894045843 
832	 0.553429741467142 
833	 0.553652595641602 
834	 0.553884757035944 
835	 0.554000510641632 
836	 0.554071359720184 
837	 0.55437369772142 
838	 0.554540605100757 
839	 0.554728995059786 
840	 0.55500151039591 
841	 0.555035760848733 
842	 0.5550848954959 
843	 0.555183345758169 
844	 0.555306255668458 
845	 0.5554689143932 
846	 0.555541392406879 
847	 0.555571302047566 
848	 0.555658857861455 
849	 0.555700829093513 
850	 0.555742657090412 
851	 0.555787012550354 
852	 0.555827019023248 
853	 0.556096830408275 
854	 0.556355515323281 
855	 0.556400464287494 
856	 0.556191554851057 
857	 0.556281839588562 
858	 0.556446500067119 
859	 0.556528259514906 
860	 0.556684755992682 
861	 0.556667358002804 
862	 0.556680817030802 
863	 0.556856253414131 
864	 0.55682982552553 
865	 0.556943629749041 
866	 0.557162655374221 
867	 0.557291297684928 
868	 0.557084490240761 
869	 0.556934518160198 
870	 0.556963888687015 
871	 0.557140407153398 
872	 0.557490921069341 
873	 0.557743509630786 
874	 0.557703337956402 
875	 0.557373707894787 
876	 0.557565737046283 
877	 0.557650877119333 
878	 0.557526582544423 
879	 0.557712718937036 
880	 0.55790131373694 
881	 0.558098927054545 
882	 0.55820366373723 
883	 0.557952976838823 
884	 0.557904262376583 
885	 0.55806240351124 
886	 0.558217808225023 
887	 0.558014506668477 
888	 0.558159766692638 
889	 0.558250295533848 
890	 0.557970650925807 
891	 0.557979474802156 
892	 0.557799874926211 
893	 0.557413448935246 
894	 0.556960075055235 
895	 0.556554482624798 
896	 0.556306120008727 
897	 0.556116565256394 
898	 0.555839760528822 
899	 0.555594747407854 
900	 0.555463973733943 
901	 0.555482487909234 
902	 0.555655281501486 
903	 0.556040509945932 
904	 0.556472969518557 
905	 0.556574685966629 
906	 0.556072637829314 
907	 0.556077500962552 
908	 0.556023368956877 
909	 0.555734875971935 
910	 0.555494523029163 
911	 0.55546673406695 
912	 0.555390327056117 
913	 0.555192753962581 
914	 0.555081932496952 
915	 0.555648627186756 
916	 0.556002111486981 
917	 0.555905499453909 
918	 0.556020870494135 
919	 0.555820312102113 
920	 0.555659421090332 
921	 0.555806479195197 
922	 0.556205288262274 
923	 0.556197106518903 
924	 0.556017018285966 
925	 0.55570268999677 
926	 0.554746982018958 
927	 0.55342860874392 
928	 0.552493938317158 
929	 0.551850477013568 
930	 0.549681299203497 
931	 0.548598342880899 
932	 0.547549297843143 
933	 0.545376005145556 
934	 0.54320161685112 
935	 0.542124386433764 
936	 0.541651857708806 
937	 0.541098551017231 
938	 0.540506526765236 
939	 0.541178410696735 
940	 0.541648506810172 
941	 0.541118029956658 
942	 0.541153353806449 
943	 0.541355903842932 
944	 0.54137759185787 
945	 0.541030184213662 
946	 0.540522314393192 
947	 0.539547134338278 
948	 0.538665109999025 
949	 0.538146992069316 
950	 0.537202884389441 
951	 0.536693808329014 
952	 0.536370945062711 
953	 0.535953945979496 
954	 0.5356909926664 
955	 0.53532476443674 
956	 0.534965847685769 
957	 0.534640357933114 
958	 0.534048076599374 
959	 0.533265859436109 
960	 0.53327209254572 
961	 0.534196792865175 
962	 0.534389782043535 
963	 0.53477449601882 
964	 0.535292279030122 
965	 0.535671064134923 
966	 0.535679748663988 
967	 0.53583262803299 
968	 0.536077251066491 
969	 0.536410770925254 
970	 0.537058596677586 
971	 0.537127847234668 
972	 0.536890119266359 
973	 0.536763484254182 
974	 0.536974811736675 
975	 0.537516353855643 
976	 0.538085509141502 
977	 0.538546900920088 
978	 0.53903373521254 
979	 0.539123748038495 
980	 0.538805405142989 
981	 0.538847803249829 
982	 0.540301557939233 
983	 0.539893109894068 
984	 0.539996114651279 
985	 0.541171919303795 
986	 0.541742244147239 
987	 0.542168087401538 
988	 0.541548965713465 
989	 0.540973423584453 
990	 0.542439484044204 
991	 0.543461778124477 
992	 0.543830443716674 
993	 0.543829621534357 
994	 0.543893382247633 
995	 0.543886387078709 
996	 0.543837596110557 
997	 0.543835161550376 
998	 0.544080477334505 
999	 0.54516522451004 
1000	 0.545790814238871 
1001	 0.554523898186219 
1002	 0.55483077771152 
1003	 0.55513770094558 
1004	 0.555375101737503 
1005	 0.555711146036965 
1006	 0.556103189356412 
1007	 0.556426736635877 
1008	 0.556772745487906 
1009	 0.557189759087351 
1010	 0.557659977415281 
1011	 0.557982548772887 
1012	 0.558308327292106 
1013	 0.558588451810172 
1014	 0.558778811408916 
1015	 0.5591025238984 
1016	 0.559598804599073 
1017	 0.55996768954571 
1018	 0.560284290165098 
1019	 0.560566116501369 
1020	 0.560797150400437 
1021	 0.560872054348894 
1022	 0.561110467770289 
1023	 0.561419597449153 
1024	 0.561604747012068 
1025	 0.561954176779432 
1026	 0.562373935700511 
1027	 0.56257802370414 
1028	 0.562855084421437 
1029	 0.563085566694152 
1030	 0.563287548558377 
1031	 0.563558693917911 
1032	 0.563758299714505 
1033	 0.563973891050017 
1034	 0.564180446959267 
1035	 0.564386165359804 
1036	 0.564554790017156 
1037	 0.564787955642163 
1038	 0.565071005565374 
1039	 0.565328630286497 
1040	 0.565546364368011 
1041	 0.565765690416266 
1042	 0.565820657761124 
1043	 0.565863741892972 
1044	 0.565976100288851 
1045	 0.566104163289523 
1046	 0.566300507590918 
1047	 0.56650290691458 
1048	 0.566639675540405 
1049	 0.566735154076485 
1050	 0.566901759454824 
1051	 0.567113483137458 
1052	 0.567304145703293 
1053	 0.56744121721533 
1054	 0.56764269889667 
1055	 0.567803698111846 
1056	 0.567881237794503 
1057	 0.568077024708613 
1058	 0.568312037811379 
1059	 0.568368495106127 
1060	 0.568434233746269 
1061	 0.568467369883145 
1062	 0.568441745220312 
1063	 0.568526991998704 
1064	 0.56862931403707 
1065	 0.568685377117891 
1066	 0.568740578891161 
1067	 0.568748724406915 
1068	 0.568747733134935 
1069	 0.568663558398721 
1070	 0.568561871577034 
1071	 0.568621576956073 
1072	 0.568609449040881 
1073	 0.568565117306747 
1074	 0.568616504660963 
1075	 0.568528880336119 
1076	 0.568382389384345 
1077	 0.568252062198163 
1078	 0.568073976400104 
1079	 0.567987148761095 
1080	 0.567943576076799 
1081	 0.567875997278029 
1082	 0.567847915477544 
1083	 0.567864486965278 
1084	 0.567769868240641 
1085	 0.567623129022039 
1086	 0.567468570441599 
1087	 0.567200366886577 
1088	 0.567010311497268 
1089	 0.56686924105205 
1090	 0.566697835157302 
1091	 0.566590909508702 
1092	 0.56635125450069 
1093	 0.56598560055292 
1094	 0.56560843286395 
1095	 0.565219636584241 
1096	 0.564828417726795 
1097	 0.564406680203802 
1098	 0.564014856694703 
1099	 0.563629080962215 
1100	 0.56325930079942 
1101	 0.562906099383162 
1102	 0.562551298486945 
1103	 0.56210351122434 
1104	 0.561583803156931 
1105	 0.560987076862094 
1106	 0.560409470650139 
1107	 0.559918137452466 
1108	 0.559310258674038 
1109	 0.558608658215516 
1110	 0.557775926361081 
1111	 0.556904823455081 
1112	 0.555784837081678 
1113	 0.554835664913506 
1114	 0.553899116992243 
1115	 0.55296801019167 
1116	 0.552162917691351 
1117	 0.551064526751815 
1118	 0.550002587348454 
1119	 0.548902432411461 
1120	 0.547523353831207 
1121	 0.54637850061032 
1122	 0.545291347961978 
1123	 0.544204539045343 
1124	 0.543399026865356 
1125	 0.542791917472763 
1126	 0.542207272424289 
1127	 0.541806126878451 
1128	 0.541365560331101 
1129	 0.541130822928897 
1130	 0.540588782309369 
1131	 0.540048409138584 
1132	 0.539395951384413 
1133	 0.538642430359644 
1134	 0.53769573478471 
1135	 0.536705775002162 
1136	 0.535709776082032 
1137	 0.534566010790483 
1138	 0.533309304497569 
1139	 0.532027587623859 
1140	 0.530411235271161 
1141	 0.528612594533962 
1142	 0.526866821816289 
1143	 0.52519762088999 
1144	 0.523546374227333 
1145	 0.521888723214632 
1146	 0.520223522233182 
1147	 0.518671260430797 
1148	 0.517042911103599 
1149	 0.515789472113116 
1150	 0.514783367539878 
1151	 0.513950737393643 
1152	 0.513390145544732 
1153	 0.512905686821579 
1154	 0.512572868387732 
1155	 0.512420148609648 
1156	 0.512246516514244 
1157	 0.51213338220057 
1158	 0.512100237146575 
1159	 0.512113257309236 
1160	 0.51218471998538 
1161	 0.512424826067952 
1162	 0.512505233566576 
1163	 0.51255360501897 
1164	 0.512567590465824 
1165	 0.512502006084518 
1166	 0.512484503258262 
1167	 0.512489648458218 
1168	 0.51247747443149 
1169	 0.512473373730371 
1170	 0.512454157573846 
1171	 0.512389693994862 
1172	 0.512263390878058 
1173	 0.51220264266307 
1174	 0.512205139348609 
1175	 0.512167719441399 
1176	 0.512129967219233 
1177	 0.512052365467034 
1178	 0.511874697201378 
1179	 0.511773523717484 
1180	 0.51169157029364 
1181	 0.511642238891512 
1182	 0.511673291313136 
1183	 0.511611895298775 
1184	 0.511518304693404 
1185	 0.511433187244904 
1186	 0.511272344223065 
1187	 0.511169507959744 
1188	 0.51110432319959 
1189	 0.511063410887765 
1190	 0.511000091142268 
1191	 0.510970513048455 
1192	 0.510931380446404 
1193	 0.510836096694015 
1194	 0.510773216089239 
1195	 0.51070230885067 
1196	 0.510626706919307 
1197	 0.51051606157115 
1198	 0.510524040625852 
1199	 0.510569070891234 
1200	 0.510645505441516 
1201	 0.510812545074841 
1202	 0.510978777243336 
1203	 0.51115279829726 
1204	 0.511327908982288 
1205	 0.511549672369324 
1206	 0.51175890013274 
1207	 0.511950865384313 
1208	 0.512155279688095 
1209	 0.512355974041276 
1210	 0.512594736697752 
1211	 0.512819377856161 
1212	 0.513053748645421 
1213	 0.513315499756535 
1214	 0.513609529741324 
1215	 0.513889077646806 
1216	 0.514196431190215 
1217	 0.514459764376705 
1218	 0.514695198478946 
1219	 0.514954961961023 
1220	 0.515197640223504 
1221	 0.515458619199334 
1222	 0.515760278454592 
1223	 0.516030092541753 
1224	 0.516279204619755 
1225	 0.516538494824384 
1226	 0.516760368956664 
1227	 0.517040336817276 
1228	 0.517363432643968 
1229	 0.517680761943245 
1230	 0.518019377166981 
1231	 0.51838547525663 
1232	 0.5186726200842 
1233	 0.518911744557351 
1234	 0.519169058207739 
1235	 0.519385733247976 
1236	 0.519638377072494 
1237	 0.51993721147035 
1238	 0.520170918828445 
1239	 0.520365459255572 
1240	 0.520590380886967 
1241	 0.52081368770035 
1242	 0.52101223813329 
1243	 0.52121221514452 
1244	 0.521414231940808 
1245	 0.521569594206796 
1246	 0.521755726155229 
1247	 0.521986413665228 
1248	 0.522202010567705 
1249	 0.522438569114282 
1250	 0.522633156204867 
1251	 0.522771482567112 
1252	 0.522975700013294 
1253	 0.523120714568636 
1254	 0.523227371523043 
1255	 0.523341823387664 
1256	 0.523434525449932 
1257	 0.523555234802052 
1258	 0.523667251767321 
1259	 0.523813921346661 
1260	 0.524041358299364 
1261	 0.524166000304203 
1262	 0.524259268542835 
1263	 0.524339449812746 
1264	 0.524345966147594 
1265	 0.524373101485795 
1266	 0.524411792388507 
1267	 0.524431486650846 
1268	 0.524448632645873 
1269	 0.524428081709258 
1270	 0.52438847647084 
1271	 0.524331766593414 
1272	 0.524260600756105 
1273	 0.524133695679455 
1274	 0.524003436291943 
1275	 0.52386858718125 
1276	 0.523690152333741 
1277	 0.523461091374646 
1278	 0.523257620655272 
1279	 0.523045033976358 
1280	 0.522817374221708 
1281	 0.522604771965276 
1282	 0.522341282260157 
1283	 0.522048383500711 
1284	 0.52173062248169 
1285	 0.521390841666763 
1286	 0.521017670986718 
1287	 0.520627510003784 
1288	 0.520186986080157 
1289	 0.5196580083822 
1290	 0.519181794543176 
1291	 0.518784288337703 
1292	 0.518232565946978 
1293	 0.517567231825779 
1294	 0.516962940185877 
1295	 0.516350436605301 
1296	 0.515585043983304 
1297	 0.514890376676577 
1298	 0.514317807669529 
1299	 0.513513824150549 
1300	 0.512549295299263 
1301	 0.511638688309577 
1302	 0.510632292566015 
1303	 0.509696002576054 
1304	 0.508823025329804 
1305	 0.507835590073341 
1306	 0.506838341504884 
1307	 0.505751092469022 
1308	 0.504508954611547 
1309	 0.503352701661479 
1310	 0.502236512580192 
1311	 0.501017111927757 
1312	 0.499772484672575 
1313	 0.498498701180372 
1314	 0.497152303169164 
1315	 0.495769184370215 
1316	 0.494406708722919 
1317	 0.492964865532474 
1318	 0.491371468506345 
1319	 0.489833631625447 
1320	 0.488253543701367 
1321	 0.48670831557264 
1322	 0.485136199124063 
1323	 0.483585924907334 
1324	 0.481916455227383 
1325	 0.480179608400307 
1326	 0.47834082571359 
1327	 0.476346823636528 
1328	 0.474351995156308 
1329	 0.472221731744063 
1330	 0.470153485845308 
1331	 0.468058963686844 
1332	 0.466038309440882 
1333	 0.464107616036181 
1334	 0.462164700495789 
1335	 0.460264297610838 
1336	 0.458399764614868 
1337	 0.456495365279186 
1338	 0.454653627637786 
1339	 0.452765881651707 
1340	 0.450947613145796 
1341	 0.449005025852173 
1342	 0.447135143897311 
1343	 0.445202424984726 
1344	 0.443169354122908 
1345	 0.440825309628006 
1346	 0.43839646631335 
1347	 0.435910423765148 
1348	 0.433240861597732 
1349	 0.430511997750998 
1350	 0.427911544857227 
1351	 0.424914938309661 
1352	 0.422058967851864 
1353	 0.418234296512139 
1354	 0.41449370562368 
1355	 0.409601186763326 
1356	 0.404573924965173 
1357	 0.398325544911771 
1358	 0.398030854878605 
1359	 0.391729554838335 
1360	 0.386056822724463 
1361	 0.377976326242123 
1362	 0.372769859876647 
1363	 0.36315180066766 
1364	 0.364423736306804 
1365	 0.363705230290513 
1366	 0.366939658717252 
1367	 0.361690445595663 
1368	 0.35713510176638 
1369	 0.353599793351614 
1370	 0.347115717335883 
1371	 0.342774176533143 
1372	 0.340851085967375 
1373	 0.338514583348686 
1374	 0.333616741335435 
1375	 0.332225532222797 
1376	 0.333038323343697 
1377	 0.328145981660536 
1378	 0.323385001395523 
1379	 0.316215427117813 
1380	 0.310707603122481 
1381	 0.304997169913844 
1382	 0.298247956294063 
1383	 0.292869048019015 
1384	 0.285815436557288 
1385	 0.278470527544625 
1386	 0.269903062904665 
1387	 0.26110145251408 
1388	 0.254463922852477 
1389	 0.247211689804403 
1390	 0.242353255820001 
1391	 0.240569630149762 
1392	 0.236348196355019 
1393	 0.231811698895683 
1394	 0.226706888062848 
1395	 0.220220724051555 
1396	 0.215018581333316 
1397	 0.210208594451906 
1398	 0.205349322904215 
1399	 0.201004463341904 
1400	 0.196340101779664 
1401	 0.191044212405866 
1402	 0.186781665206917 
1403	 0.18412602210865 
1404	 0.180169443311873 
1405	 0.175807713099208 
1406	 0.17246567783395 
1407	 0.16898877877784 
1408	 0.164554834172302 
1409	 0.161861926829892 
1410	 0.160229086293646 
1411	 0.158195937146452 
1412	 0.156403355446436 
1413	 0.154766477323953 
1414	 0.153071287321946 
1415	 0.151889807084553 
1416	 0.151175197523434 
1417	 0.150070189296964 
1418	 0.148971899363589 
1419	 0.147920350322745 
1420	 0.146667905069709 
1421	 0.145746491081153 
1422	 0.145046690389802 
1423	 0.144307422065686 
1424	 0.143543674955866 
1425	 0.142906564820788 
1426	 0.142294038655355 
1427	 0.141746453855879 
1428	 0.14121827117652 
1429	 0.14082790942422 
1430	 0.140665873602749 
1431	 0.14022143874683 
1432	 0.139667428548482 
1433	 0.139177428208636 
1434	 0.138329454606877 
1435	 0.137892706273649 
1436	 0.13787549079463 
1437	 0.137680785100912 
1438	 0.137537801503094 
1439	 0.137426937170193 
1440	 0.137163173862663 
1441	 0.137097900206432 
1442	 0.137129042048342 
1443	 0.137349162107544 
1444	 0.137518187747348 
1445	 0.137642377148733 
1446	 0.137730484160699 
1447	 0.137697725578227 
1448	 0.137880990282448 
1449	 0.138072426927201 
1450	 0.138391026817726 
1451	 0.138882871770875 
1452	 0.139205819176569 
1453	 0.139587070573419 
1454	 0.139752877733486 
1455	 0.13973440130127 
1456	 0.139900897092427 
1457	 0.140008288900956 
1458	 0.140216666794325 
1459	 0.14059109793277 
1460	 0.140898174193267 
1461	 0.141232356025467 
1462	 0.141564758929392 
1463	 0.141851941974492 
1464	 0.142325627428398 
1465	 0.142814130669358 
1466	 0.143501117102526 
1467	 0.144454783622238 
1468	 0.145412910891053 
1469	 0.146425991649979 
1470	 0.147556515758073 
1471	 0.148779061369477 
1472	 0.149972353202534 
1473	 0.151096878964886 
1474	 0.152334079080244 
1475	 0.153530983895349 
1476	 0.154791357331054 
1477	 0.156073628424446 
1478	 0.157473343254104 
1479	 0.158960729912873 
1480	 0.160402194525577 
1481	 0.161832393256026 
1482	 0.163358107126191 
1483	 0.164804924333288 
1484	 0.166364938003615 
1485	 0.168085412199845 
1486	 0.16974841478045 
1487	 0.171393128802296 
1488	 0.173021410019639 
1489	 0.174592141721099 
1490	 0.17615814618944 
1491	 0.177785211379184 
1492	 0.179368928276723 
1493	 0.180928947473476 
1494	 0.182543748447412 
1495	 0.184099925408475 
1496	 0.185643414412869 
1497	 0.18717055745735 
1498	 0.188692536508861 
1499	 0.190293248372131 
1500	 0.191910326616428 
1501	 0.193623400650134 
1502	 0.195479335112636 
1503	 0.197252359948885 
1504	 0.199053600028083 
1505	 0.200799223498469 
1506	 0.202486920468504 
1507	 0.204212110061679 
1508	 0.205912100645625 
1509	 0.207651962782043 
1510	 0.209459392668062 
1511	 0.211178278024039 
1512	 0.212884611190281 
1513	 0.214566835339469 
1514	 0.216173774690951 
1515	 0.217859013228854 
1516	 0.219603538944173 
1517	 0.221321877009 
1518	 0.223052677000085 
1519	 0.224808502592838 
1520	 0.226575175665035 
1521	 0.228344375061247 
1522	 0.230204160878968 
1523	 0.231948881517364 
1524	 0.23359590312049 
1525	 0.235314542957797 
1526	 0.23701872486707 
1527	 0.238733890286146 
1528	 0.240527472879561 
1529	 0.242261631486431 
1530	 0.243941794085771 
1531	 0.245652229773733 
1532	 0.247383165665033 
1533	 0.2490907325251 
1534	 0.2508032788776 
1535	 0.252498751756791 
1536	 0.254215976077392 
1537	 0.255842189009967 
1538	 0.257376054100988 
1539	 0.25896604862069 
1540	 0.260495902441012 
1541	 0.26208399761722 
1542	 0.263765772405688 
1543	 0.265406520622267 
1544	 0.267080642902707 
1545	 0.268678431454049 
1546	 0.270225710001545 
1547	 0.271773937133985 
1548	 0.273255208225606 
1549	 0.274761164877013 
1550	 0.276314250672827 
1551	 0.27782482737625 
1552	 0.279284754008436 
1553	 0.280789209360424 
1554	 0.282356826848075 
1555	 0.283825280935455 
1556	 0.285272308149572 
1557	 0.286691865981299 
1558	 0.287969422175074 
1559	 0.289319317569592 
1560	 0.290754427916602 
1561	 0.292131534532471 
1562	 0.293502799539688 
1563	 0.294867012843801 
1564	 0.296206419057217 
1565	 0.297542326248417 
1566	 0.298858469043127 
1567	 0.300105189221904 
1568	 0.301359409966832 
1569	 0.302543563471776 
1570	 0.303801344746694 
1571	 0.305083687960064 
1572	 0.306376287704439 
1573	 0.307688957100433 
1574	 0.308959848899005 
1575	 0.310223499636768 
1576	 0.311458667619051 
1577	 0.312662296033349 
1578	 0.313792079476962 
1579	 0.314850305822083 
1580	 0.315970051644249 
1581	 0.317021318135338 
1582	 0.318164677746411 
1583	 0.319423369829563 
1584	 0.320533732176641 
1585	 0.321605857171401 
1586	 0.32266041822127 
1587	 0.323669581193041 
1588	 0.324644252030227 
1589	 0.325595031676181 
1590	 0.326551228367391 
1591	 0.327442256725498 
1592	 0.32841220814976 
1593	 0.329445531288252 
1594	 0.330424782201439 
1595	 0.331407717222452 
1596	 0.332380646743088 
1597	 0.333345973864213 
1598	 0.334286568424493 
1599	 0.33523957512855 
1600	 0.336128777519532 
1601	 0.336950337644855 
1602	 0.337826135606644 
1603	 0.338676554815071 
1604	 0.33957324104198 
1605	 0.340528711156719 
1606	 0.34141001187283 
1607	 0.342256768318345 
1608	 0.343134699105574 
1609	 0.344016810607219 
1610	 0.344818472154417 
1611	 0.345606630110379 
1612	 0.346379336827045 
1613	 0.347041362117084 
1614	 0.347810315491541 
1615	 0.348670900643443 
1616	 0.349417482777128 
1617	 0.350124887490709 
1618	 0.350862608250658 
1619	 0.351562821827279 
1620	 0.352281403866566 
1621	 0.353057273637966 
1622	 0.353742009094195 
1623	 0.354368748708536 
1624	 0.355016703904475 
1625	 0.355643798515859 
1626	 0.356262249212058 
1627	 0.356889780531263 
1628	 0.35748259140283 
1629	 0.358054822279665 
1630	 0.358615468359352 
1631	 0.359152267752383 
1632	 0.359718344350708 
1633	 0.360272609228044 
1634	 0.360857029200236 
1635	 0.361478469122496 
1636	 0.362085420369818 
1637	 0.362726256295736 
1638	 0.363267430581104 
1639	 0.363758020452881 
1640	 0.364272158449896 
1641	 0.364705048846804 
1642	 0.365240083109192 
1643	 0.365878832803913 
1644	 0.366375622105158 
1645	 0.366838987392889 
1646	 0.367272127960614 
1647	 0.367633106218469 
1648	 0.367986461333956 
1649	 0.368293571659541 
1650	 0.368704440948483 
1651	 0.369142502078381 
1652	 0.369505248576231 
1653	 0.369926161806113 
1654	 0.370245316542238 
1655	 0.370428878794214 
1656	 0.370717513786448 
1657	 0.371055277853516 
1658	 0.371391841533839 
1659	 0.371623635157387 
1660	 0.371815103135795 
1661	 0.372044521236419 
1662	 0.37219525615451 
1663	 0.372369124780183 
1664	 0.372598102044851 
1665	 0.372851839405529 
1666	 0.373190053457059 
1667	 0.373457218863681 
1668	 0.373543090906161 
1669	 0.373665926291462 
1670	 0.373715605708945 
1671	 0.373733094009615 
1672	 0.373963924250763 
1673	 0.37407607274514 
1674	 0.374120542754747 
1675	 0.37424387840538 
1676	 0.374296224279321 
1677	 0.374363072670066 
1678	 0.374405825291202 
1679	 0.374367186145138 
1680	 0.37426617929837 
1681	 0.374067804231188 
1682	 0.37390814231734 
1683	 0.373774419584004 
1684	 0.373516992969764 
1685	 0.373386357093492 
1686	 0.37332748482614 
1687	 0.373089284584095 
1688	 0.372813806196354 
1689	 0.372506769033535 
1690	 0.372072537865497 
1691	 0.371747157140561 
1692	 0.371587912929348 
1693	 0.371321939965891 
1694	 0.371016204037437 
1695	 0.37069544283949 
1696	 0.370304138227547 
1697	 0.369965389762217 
1698	 0.36970551364181 
1699	 0.36934754989016 
1700	 0.368897141342453 
1701	 0.368500502821357 
1702	 0.368097013599822 
1703	 0.367665024987805 
1704	 0.367256362360295 
1705	 0.366881740612013 
1706	 0.366451822606617 
1707	 0.366008092125489 
1708	 0.365650861194702 
1709	 0.365213755957323 
1710	 0.364668081267144 
1711	 0.364234297698363 
1712	 0.363832150709875 
1713	 0.363443017484637 
1714	 0.363149203003863 
1715	 0.362732585991652 
1716	 0.362313456861163 
1717	 0.361782773811186 
1718	 0.3610739986468 
1719	 0.360496901845416 
1720	 0.359900658908424 
1721	 0.359285560624062 
1722	 0.358799856049216 
1723	 0.358154736091943 
1724	 0.357306415008418 
1725	 0.356664885735683 
1726	 0.356121518311068 
1727	 0.355402256866436 
1728	 0.354709035128547 
1729	 0.353992105923885 
1730	 0.353084948102017 
1731	 0.352398871759417 
1732	 0.351764590261734 
1733	 0.351050803370817 
1734	 0.350326852118297 
1735	 0.349618587151041 
1736	 0.348696516586909 
1737	 0.347639857248235 
1738	 0.346606230434252 
1739	 0.345585172917956 
1740	 0.344629420147133 
1741	 0.343783534351204 
1742	 0.342890570672094 
1743	 0.341842990621052 
1744	 0.340769685137242 
1745	 0.339609709893953 
1746	 0.338396138671615 
1747	 0.337323718106468 
1748	 0.336329664121104 
1749	 0.335451667998675 
1750	 0.334610886096065 
1751	 0.333521564793349 
1752	 0.332327430991098 
1753	 0.33122004788213 
1754	 0.330087546398351 
1755	 0.329011558003635 
1756	 0.328019841130794 
1757	 0.326592618565364 
1758	 0.325409093705548 
1759	 0.324290964356737 
1760	 0.323181627605245 
1761	 0.322309923287559 
1762	 0.321299681582775 
1763	 0.320116687755278 
1764	 0.319095136765174 
1765	 0.318112002724921 
1766	 0.31722768308268 
1767	 0.316548882132874 
1768	 0.315633038601999 
1769	 0.314570540466972 
1770	 0.3136514638714 
1771	 0.312671475674667 
1772	 0.311764082534769 
1773	 0.311010111232761 
1774	 0.310059579693947 
1775	 0.309215101998988 
1776	 0.308351290570942 
1777	 0.307452633551737 
1778	 0.306789166592535 
1779	 0.306130774031362 
1780	 0.305315134023792 
1781	 0.304774111685085 
1782	 0.304400948746201 
1783	 0.303927879229432 
1784	 0.303509534712968 
1785	 0.303185437272775 
1786	 0.303030526588631 
1787	 0.302996070094482 
1788	 0.302824516555034 
1789	 0.302305231349709 
1790	 0.301447950097343 
1791	 0.300503633098953 
1792	 0.299654041154925 
1793	 0.299258785248003 
1794	 0.299197396438594 
1795	 0.298870063557198 
1796	 0.298546915297791 
1797	 0.298446526279523 
1798	 0.298089302586252 
1799	 0.29733416030982 
1800	 0.296773033206975 
1801	 0.292339767834653 
1802	 0.292549365216966 
1803	 0.291936330784363 
1804	 0.290298164347848 
1805	 0.289515678221127 
1806	 0.288710812517275 
1807	 0.287869817338426 
1808	 0.287758059878226 
1809	 0.287395032474095 
1810	 0.286435482098812 
1811	 0.284319667400945 
1812	 0.283464793371486 
1813	 0.282867208973709 
1814	 0.282374705838537 
1815	 0.282788049009558 
1816	 0.283099082981388 
1817	 0.284283636986295 
1818	 0.284295294125721 
1819	 0.283888869505265 
1820	 0.283249569947829 
1821	 0.283006403390593 
1822	 0.281341446686308 
1823	 0.280654496148365 
1824	 0.282503454082257 
1825	 0.281833880068129 
1826	 0.278496599508449 
1827	 0.275854849927921 
1828	 0.272413263954835 
1829	 0.264353630532615 
1830	 0.263082163937255 
1831	 0.271348236714641 
1832	 0.272028088789233 
1833	 0.280499489674981 
1834	 0.280805778195487 
1835	 0.244068860232515 
1836	 0.2305203311384 
1837	 0.238636833969578 
1838	 0.24469477158441 
1839	 0.261651750256297 
1840	 0.311278942186284 
1841	 0.326172158302792 
1842	 0.329701702532617 
1843	 0.324629837978122 
1844	 0.298146051356897 
1845	 0.286511950959045 
1846	 0.269225341527397 
1847	 0.258568608927483 
1848	 0.25216613557346 
1849	 0.254273264246974 
1850	 0.253040499338278 
1851	 0.244614514866462 
1852	 0.254353697699413 
1853	 0.287376358117002 
1854	 0.293859621916881 
1855	 0.295503093473715 
1856	 0.300880131035375 
1857	 0.297648298738514 
1858	 0.289254633993196 
1859	 0.281454283880621 
1860	 0.279613496549232 
1861	 0.272973860580812 
1862	 0.252951277229114 
1863	 0.245660703642553 
1864	 0.25171560147449 
1865	 0.249291979081417 
1866	 0.253335249170941 
1867	 0.232635529779069 
1868	 0.229426495017698 
1869	 0.232442375970382 
1870	 0.226941060837006 
1871	 0.230488387323657 
1872	 0.226802291502637 
1873	 0.22629266608068 
1874	 0.199796343867752 
1875	 0.156622919968978 
1876	 0.145649756827509 
1877	 0.135731315483011 
1878	 0.134918764801325 
1879	 0.13831944574678 
1880	 0.136487693460987 
1881	 0.131835883937703 
1882	 0.117222460572173 
1883	 0.109453801646283 
1884	 0.103759430775134 
1885	 9.97800542412869E-02 
1886	 0.094245532041104 
1887	 9.22932185177976E-02 
1888	 9.64903363714845E-02 
1889	 9.58608179955708E-02 
1890	 0.091983484206853 
1891	 8.44084722153039E-02 
1892	 8.25384773133855E-02 
1893	 0.077692772016596 
1894	 0.075600786091248 
1895	 8.23687240623532E-02 
1896	 8.22226494291353E-02 
1897	 7.43093209050957E-02 
1898	 0.072733298037206 
1899	 6.91123821879252E-02 
1900	 5.94726510298525E-02 
1901	 5.73567015948634E-02 
1902	 6.24149588531935E-02 
1903	 0.062163277981447 
1904	 6.41933078666879E-02 
1905	 6.79633466740398E-02 
1906	 6.58268602753804E-02 
1907	 7.26628415999418E-02 
1908	 8.55088447478669E-02 
1909	 8.98072981906032E-02 
1910	 8.34702635933681E-02 
1911	 6.67772803424835E-02 
1912	 5.92603870977087E-02 
1913	 4.86362100278579E-02 
1914	 4.59723998947226E-02 
1915	 4.85516171721731E-02 
1916	 4.93299220805126E-02 
1917	 5.06369346863361E-02 
1918	 4.92412030717767E-02 
1919	 5.10709405811296E-02 
1920	 5.32203486366586E-02 
1921	 5.38933898513531E-02 
1922	 0.056308110879283 
1923	 0.056867160822971 
1924	 5.65453568913128E-02 
1925	 5.57339272100021E-02 
1926	 5.41903531691292E-02 
1927	 5.30660208235629E-02 
1928	 5.20769191854031E-02 
1929	 5.02528823876632E-02 
1930	 4.78809445089632E-02 
1931	 4.66418171023437E-02 
1932	 4.73959794595265E-02 
1933	 4.87544091745051E-02 
1934	 5.08464583082901E-02 
1935	 5.61601143298296E-02 
1936	 5.71623453510793E-02 
1937	 5.67810080631908E-02 
1938	 0.056520088863754 
1939	 5.50191755846955E-02 
1940	 5.35294840048982E-02 
1941	 5.32973712813298E-02 
1942	 5.34065893736351E-02 
1943	 0.053522775746618 
1944	 5.34397555129788E-02 
1945	 5.35797498929689E-02 
1946	 5.29461176590064E-02 
1947	 5.30386953612172E-02 
1948	 5.38448012031553E-02 
1949	 5.41916921864233E-02 
1950	 5.46308671751543E-02 
1951	 5.49757319974962E-02 
1952	 5.44126264000663E-02 
1953	 5.37711410870763E-02 
1954	 5.36952764017834E-02 
1955	 5.30690169467631E-02 
1956	 5.34082064642516E-02 
1957	 0.0540577404245 
1958	 5.45535229423021E-02 
1959	 5.50718193265817E-02 
1960	 5.61273289516904E-02 
1961	 0.057693906013919 
1962	 0.057967419082654 
1963	 5.87930380221821E-02 
1964	 5.89900612269019E-02 
1965	 5.88446495023139E-02 
1966	 5.95320491761603E-02 
1967	 5.98797398588136E-02 
1968	 6.01788654145033E-02 
1969	 6.01673272371926E-02 
1970	 5.95718518682276E-02 
1971	 5.95866195706753E-02 
1972	 5.97694240896971E-02 
1973	 5.97531691335803E-02 
1974	 6.00172873819176E-02 
1975	 6.04836787696574E-02 
1976	 6.10150079064252E-02 
1977	 6.15532363607683E-02 
1978	 6.20478453783888E-02 
1979	 6.27685301371277E-02 
1980	 6.31376402324265E-02 
1981	 6.33865876381018E-02 
1982	 6.37988334259213E-02 
1983	 6.44172032568525E-02 
1984	 6.47756151511669E-02 
1985	 6.51945206829576E-02 
1986	 0.065726086650722 
1987	 6.59223463175772E-02 
1988	 0.066182469440309 
1989	 6.63155728561794E-02 
1990	 0.066552232657663 
1991	 6.73527339142504E-02 
1992	 6.79393041786081E-02 
1993	 6.84321402173374E-02 
1994	 6.89596323601955E-02 
1995	 6.94764096546178E-02 
1996	 6.97670829673794E-02 
1997	 7.03083010017671E-02 
1998	 7.09199631463932E-02 
1999	 0.071622813880156 
2000	 7.19173401654253E-02 
2001	 7.21481661092223E-02 
2002	 7.35851008107596E-02 
2003	 7.47638830615317E-02 
2004	 7.56216907970436E-02 
2005	 7.69138547407145E-02 
2006	 7.78251535164911E-02 
2007	 7.78693403086031E-02 
2008	 7.83691170827283E-02 
2009	 7.94431969783927E-02 
2010	 8.01545976257727E-02 
2011	 8.14027920941821E-02 
2012	 8.21695069923407E-02 
2013	 8.23717151456422E-02 
2014	 0.083005967667442 
2015	 8.33543811560075E-02 
2016	 8.36653681351926E-02 
2017	 8.49771939909625E-02 
2018	 8.62912959717833E-02 
2019	 8.71179722151013E-02 
2020	 8.77992221104679E-02 
2021	 8.85884731814109E-02 
2022	 8.87084605328522E-02 
2023	 8.85708162737394E-02 
2024	 8.91048540622318E-02 
2025	 0.089824765406178 
2026	 9.05113410873714E-02 
2027	 9.13376891084521E-02 
2028	 9.20289422622191E-02 
2029	 9.25122221687376E-02 
2030	 9.29486282271185E-02 
2031	 9.35121055844184E-02 
2032	 9.40515181133372E-02 
2033	 9.45392937154194E-02 
2034	 9.50411924561067E-02 
2035	 9.59623562599426E-02 
2036	 9.69785516105356E-02 
2037	 9.80145978990772E-02 
2038	 9.88330896017604E-02 
2039	 9.94359701387272E-02 
2040	 0.100095648552065 
2041	 0.100579767494704 
2042	 0.101394493762511 
2043	 0.102176856747482 
2044	 0.102356187060785 
2045	 0.102887076959126 
2046	 0.103536134064002 
2047	 0.104293965550548 
2048	 0.105054772570005 
2049	 0.10629086762989 
2050	 0.107395122128505 
2051	 0.107983570869984 
2052	 0.108580756466143 
2053	 0.109421230448031 
2054	 0.110051546458315 
2055	 0.110871173677266 
2056	 0.112028187158815 
2057	 0.112868719453733 
2058	 0.113528570919241 
2059	 0.114335100713356 
2060	 0.115171172097788 
2061	 0.116059059753994 
2062	 0.116795940853348 
2063	 0.117593838264021 
2064	 0.118612720069302 
2065	 0.119180552284837 
2066	 0.119991523602145 
2067	 0.121079370412324 
2068	 0.1217045451401 
2069	 0.122466756784083 
2070	 0.122990798395217 
2071	 0.123410731509347 
2072	 0.124099036214896 
2073	 0.124956527107027 
2074	 0.125690461067095 
2075	 0.126596637455827 
2076	 0.127714322625707 
2077	 0.128475029010916 
2078	 0.129022645101417 
2079	 0.129856772605198 
2080	 0.130400912317901 
2081	 0.131042119558981 
2082	 0.132126602033355 
2083	 0.132878571180039 
2084	 0.133708471597191 
2085	 0.134487808230852 
2086	 0.135087429748899 
2087	 0.135915515128343 
2088	 0.136892961834571 
2089	 0.13775214611621 
2090	 0.138772408002043 
2091	 0.139713547730568 
2092	 0.14016669480466 
2093	 0.140673682938417 
2094	 0.141265966386059 
2095	 0.142089368153609 
2096	 0.143095062511745 
2097	 0.144034675695899 
2098	 0.144764903308848 
2099	 0.145307802914999 
2100	 0.14605481546069 
2101	 0.146983614074621 
2102	 0.147907970343539 
2103	 0.148978375374825 
2104	 0.150029739197831 
2105	 0.150944895910167 
2106	 0.151736998204596 
2107	 0.152641906628424 
2108	 0.153691301674962 
2109	 0.154622099363173 
2110	 0.155756044134809 
2111	 0.156717160530153 
2112	 0.15734502102894 
2113	 0.158070605561574 
2114	 0.15855405237123 
2115	 0.159240712420741 
2116	 0.16035924997451 
2117	 0.161301954167928 
2118	 0.162496595273095 
2119	 0.163345280011195 
2120	 0.16403495420772 
2121	 0.164387864491504 
2122	 0.164841885280844 
2123	 0.165648127447444 
2124	 0.166863798133152 
2125	 0.168020268112719 
2126	 0.169027432732884 
2127	 0.16975746039543 
2128	 0.170028387772786 
2129	 0.170389178645046 
2130	 0.17114925089636 
2131	 0.172084209525389 
2132	 0.172844836456169 
2133	 0.173451879101736 
2134	 0.174105159319353 
2135	 0.174551248212451 
2136	 0.175057992216857 
2137	 0.17594168490429 
2138	 0.177060467596111 
2139	 0.177794622219867 
2140	 0.178182286477738 
2141	 0.178624803982486 
2142	 0.17893486304184 
2143	 0.179806139437479 
2144	 0.180675088250758 
2145	 0.180906295868384 
2146	 0.181191363569938 
2147	 0.1810242041487 
2148	 0.181015829331547 
2149	 0.181764347614961 
2150	 0.182426199824226 
2151	 0.18303753866737 
2152	 0.18397321749303 
2153	 0.184580044819052 
2154	 0.184932718120939 
2155	 0.185118138246354 
2156	 0.18554418639258 
2157	 0.185872489600789 
2158	 0.186273560806388 
2159	 0.18669431858802 
2160	 0.187102542782786 
2161	 0.187582985237703 
2162	 0.18796680324844 
2163	 0.188436932400972 
2164	 0.18882065970669 
2165	 0.189127892343993 
2166	 0.189122723157063 
2167	 0.189141672595173 
2168	 0.189294550344058 
2169	 0.18936498093958 
2170	 0.189529077058054 
2171	 0.189840408385841 
2172	 0.190206042062818 
2173	 0.190577130146153 
2174	 0.191211298322923 
2175	 0.191348838039174 
2176	 0.191571869411653 
2177	 0.191906169663932 
2178	 0.191922228796455 
2179	 0.192279860868038 
2180	 0.192810805233678 
2181	 0.193093720036925 
2182	 0.193233517845956 
2183	 0.193556332913724 
2184	 0.19401268431707 
2185	 0.194364996327675 
2186	 0.194799229724716 
2187	 0.195136819870691 
2188	 0.195380817101687 
2189	 0.195352746147389 
2190	 0.195087003731233 
2191	 0.195185422939679 
2192	 0.194960483558143 
2193	 0.194965712267043 
2194	 0.195659289253343 
2195	 0.196359129697598 
2196	 0.196823841429978 
2197	 0.197327449103742 
2198	 0.197330559806493 
2199	 0.196685834203281 
2200	 0.196574522294405 
2201	 0.196592700544442 
2202	 0.19667927423956 
2203	 0.197028360600537 
2204	 0.19717287061026 
2205	 0.197215139753351 
2206	 0.196926990048306 
2207	 0.196536008573322 
2208	 0.196308731459348 
2209	 0.195830074063529 
2210	 0.195785450290225 
2211	 0.196102903956156 
2212	 0.196420855223086 
2213	 0.196715288306453 
2214	 0.196701513173922 
2215	 0.196437706787046 
2216	 0.196467825779677 
2217	 0.196180991130934 
2218	 0.196025838323893 
2219	 0.195852027591237 
2220	 0.195295312754587 
2221	 0.195400657180695 
2222	 0.195459822592405 
2223	 0.195739179294855 
2224	 0.196153606489224 
2225	 0.195733227831199 
2226	 0.19535042963205 
2227	 0.194828407819895 
2228	 0.19446274711886 
2229	 0.194255851082045 
2230	 0.193533857855162 
2231	 0.193101028627203 
2232	 0.192669078821232 
2233	 0.192293533205071 
2234	 0.191931624463778 
2235	 0.192156575547301 
2236	 0.191953137556401 
2237	 0.191320723345678 
2238	 0.191114734562053 
2239	 0.191091275274005 
2240	 0.190798206502586 
2241	 0.190581586093664 
2242	 0.190708326453754 
2243	 0.190728861432167 
2244	 0.190854564844173 
2245	 0.19089781821567 
2246	 0.190516409683541 
2247	 0.189327135226071 
2248	 0.188092554639018 
2249	 0.187546095383223 
2250	 0.186677314718973 
2251	 0.186160556780506 
2252	 0.185927499588334 
2253	 0.185554854366547 
2254	 0.185547172491178 
2255	 0.185222467778535 
2256	 0.184825218863983 
2257	 0.184323252644619 
2258	 0.183928178919696 
2259	 0.183448603793139 
2260	 0.182847451972339 
2261	 0.181819251119732 
2262	 0.180719754133884 
2263	 0.179215798900896 
2264	 0.177812775501544 
2265	 0.177215093989564 
2266	 0.176989646817568 
2267	 0.177283009753994 
2268	 0.177306390384932 
2269	 0.177229255574925 
2270	 0.176467559797148 
2271	 0.174828149610757 
2272	 0.174190359043215 
2273	 0.173716197209166 
2274	 0.173012913183798 
2275	 0.173055928424483 
2276	 0.172864792572587 
2277	 0.17204596736936 
2278	 0.17202203369072 
2279	 0.171755351716042 
2280	 0.170457892790487 
2281	 0.169380916709198 
2282	 0.168280372723289 
2283	 0.167489530867126 
2284	 0.167345065616982 
2285	 0.167324936844164 
2286	 0.167134801956203 
2287	 0.167020934671577 
2288	 0.166308629064749 
2289	 0.165587177427509 
2290	 0.165035926143647 
2291	 0.163792404654513 
2292	 0.163010070555191 
2293	 0.162765056033823 
2294	 0.161906679377808 
2295	 0.161855619659712 
2296	 0.162350674012939 
2297	 0.161747854725371 
2298	 0.160863252409909 
2299	 0.160023593943345 
2300	 0.158832438186877 
2301	 0.157544532461734 
2302	 0.15683267716249 
2303	 0.156368496551344 
2304	 0.155320544916055 
2305	 0.154879869119342 
2306	 0.154751659137066 
2307	 0.154047353827529 
2308	 0.153679578744849 
2309	 0.153520653734542 
2310	 0.153197012732328 
2311	 0.152530459799577 
2312	 0.151910054217452 
2313	 0.151266596463463 
2314	 0.150665342907795 
2315	 0.150899211263943 
2316	 0.15051510350277 
2317	 0.149318780153821 
2318	 0.148008628466078 
2319	 0.146390795620103 
2320	 0.144831666202311 
2321	 0.143780943494473 
2322	 0.143278669705611 
2323	 0.142854320834666 
2324	 0.142612463188395 
2325	 0.142973384321295 
2326	 0.142670909456174 
2327	 0.141040286791243 
2328	 0.140031252153788 
2329	 0.13939272920404 
2330	 0.138710333559484 
2331	 0.138810096174718 
2332	 0.138366373239785 
2333	 0.137351650381515 
2334	 0.136015204273894 
2335	 0.135310984317815 
2336	 0.13502199326787 
2337	 0.133624813254537 
2338	 0.133527855598756 
2339	 0.133636361114852 
2340	 0.132813607096704 
2341	 0.132409527306428 
2342	 0.133048014109224 
2343	 0.133546917810914 
2344	 0.133310848325493 
2345	 0.133789727531218 
2346	 0.132610228293155 
2347	 0.130975758546591 
2348	 0.130632585508544 
2349	 0.129515238321058 
2350	 0.128984180402082 
2351	 0.129606795388622 
2352	 0.128998329425418 
2353	 0.127770149117232 
2354	 0.127070082566046 
2355	 0.12515093193595 
2356	 0.123439809560842 
2357	 0.123363450620484 
2358	 0.122496378756443 
2359	 0.12078059926649 
2360	 0.120064969377606 
2361	 0.120085281154823 
2362	 0.11890140560692 
2363	 0.118395244774341 
2364	 0.118063840229367 
2365	 0.116193364449832 
2366	 0.116308908303974 
2367	 0.115094936677816 
2368	 0.112813993631418 
2369	 0.112482236245068 
2370	 0.112026918769071 
2371	 0.112884404546378 
2372	 0.113168730953997 
2373	 0.114144689670203 
2374	 0.113742122306429 
2375	 0.112118471178792 
2376	 0.111436222606869 
2377	 0.110809858353331 
2378	 0.110195146779165 
2379	 0.109141921761155 
2380	 0.108548317152253 
2381	 0.109203121116841 
2382	 0.108945185082026 
2383	 0.108807806594717 
2384	 0.107785876287449 
2385	 0.104717445758068 
2386	 0.102699321420665 
2387	 0.101178717004813 
2388	 0.100697433648328 
2389	 0.101003957216187 
2390	 0.10086568075374 
2391	 0.101267326019745 
2392	 0.10093951708786 
2393	 9.99316959776107E-02 
2394	 9.98522281410292E-02 
2395	 9.98031451706383E-02 
2396	 9.93156711724034E-02 
2397	 9.96967199257737E-02 
2398	 9.96253076298742E-02 
2399	 9.91607828793836E-02 
2400	 9.85039449857477E-02 
2401	 9.76446586313767E-02 
2402	 0.095879776332573 
2403	 9.47625261751981E-02 
2404	 9.46602804340053E-02 
2405	 9.44154230723217E-02 
2406	 9.28117537071412E-02 
2407	 9.14122701093488E-02 
2408	 9.00790397320508E-02 
2409	 0.089622416535107 
2410	 9.04162487910936E-02 
2411	 9.00198877257401E-02 
2412	 8.88430354553893E-02 
2413	 8.74940461761847E-02 
2414	 8.75289297922233E-02 
2415	 8.69454631692448E-02 
2416	 8.59638039180136E-02 
2417	 8.64373826051088E-02 
2418	 8.57058671047223E-02 
2419	 8.51965027139505E-02 
2420	 8.67008958087002E-02 
2421	 0.087212770615299 
2422	 8.68850767187894E-02 
2423	 8.79346067006551E-02 
2424	 0.085859269784385 
2425	 8.39244151715159E-02 
2426	 8.43285324529275E-02 
2427	 8.45738933426516E-02 
2428	 0.087022922411329 
2429	 8.77287863729894E-02 
2430	 0.084214250295617 
2431	 7.87626753047959E-02 
2432	 7.48809450463305E-02 
2433	 0.074356741396072 
2434	 7.37002703343989E-02 
2435	 7.38407007267077E-02 
2436	 7.52031061143841E-02 
2437	 7.75776584294071E-02 
2438	 8.04041622593443E-02 
2439	 8.87305208364684E-02 
2440	 9.02631190634238E-02 
2441	 0.087321344649562 
2442	 8.50222056474457E-02 
2443	 7.64421141136765E-02 
2444	 7.10953035341429E-02 
2445	 6.43666087968712E-02 
2446	 6.22950702231798E-02 
2447	 6.89833873314928E-02 
2448	 7.08164770214427E-02 
2449	 7.52146556432367E-02 
2450	 7.74756980437799E-02 
2451	 7.05949774011848E-02 
2452	 6.87883587605796E-02 
2453	 0.071599330111632 
2454	 7.41170913648854E-02 
2455	 7.88471987293696E-02 
2456	 7.89880464539295E-02 
2457	 0.077183714411524 
2458	 7.47280342081399E-02 
2459	 0.069943384337313 
2460	 6.54189930475003E-02 
2461	 0.059690998882462 
2462	 5.77031336214354E-02 
2463	 5.35483752901709E-02 
2464	 5.39427003545677E-02 
2465	 6.27308335257537E-02 
2466	 6.44814778990385E-02 
2467	 6.46497739052915E-02 
2468	 6.72588523139481E-02 
2469	 6.71041934448576E-02 
2470	 7.06294189154985E-02 
2471	 8.16466708360001E-02 
2472	 8.38441829261809E-02 
2473	 8.07512474305583E-02 
2474	 7.94967496975746E-02 
2475	 0.073588705089806 
2476	 6.64520956176364E-02 
2477	 5.77545544869051E-02 
2478	 5.93860655382939E-02 
2479	 6.34156837169293E-02 
2480	 6.63270954093443E-02 
2481	 0.087644878046196 
2482	 0.0868962519809 
2483	 5.85176406797349E-02 
2484	 5.27513807983516E-02 
2485	 4.89953746482233E-02 
2486	 4.45751522412261E-02 
2487	 0.064452151216538 
2488	 5.60807701908753E-02 
2489	 5.77775754474931E-02 
2490	 8.97074553650238E-02 
2491	 0.084130366715753 
2492	 0.103274157035509 
2493	 0.120045819684639 
2494	 9.10372391954492E-02 
2495	 9.29784825403586E-02 
2496	 8.65263859995731E-02 
2497	 9.40831874503361E-02 
2498	 0.141194295203162 
2499	 0.170589623588038 
2500	 0.179761378635778 
