Wavelength	ref00084.asd
350	 1.96585445893662E-02 
351	 1.92159491381652E-02 
352	 1.85203720534128E-02 
353	 1.88647017456702E-02 
354	 1.87772496372551E-02 
355	 1.82598164725679E-02 
356	 0.017837662765988 
357	 1.86271093433821E-02 
358	 0.018619714368184 
359	 1.83002782883183E-02 
360	 1.86070084865503E-02 
361	 1.88774541397279E-02 
362	 1.86363115868396E-02 
363	 1.81752654383314E-02 
364	 1.81980587809578E-02 
365	 1.83428645632005E-02 
366	 1.81029772787397E-02 
367	 1.76932307741793E-02 
368	 1.83187236296629E-02 
369	 1.88348611725922E-02 
370	 0.018708645933386 
371	 1.80562378881285E-02 
372	 1.84269619891977E-02 
373	 1.85521069499575E-02 
374	 1.83601382718566E-02 
375	 1.83810923973303E-02 
376	 0.018564919702673 
377	 1.85283040065444E-02 
378	 1.84493085157548E-02 
379	 1.91645424546641E-02 
380	 1.94513360573574E-02 
381	 1.93923815849689E-02 
382	 1.93752220598839E-02 
383	 0.019819346455089 
384	 1.99400035271551E-02 
385	 1.98606335510304E-02 
386	 2.00140846466883E-02 
387	 1.98869169896437E-02 
388	 0.020189138090224 
389	 2.06836822857501E-02 
390	 2.02048554129904E-02 
391	 2.08616159359246E-02 
392	 2.12712313772355E-02 
393	 0.020666548119631 
394	 2.10812851153456E-02 
395	 2.14604377023807E-02 
396	 2.16150472947159E-02 
397	 2.16660192422851E-02 
398	 2.17498147480659E-02 
399	 2.17172192360308E-02 
400	 2.16622585794915E-02 
401	 2.18399712595579E-02 
402	 2.16238004358719E-02 
403	 2.16484588035153E-02 
404	 2.21492854630053E-02 
405	 2.22134633269674E-02 
406	 2.21943131829956E-02 
407	 0.022179568504884 
408	 0.022174382566056 
409	 2.21212544126412E-02 
410	 2.22056039678465E-02 
411	 2.23944339677552E-02 
412	 2.24626303428627E-02 
413	 2.23822884985005E-02 
414	 2.23640276366063E-02 
415	 2.24760192559347E-02 
416	 2.24014134049138E-02 
417	 2.24729781486081E-02 
418	 2.25927696616982E-02 
419	 2.25753318477188E-02 
420	 2.25887510570536E-02 
421	 2.26000871315002E-02 
422	 2.26123611362039E-02 
423	 0.022660851527899 
424	 0.02266175653134 
425	 2.26470593822057E-02 
426	 2.26486359617062E-02 
427	 2.26500876599278E-02 
428	 2.27052637614265E-02 
429	 2.27146231066512E-02 
430	 0.022585867525259 
431	 2.25302226701882E-02 
432	 2.25950339107066E-02 
433	 2.26370500923255E-02 
434	 2.24047629630726E-02 
435	 2.24506319406763E-02 
436	 2.25313684934039E-02 
437	 2.24690968289937E-02 
438	 2.24776156147933E-02 
439	 2.26391498735001E-02 
440	 2.27389404328508E-02 
441	 2.25787485642618E-02 
442	 0.022663030579756 
443	 2.28010749029797E-02 
444	 2.28911987645157E-02 
445	 2.29600700071023E-02 
446	 2.30649679043037E-02 
447	 2.31404484115045E-02 
448	 0.023166490579681 
449	 2.32897856182223E-02 
450	 2.34137144220407E-02 
451	 2.35024466072639E-02 
452	 2.35690716464005E-02 
453	 2.37761864623188E-02 
454	 2.38873702558715E-02 
455	 2.38610475955617E-02 
456	 2.39141717942506E-02 
457	 0.023955076608597 
458	 2.40409355814272E-02 
459	 2.41656762939736E-02 
460	 2.40279594903034E-02 
461	 2.40077470049586E-02 
462	 2.40921958121633E-02 
463	 2.40647449101404E-02 
464	 2.39843949828089E-02 
465	 2.40131705607475E-02 
466	 2.41337638069536E-02 
467	 2.40473538796792E-02 
468	 2.40625848451312E-02 
469	 2.40876992078687E-02 
470	 2.40143500073557E-02 
471	 2.41150086990554E-02 
472	 2.42246434243869E-02 
473	 2.42434268984104E-02 
474	 2.41536448947098E-02 
475	 2.42264264537347E-02 
476	 2.42929785956035E-02 
477	 0.024264248927632 
478	 2.43148350277736E-02 
479	 2.44325031489475E-02 
480	 2.45903543013302E-02 
481	 2.47255362300849E-02 
482	 2.46516993437754E-02 
483	 0.024633102690181 
484	 0.024793462490365 
485	 2.50752923792594E-02 
486	 2.51230884804657E-02 
487	 2.51537866406271E-02 
488	 2.53569491794537E-02 
489	 2.55332692125482E-02 
490	 2.57446784018244E-02 
491	 2.58961197375765E-02 
492	 2.59095178913024E-02 
493	 2.62032255144187E-02 
494	 2.66170427701615E-02 
495	 2.69903640094467E-02 
496	 2.72273302662021E-02 
497	 0.027573256133016 
498	 2.80541958292759E-02 
499	 2.86149680276431E-02 
500	 0.029124924148369 
501	 2.97782493880519E-02 
502	 3.05472825981813E-02 
503	 3.12754722188308E-02 
504	 0.032033346680783 
505	 3.27909967001118E-02 
506	 3.35888218941984E-02 
507	 3.45962961097551E-02 
508	 3.57013693824447E-02 
509	 3.68090547586069E-02 
510	 3.79007473698501E-02 
511	 3.92674271545328E-02 
512	 4.07154221811173E-02 
513	 4.21631117628667E-02 
514	 4.36513489557124E-02 
515	 4.52771200956839E-02 
516	 4.71733415585637E-02 
517	 0.049307148354227 
518	 5.12791951350741E-02 
519	 5.33537455609662E-02 
520	 5.53885615740171E-02 
521	 5.72105078347508E-02 
522	 5.93707839139769E-02 
523	 6.14560737239801E-02 
524	 6.33024235700349E-02 
525	 6.50703303245673E-02 
526	 6.71491768833673E-02 
527	 6.92616565787626E-02 
528	 7.10710484655244E-02 
529	 7.25459312745085E-02 
530	 7.40491746790629E-02 
531	 0.075530178269013 
532	 7.67510074377683E-02 
533	 7.80914654781225E-02 
534	 7.92424143040963E-02 
535	 8.00540811340142E-02 
536	 8.07545359204618E-02 
537	 8.16400432969446E-02 
538	 8.25265189103851E-02 
539	 8.31644719297346E-02 
540	 0.083795308647223 
541	 8.45002846361662E-02 
542	 0.085141550517626 
543	 8.54464292088552E-02 
544	 8.60418914692476E-02 
545	 0.086611799815941 
546	 8.69466768889962E-02 
547	 8.74600644154814E-02 
548	 8.78849313643905E-02 
549	 8.82521156797015E-02 
550	 8.86642259084143E-02 
551	 8.88802840651836E-02 
552	 8.90327670898409E-02 
553	 0.089136060305389 
554	 8.90318837143373E-02 
555	 0.088848421389714 
556	 8.86347284674591E-02 
557	 8.83875263028645E-02 
558	 0.088008790051177 
559	 8.75136178892522E-02 
560	 8.68751652887085E-02 
561	 8.60680254008187E-02 
562	 8.53547492615322E-02 
563	 8.45928290658673E-02 
564	 8.36805278445353E-02 
565	 8.26921148022054E-02 
566	 8.15937007783197E-02 
567	 8.04246442966091E-02 
568	 7.92291811918944E-02 
569	 7.79599514286565E-02 
570	 7.66009721666705E-02 
571	 7.52330143384765E-02 
572	 7.40084517167515E-02 
573	 7.27966519507911E-02 
574	 7.17164575041188E-02 
575	 7.08012427019905E-02 
576	 0.069788879997776 
577	 6.87765157452264E-02 
578	 6.78225300968078E-02 
579	 6.69656382565695E-02 
580	 6.62196487079707E-02 
581	 6.55129352253905E-02 
582	 6.47794834695347E-02 
583	 6.39694054412217E-02 
584	 0.063265975667412 
585	 6.26726744803845E-02 
586	 6.21421203358488E-02 
587	 6.16304289557203E-02 
588	 6.11834316222494E-02 
589	 6.07673160007781E-02 
590	 6.03024775389109E-02 
591	 5.98213006097098E-02 
592	 5.93925587095504E-02 
593	 5.90296708111919E-02 
594	 5.86672762681395E-02 
595	 5.83801188472707E-02 
596	 5.80201103666715E-02 
597	 0.057467410789363 
598	 5.71232055308381E-02 
599	 5.68443985279797E-02 
600	 0.056565263306696 
601	 5.63210761050334E-02 
602	 5.60472046235441E-02 
603	 5.57101363111438E-02 
604	 5.53138022228255E-02 
605	 5.49203996308841E-02 
606	 5.45826297938173E-02 
607	 5.42181893700283E-02 
608	 5.37165927231275E-02 
609	 5.33289860271006E-02 
610	 5.28649442416993E-02 
611	 5.22955016208004E-02 
612	 5.18681243762626E-02 
613	 0.051395892321818 
614	 5.08763497495979E-02 
615	 5.03556193821944E-02 
616	 4.98596411157619E-02 
617	 4.93646178053135E-02 
618	 4.88882834592229E-02 
619	 4.84671679701535E-02 
620	 4.80946826907597E-02 
621	 0.047787085644964 
622	 4.75479160630549E-02 
623	 4.73524415177887E-02 
624	 4.72057577363284E-02 
625	 4.70461581115364E-02 
626	 0.046846759106083 
627	 4.68738484993384E-02 
628	 4.68698343504439E-02 
629	 4.67676739254322E-02 
630	 4.67055931959293E-02 
631	 4.66330042554991E-02 
632	 4.64880598114204E-02 
633	 4.62306510876588E-02 
634	 4.58774154299715E-02 
635	 0.045454746384762 
636	 4.49513761715331E-02 
637	 4.43418213134971E-02 
638	 4.36162538651019E-02 
639	 4.28285876098047E-02 
640	 4.20017407155548E-02 
641	 0.041135235566989 
642	 4.02757565324071E-02 
643	 3.94262715431079E-02 
644	 3.85878322037176E-02 
645	 3.78385644589575E-02 
646	 3.70322423012878E-02 
647	 0.036272849315133 
648	 3.57855002888531E-02 
649	 3.53712897819902E-02 
650	 3.49282423740606E-02 
651	 3.44698727651714E-02 
652	 3.41445402156508E-02 
653	 3.39635648039683E-02 
654	 3.38429419919834E-02 
655	 3.36971248992973E-02 
656	 3.36268543213098E-02 
657	 3.34222619085099E-02 
658	 3.30528354105779E-02 
659	 3.26170847846876E-02 
660	 3.22722995682656E-02 
661	 3.18354523471001E-02 
662	 3.12684264659739E-02 
663	 3.08730743068224E-02 
664	 0.030507977935607 
665	 3.01524239555284E-02 
666	 2.98218258405879E-02 
667	 2.95433458890358E-02 
668	 2.92579193947729E-02 
669	 2.90283977729076E-02 
670	 2.90061141798495E-02 
671	 2.89123209110405E-02 
672	 2.89079078381279E-02 
673	 2.90495922432019E-02 
674	 2.89363031593239E-02 
675	 2.90526307924582E-02 
676	 2.93388324420444E-02 
677	 2.95540308048585E-02 
678	 2.97706594113652E-02 
679	 3.00560349761167E-02 
680	 3.04622658012493E-02 
681	 3.10165071593874E-02 
682	 3.16215882902966E-02 
683	 3.23698814197461E-02 
684	 3.33456853546752E-02 
685	 3.44923650894984E-02 
686	 3.59956713112992E-02 
687	 3.79233165107618E-02 
688	 0.040049358515488 
689	 4.20362127670587E-02 
690	 4.43622284042317E-02 
691	 4.73331824930084E-02 
692	 5.08189939425732E-02 
693	 5.49538498098397E-02 
694	 5.96291239921758E-02 
695	 0.064658939683559 
696	 6.99155116994162E-02 
697	 7.55479544218437E-02 
698	 0.081760747984877 
699	 8.86484178136191E-02 
700	 9.56213515227587E-02 
701	 0.102967065256582 
702	 0.110637591007467 
703	 0.11809759364969 
704	 0.125650067691545 
705	 0.133396704455115 
706	 0.141417563118439 
707	 0.149606524050329 
708	 0.157962874134163 
709	 0.166457680263429 
710	 0.175008144987209 
711	 0.183714860480908 
712	 0.192586800624416 
713	 0.20160091597316 
714	 0.2107169061283 
715	 0.219963831447954 
716	 0.22960124784853 
717	 0.240024739354535 
718	 0.25094379506545 
719	 0.261412349138614 
720	 0.270611180976943 
721	 0.278493214892337 
722	 0.28594815570307 
723	 0.294347805465695 
724	 0.303894115838232 
725	 0.31243480333202 
726	 0.320425546230495 
727	 0.327824270267207 
728	 0.334815663984471 
729	 0.341575719960128 
730	 0.348073563073925 
731	 0.353904132274631 
732	 0.35874599823414 
733	 0.363088453239755 
734	 0.36747750108934 
735	 0.372036600776607 
736	 0.376390598170394 
737	 0.380420966120624 
738	 0.384055001174969 
739	 0.387363436396692 
740	 0.390501118277698 
741	 0.393348308704127 
742	 0.395930795846577 
743	 0.398302998906261 
744	 0.400534124329577 
745	 0.402504023590766 
746	 0.404284466997536 
747	 0.406061662525987 
748	 0.407536506723501 
749	 0.408902306756185 
750	 0.410288157955662 
751	 0.411608965936183 
752	 0.412592337458851 
753	 0.413362992890665 
754	 0.414127577675966 
755	 0.414914600341645 
756	 0.415607768483976 
757	 0.416185146730214 
758	 0.416776448116416 
759	 0.418094861808377 
760	 0.421060355808081 
761	 0.425034802681306 
762	 0.424896343723675 
763	 0.424328650995611 
764	 0.423790938601833 
765	 0.423039206870951 
766	 0.422083602485748 
767	 0.421461682746831 
768	 0.421197801888918 
769	 0.421143127548418 
770	 0.420991567679148 
771	 0.421030098631034 
772	 0.421304184074015 
773	 0.421616109651321 
774	 0.421738012475322 
775	 0.421921243069624 
776	 0.422223706814636 
777	 0.422242906775611 
778	 0.422390550410794 
779	 0.422677857653942 
780	 0.422979531444923 
781	 0.423123555160695 
782	 0.423374018997027 
783	 0.423712950429225 
784	 0.423982595932672 
785	 0.42423131596448 
786	 0.424534554263026 
787	 0.424929119538319 
788	 0.425398773815141 
789	 0.425864143792203 
790	 0.426226272934483 
791	 0.426457835889651 
792	 0.426668833097469 
793	 0.426944261486969 
794	 0.427172145988867 
795	 0.427290912836952 
796	 0.427730403346345 
797	 0.428024036836739 
798	 0.428181698243611 
799	 0.428486107567458 
800	 0.42887480717871 
801	 0.429166593358398 
802	 0.429353560524731 
803	 0.429633112169602 
804	 0.429884492893021 
805	 0.430030412347489 
806	 0.430087956218484 
807	 0.430232360056979 
808	 0.430589463101706 
809	 0.431108196910236 
810	 0.431719253237058 
811	 0.432565007147303 
812	 0.433582463926235 
813	 0.434915194605347 
814	 0.436652177624888 
815	 0.437654284650488 
816	 0.438384995971821 
817	 0.438911274989994 
818	 0.43876064394851 
819	 0.438195328852949 
820	 0.437775415533058 
821	 0.437895585462491 
822	 0.438633317667367 
823	 0.439294687926301 
824	 0.439399036656597 
825	 0.438853787850319 
826	 0.438222099968323 
827	 0.43849384695825 
828	 0.439268290292675 
829	 0.439621479507145 
830	 0.43963695162997 
831	 0.439726721049428 
832	 0.439818481513533 
833	 0.43954867320186 
834	 0.439524378039046 
835	 0.439468740804109 
836	 0.439305588492789 
837	 0.43930187554831 
838	 0.439269550650031 
839	 0.439303501479639 
840	 0.439448631324358 
841	 0.439551549556454 
842	 0.439680300231516 
843	 0.43982305800623 
844	 0.439975731554617 
845	 0.440232811086251 
846	 0.440503041910256 
847	 0.440694320632934 
848	 0.440781575005771 
849	 0.441056162549002 
850	 0.441282020612566 
851	 0.44141734248271 
852	 0.441608285293458 
853	 0.442073587220718 
854	 0.442479350047564 
855	 0.442629526045503 
856	 0.442591363523164 
857	 0.442696366744867 
858	 0.442748961069746 
859	 0.442819586277149 
860	 0.443519290743784 
861	 0.443792052241796 
862	 0.443902590237775 
863	 0.444221105618938 
864	 0.444489044690285 
865	 0.444713154172387 
866	 0.444895451157778 
867	 0.445058184665495 
868	 0.445273057563225 
869	 0.445462268185908 
870	 0.445591839092903 
871	 0.445684991449174 
872	 0.445884433718792 
873	 0.446217619840475 
874	 0.446513298179005 
875	 0.446544695239327 
876	 0.446703079435985 
877	 0.446944359071821 
878	 0.447198355260502 
879	 0.447403717760033 
880	 0.447350113035459 
881	 0.447518490493744 
882	 0.447972627067629 
883	 0.448107662496285 
884	 0.44822461686763 
885	 0.448294597017101 
886	 0.448396408256775 
887	 0.448895330629323 
888	 0.449255179357837 
889	 0.449494761173964 
890	 0.449769798795 
891	 0.45014290643178 
892	 0.451091013475629 
893	 0.45207617784896 
894	 0.45263196522438 
895	 0.453867193073638 
896	 0.454898029821356 
897	 0.456012398790301 
898	 0.457533247626914 
899	 0.457498318194325 
900	 0.457843544269576 
901	 0.457923417089051 
902	 0.456438287241556 
903	 0.45635567519408 
904	 0.456360171282754 
905	 0.456466936716839 
906	 0.457411330770798 
907	 0.45800020631899 
908	 0.458886729771845 
909	 0.459945926356996 
910	 0.460360483730136 
911	 0.460357238996252 
912	 0.460526924356847 
913	 0.460859835758628 
914	 0.460816899059194 
915	 0.461161693431123 
916	 0.460973746752275 
917	 0.460234742569729 
918	 0.460035777634968 
919	 0.459390901882639 
920	 0.458719750058367 
921	 0.458431824002766 
922	 0.458610341080071 
923	 0.458990700323508 
924	 0.459285191706686 
925	 0.459540189426201 
926	 0.460300700403851 
927	 0.461677461140498 
928	 0.463545778504488 
929	 0.465625418189232 
930	 0.467519498019991 
931	 0.471084887885695 
932	 0.474327564156735 
933	 0.475713246543874 
934	 0.47762075674589 
935	 0.477754745631735 
936	 0.477459768653094 
937	 0.477314165075109 
938	 0.474671166209834 
939	 0.473056827586465 
940	 0.47253795955691 
941	 0.472092104576594 
942	 0.47036162258382 
943	 0.469740910364591 
944	 0.469629136656343 
945	 0.469257081804079 
946	 0.46922010592345 
947	 0.46882178684491 
948	 0.468195229099387 
949	 0.467485639908065 
950	 0.466374216842746 
951	 0.465099249285711 
952	 0.46438828143676 
953	 0.464150170113219 
954	 0.462519656378734 
955	 0.460482983707344 
956	 0.459539850413336 
957	 0.459505966861963 
958	 0.456971029892369 
959	 0.455612317265407 
960	 0.454405959383552 
961	 0.452633185800097 
962	 0.452089914420003 
963	 0.450021126080865 
964	 0.448564522476919 
965	 0.448722480655536 
966	 0.4479191136818 
967	 0.447197188454919 
968	 0.445650015506012 
969	 0.4435584323665 
970	 0.443343820147604 
971	 0.442614021185673 
972	 0.442821290550478 
973	 0.443842680160298 
974	 0.442640230698382 
975	 0.443289495734484 
976	 0.444251777173342 
977	 0.443855041761499 
978	 0.442058780072894 
979	 0.442586408802949 
980	 0.442020964198462 
981	 0.440380718393294 
982	 0.441774341271079 
983	 0.440799323435736 
984	 0.439830372124195 
985	 0.439346154781142 
986	 0.43775012424752 
987	 0.43895532140182 
988	 0.439811725546509 
989	 0.439409003133823 
990	 0.439346568377829 
991	 0.441349537786688 
992	 0.441066059279623 
993	 0.439563618507849 
994	 0.440484303430595 
995	 0.440212882952476 
996	 0.440397287776929 
997	 0.441395118593324 
998	 0.442670430355475 
999	 0.443719998201639 
1000	 0.442905127620535 
1001	 0.444622017592731 
1002	 0.444972685538143 
1003	 0.445351016024897 
1004	 0.44585936451103 
1005	 0.446226589649812 
1006	 0.446597742015854 
1007	 0.446875133743846 
1008	 0.44694520440998 
1009	 0.447247120181865 
1010	 0.447599091279869 
1011	 0.448028231469258 
1012	 0.448609724790267 
1013	 0.449142584336266 
1014	 0.449433335105387 
1015	 0.449776566066825 
1016	 0.450136049874015 
1017	 0.450264555934452 
1018	 0.450617210807071 
1019	 0.451233800230296 
1020	 0.451587288048577 
1021	 0.451905516925693 
1022	 0.4522433288525 
1023	 0.452483882291354 
1024	 0.452656348002551 
1025	 0.453143930350871 
1026	 0.453529051072156 
1027	 0.453943745273636 
1028	 0.454403746291002 
1029	 0.454541102414504 
1030	 0.454743257203824 
1031	 0.455089495949407 
1032	 0.45528777919314 
1033	 0.455531276253972 
1034	 0.455830835291932 
1035	 0.456130834645688 
1036	 0.456467061737078 
1037	 0.456755116835228 
1038	 0.45707334858969 
1039	 0.457304637177422 
1040	 0.45747467258158 
1041	 0.457528181695268 
1042	 0.457712364125651 
1043	 0.45785673330254 
1044	 0.458001408090597 
1045	 0.458196117724679 
1046	 0.458226077109514 
1047	 0.458341381944229 
1048	 0.458643887413985 
1049	 0.458918018816066 
1050	 0.459082811733933 
1051	 0.459222440960806 
1052	 0.459413167446025 
1053	 0.459498136220611 
1054	 0.45960077060678 
1055	 0.459950514153069 
1056	 0.460304302698551 
1057	 0.460561831141975 
1058	 0.460792073228419 
1059	 0.460957092431065 
1060	 0.461039757109109 
1061	 0.461157602512154 
1062	 0.461367638142762 
1063	 0.461576409761372 
1064	 0.461719877665837 
1065	 0.461898991706825 
1066	 0.462132779984123 
1067	 0.462229814697104 
1068	 0.462253038959589 
1069	 0.462563598615099 
1070	 0.462872193311056 
1071	 0.463057025064507 
1072	 0.463302518595885 
1073	 0.463411071313913 
1074	 0.463343944791319 
1075	 0.463380084444724 
1076	 0.463510682568307 
1077	 0.463673124431808 
1078	 0.463883162272124 
1079	 0.463960955577116 
1080	 0.463999129616221 
1081	 0.464114446093885 
1082	 0.464215677497491 
1083	 0.464325263310328 
1084	 0.46447919490138 
1085	 0.464647302642085 
1086	 0.464782371036494 
1087	 0.464789377208242 
1088	 0.464846597933592 
1089	 0.46490035676372 
1090	 0.464920790895042 
1091	 0.465092988536881 
1092	 0.465328521158241 
1093	 0.465657336762096 
1094	 0.465926145748102 
1095	 0.466092164283484 
1096	 0.466310344296366 
1097	 0.466438708840559 
1098	 0.46670004658076 
1099	 0.467041965472815 
1100	 0.467464696442166 
1101	 0.46782005783121 
1102	 0.468202639572734 
1103	 0.468608681711611 
1104	 0.469049153683905 
1105	 0.469503406064022 
1106	 0.470093225415961 
1107	 0.470824179918112 
1108	 0.471596177156841 
1109	 0.472507778239198 
1110	 0.473382162006937 
1111	 0.474411562220456 
1112	 0.475558429731798 
1113	 0.476785478534658 
1114	 0.478229308903267 
1115	 0.479855425687535 
1116	 0.481695592686722 
1117	 0.483558921884909 
1118	 0.485673056968421 
1119	 0.487653208372654 
1120	 0.489247617533351 
1121	 0.490506832333013 
1122	 0.491494708840377 
1123	 0.492218164176331 
1124	 0.492630201804231 
1125	 0.492608650055412 
1126	 0.491944433768551 
1127	 0.490631063734881 
1128	 0.489115057294573 
1129	 0.487078419683985 
1130	 0.48506816423541 
1131	 0.482919652249957 
1132	 0.480747547137078 
1133	 0.478424626158119 
1134	 0.476177654835727 
1135	 0.474123420516333 
1136	 0.471975958633296 
1137	 0.469949418826495 
1138	 0.467958861549862 
1139	 0.466022923231417 
1140	 0.464325495311943 
1141	 0.462555560761546 
1142	 0.460895283012156 
1143	 0.459166047098268 
1144	 0.457480052770264 
1145	 0.455442395543615 
1146	 0.453323036644508 
1147	 0.451060664040698 
1148	 0.448637719666727 
1149	 0.446136808805689 
1150	 0.443766796438856 
1151	 0.441213689313348 
1152	 0.438487956303887 
1153	 0.435881664141388 
1154	 0.433497041030952 
1155	 0.431296737687637 
1156	 0.429428000196585 
1157	 0.427615809972753 
1158	 0.425849090893591 
1159	 0.424116762522975 
1160	 0.422556518419619 
1161	 0.42102334871034 
1162	 0.419719757485483 
1163	 0.418526351843353 
1164	 0.417499122698345 
1165	 0.416579012788218 
1166	 0.415758123062888 
1167	 0.415047826319288 
1168	 0.414412561667769 
1169	 0.413879269781866 
1170	 0.413381084058066 
1171	 0.412869584591359 
1172	 0.412487885626406 
1173	 0.412044247320403 
1174	 0.411548597842508 
1175	 0.411174312822795 
1176	 0.410836981089228 
1177	 0.410544564965757 
1178	 0.410344382276642 
1179	 0.410097238722737 
1180	 0.409918351549846 
1181	 0.409613207221603 
1182	 0.409259664877015 
1183	 0.408878186403525 
1184	 0.408345188073481 
1185	 0.407956321554823 
1186	 0.407603453775704 
1187	 0.407278891777075 
1188	 0.407065705196602 
1189	 0.406810921323695 
1190	 0.406457200898447 
1191	 0.406151805633739 
1192	 0.405824854524826 
1193	 0.405566298136253 
1194	 0.405342896920611 
1195	 0.405132132579561 
1196	 0.405072020597903 
1197	 0.405124037893573 
1198	 0.405109631037926 
1199	 0.405234218094182 
1200	 0.405224094663519 
1201	 0.405046496058731 
1202	 0.405055411640304 
1203	 0.405109233091349 
1204	 0.405189337112283 
1205	 0.40544287403005 
1206	 0.405541145341004 
1207	 0.405533271660746 
1208	 0.405598881677936 
1209	 0.405668488251394 
1210	 0.405672857833264 
1211	 0.405746806362316 
1212	 0.405859173138626 
1213	 0.405964699623957 
1214	 0.406063328407696 
1215	 0.406169755639732 
1216	 0.406280896786523 
1217	 0.406428014263532 
1218	 0.406603090571363 
1219	 0.406754789375173 
1220	 0.406937313608285 
1221	 0.407091672694947 
1222	 0.407192478486625 
1223	 0.407329149170117 
1224	 0.407475245329875 
1225	 0.40765573731655 
1226	 0.407870921288432 
1227	 0.408068529743452 
1228	 0.408297412777355 
1229	 0.408492105142278 
1230	 0.408700051333229 
1231	 0.40886831455587 
1232	 0.409044211122018 
1233	 0.409197973157774 
1234	 0.409420311265782 
1235	 0.40967708209331 
1236	 0.409892298077203 
1237	 0.410129889309835 
1238	 0.410368442302448 
1239	 0.410557084338591 
1240	 0.4107912427548 
1241	 0.411073626977634 
1242	 0.411354838585435 
1243	 0.411678128801366 
1244	 0.411939300525309 
1245	 0.412202570449783 
1246	 0.412432307467351 
1247	 0.412539304487399 
1248	 0.41273643164234 
1249	 0.413005478198606 
1250	 0.413235719064158 
1251	 0.413501527719925 
1252	 0.413769592814615 
1253	 0.413924738386285 
1254	 0.41396928310695 
1255	 0.414119159886022 
1256	 0.414245535512369 
1257	 0.414384887737323 
1258	 0.414618976122777 
1259	 0.414745922487299 
1260	 0.414787126157897 
1261	 0.414865258961946 
1262	 0.414942646662162 
1263	 0.414985738416833 
1264	 0.414980121810554 
1265	 0.415025518808024 
1266	 0.415056820696631 
1267	 0.415116207981226 
1268	 0.415282985820349 
1269	 0.415348744510883 
1270	 0.415385634202509 
1271	 0.415374619655665 
1272	 0.415286882832482 
1273	 0.415172282837568 
1274	 0.415096585779189 
1275	 0.414984476687219 
1276	 0.414965401491298 
1277	 0.415038102374477 
1278	 0.414995809330976 
1279	 0.41498006447208 
1280	 0.41487111289212 
1281	 0.414617147208319 
1282	 0.414480941550209 
1283	 0.414344486053445 
1284	 0.414250044326674 
1285	 0.414281030158713 
1286	 0.414169374922289 
1287	 0.414011117301005 
1288	 0.413838196067353 
1289	 0.413565615191072 
1290	 0.413332615430835 
1291	 0.413138043612028 
1292	 0.412900124628688 
1293	 0.412620260676987 
1294	 0.412356153361035 
1295	 0.412122857107872 
1296	 0.411824846661183 
1297	 0.411460937948575 
1298	 0.411051990120222 
1299	 0.410662120988473 
1300	 0.410207082774728 
1301	 0.40975719341524 
1302	 0.409398460544162 
1303	 0.408842637822271 
1304	 0.408122756430732 
1305	 0.407469045385127 
1306	 0.406716748176257 
1307	 0.406043077441555 
1308	 0.405500080455856 
1309	 0.404775768143531 
1310	 0.403978862677001 
1311	 0.403154895903629 
1312	 0.402224005495295 
1313	 0.401275022859702 
1314	 0.400312853990415 
1315	 0.399320611578718 
1316	 0.398239278244118 
1317	 0.397185933447102 
1318	 0.396164462074098 
1319	 0.395095760447572 
1320	 0.393971915022847 
1321	 0.392856876904586 
1322	 0.391736819424061 
1323	 0.390528210226075 
1324	 0.389463654081962 
1325	 0.388471772289834 
1326	 0.387411864190479 
1327	 0.386404861441534 
1328	 0.385297041508961 
1329	 0.384111802999812 
1330	 0.382883245884843 
1331	 0.381667917397571 
1332	 0.38031234595341 
1333	 0.378782878431126 
1334	 0.377375405814104 
1335	 0.375846895309554 
1336	 0.374515910365824 
1337	 0.373207105432929 
1338	 0.372134855390752 
1339	 0.37104229488155 
1340	 0.370366049360817 
1341	 0.37013283924103 
1342	 0.369958309450911 
1343	 0.370254383045564 
1344	 0.370608985681381 
1345	 0.371125215811045 
1346	 0.371990469629168 
1347	 0.37339192032156 
1348	 0.375140803978298 
1349	 0.376984128493425 
1350	 0.379514286056669 
1351	 0.382252094215278 
1352	 0.385299694620958 
1353	 0.389163857466706 
1354	 0.393860799251214 
1355	 0.399851080817363 
1356	 0.405057282476576 
1357	 0.413469000961316 
1358	 0.420621535408253 
1359	 0.433509791197424 
1360	 0.442386773736241 
1361	 0.45835026483698 
1362	 0.464487867270416 
1363	 0.476010970415149 
1364	 0.474707058664217 
1365	 0.468835828179894 
1366	 0.449790166525198 
1367	 0.439022121332855 
1368	 0.426074567019117 
1369	 0.420293974070352 
1370	 0.420689213428491 
1371	 0.421596630600401 
1372	 0.427496827753448 
1373	 0.426564415181492 
1374	 0.42326044264883 
1375	 0.420926369754546 
1376	 0.414746792841284 
1377	 0.407143628983403 
1378	 0.401051044949578 
1379	 0.396814102115563 
1380	 0.387156537842563 
1381	 0.374430265765899 
1382	 0.363265519628518 
1383	 0.353411600468505 
1384	 0.338810374682942 
1385	 0.322971977284292 
1386	 0.31129399036326 
1387	 0.297516074641432 
1388	 0.290205191908279 
1389	 0.290427821847645 
1390	 0.284995096497095 
1391	 0.281027028038664 
1392	 0.272558144504161 
1393	 0.259953205525856 
1394	 0.249980248208661 
1395	 0.238445413452933 
1396	 0.228872760749283 
1397	 0.221860222914393 
1398	 0.213423642131726 
1399	 0.203107132575052 
1400	 0.195698468256392 
1401	 0.189751573992946 
1402	 0.183623484058019 
1403	 0.180689136141989 
1404	 0.17524315830284 
1405	 0.169112628318935 
1406	 0.162124575668641 
1407	 0.15544257746539 
1408	 0.150772562409658 
1409	 0.147149471364639 
1410	 0.142833980953898 
1411	 0.139297663018394 
1412	 0.13613559261128 
1413	 0.133227313261827 
1414	 0.130789017826807 
1415	 0.128088626752616 
1416	 0.125260273208697 
1417	 0.123021156803757 
1418	 0.120993976654779 
1419	 0.118823759048671 
1420	 0.116852067874831 
1421	 0.115115863327943 
1422	 0.113080896970638 
1423	 0.111636091640481 
1424	 0.110826643652823 
1425	 0.109564123829563 
1426	 0.108129685986561 
1427	 0.106902709231103 
1428	 0.105317295001861 
1429	 0.104313685779275 
1430	 0.103594488506664 
1431	 0.102988218730767 
1432	 0.102855416779669 
1433	 0.102425290487505 
1434	 0.10192687892357 
1435	 0.101471517202638 
1436	 0.100842775226663 
1437	 0.100369452396545 
1438	 0.100296894975491 
1439	 9.97949680801947E-02 
1440	 9.89143269445548E-02 
1441	 9.83750976898184E-02 
1442	 9.79186551062866E-02 
1443	 9.71921727949314E-02 
1444	 9.70401602167447E-02 
1445	 9.69871164124622E-02 
1446	 9.64191983413998E-02 
1447	 9.61008724769194E-02 
1448	 9.56518385790559E-02 
1449	 9.49990199945692E-02 
1450	 9.47309697856889E-02 
1451	 9.46318401959341E-02 
1452	 9.44294842904537E-02 
1453	 9.43731636785259E-02 
1454	 9.41445970824899E-02 
1455	 9.37032910879191E-02 
1456	 9.35918591068506E-02 
1457	 9.35359629196133E-02 
1458	 9.35721230181521E-02 
1459	 9.37628487597097E-02 
1460	 9.40028555279588E-02 
1461	 9.43041630283138E-02 
1462	 9.46486512896116E-02 
1463	 9.51618791873803E-02 
1464	 9.56580521838699E-02 
1465	 9.61796675788555E-02 
1466	 9.67300821044925E-02 
1467	 9.72648327203764E-02 
1468	 0.09797528386074 
1469	 9.87791314617674E-02 
1470	 9.95722218601314E-02 
1471	 0.100600773649455 
1472	 0.101310149204029 
1473	 0.101650874789356 
1474	 0.102253381952464 
1475	 0.102755344426482 
1476	 0.103378954150609 
1477	 0.104312040432142 
1478	 0.10499693700782 
1479	 0.105454904510666 
1480	 0.106099984599143 
1481	 0.106613399399371 
1482	 0.107323859472423 
1483	 0.108395918452585 
1484	 0.109213049721901 
1485	 0.10989620157268 
1486	 0.110682377823928 
1487	 0.111423245974088 
1488	 0.1120807876584 
1489	 0.112888479838622 
1490	 0.113687274546098 
1491	 0.114492477848292 
1492	 0.115269705967922 
1493	 0.115939562682653 
1494	 0.116565749009249 
1495	 0.117261695221211 
1496	 0.117833876663109 
1497	 0.118676921448208 
1498	 0.119730017283641 
1499	 0.12069075513561 
1500	 0.121723402685089 
1501	 0.122743737895343 
1502	 0.123755243492536 
1503	 0.124809048694025 
1504	 0.125906612526 
1505	 0.127013754819078 
1506	 0.128132190801871 
1507	 0.129254716457636 
1508	 0.130441441226929 
1509	 0.131505696276242 
1510	 0.132472303691993 
1511	 0.133546067002832 
1512	 0.134615113058844 
1513	 0.135693310940526 
1514	 0.136846222132639 
1515	 0.137989869188669 
1516	 0.139123956392844 
1517	 0.140248922362629 
1518	 0.141417975023544 
1519	 0.142556420514827 
1520	 0.143668386869742 
1521	 0.14476831678116 
1522	 0.145876593146878 
1523	 0.1469661418501 
1524	 0.14796891751902 
1525	 0.149083205776293 
1526	 0.150313082319717 
1527	 0.151445800329423 
1528	 0.152580737635543 
1529	 0.153715938385442 
1530	 0.154756512330954 
1531	 0.155883549190926 
1532	 0.157116250020006 
1533	 0.158286123116744 
1534	 0.159469573429039 
1535	 0.160614724877537 
1536	 0.161662918206947 
1537	 0.162812491652181 
1538	 0.164034971233661 
1539	 0.165199530547833 
1540	 0.1664312472717 
1541	 0.167582967146974 
1542	 0.168612607983962 
1543	 0.169692754491361 
1544	 0.170758954442796 
1545	 0.171853675574262 
1546	 0.172981977586099 
1547	 0.174109590895819 
1548	 0.175311403341999 
1549	 0.176414083644908 
1550	 0.177443180532314 
1551	 0.178502379957108 
1552	 0.179443941138297 
1553	 0.18051039891684 
1554	 0.181717789363945 
1555	 0.182868881828726 
1556	 0.184140953081395 
1557	 0.185263298883225 
1558	 0.186247611180093 
1559	 0.187246454547947 
1560	 0.188118997455034 
1561	 0.189061611037578 
1562	 0.190088396028689 
1563	 0.191068240819349 
1564	 0.192074969725602 
1565	 0.193042885326313 
1566	 0.193931855852211 
1567	 0.19483916444223 
1568	 0.195787848270273 
1569	 0.196738228252733 
1570	 0.197723923288456 
1571	 0.198776135231848 
1572	 0.199754707720069 
1573	 0.200708744723466 
1574	 0.201659420060394 
1575	 0.202582876535531 
1576	 0.203485912171593 
1577	 0.20435307318704 
1578	 0.205256030273805 
1579	 0.206145040660626 
1580	 0.207011971112183 
1581	 0.207892518041552 
1582	 0.208749201217808 
1583	 0.209564247915619 
1584	 0.210385239887304 
1585	 0.2112069714252 
1586	 0.212050532888817 
1587	 0.212903091081009 
1588	 0.213706867535992 
1589	 0.214527127779784 
1590	 0.215314696271592 
1591	 0.216035168112179 
1592	 0.216795334356203 
1593	 0.217576701987924 
1594	 0.218352623092178 
1595	 0.219144916760313 
1596	 0.219873242515583 
1597	 0.220587299936913 
1598	 0.221303518869909 
1599	 0.221941448922443 
1600	 0.222680746433656 
1601	 0.223521835303413 
1602	 0.224232506236316 
1603	 0.224895925917214 
1604	 0.225622718774492 
1605	 0.226323072113683 
1606	 0.227002588688127 
1607	 0.227730831983015 
1608	 0.228408735683588 
1609	 0.228984949692932 
1610	 0.229634944464142 
1611	 0.230355083481399 
1612	 0.230979526057074 
1613	 0.231529610066499 
1614	 0.232182915036409 
1615	 0.232895434452942 
1616	 0.233453128379593 
1617	 0.234006303771797 
1618	 0.234519269740922 
1619	 0.23487160549912 
1620	 0.235342303561064 
1621	 0.235895021640663 
1622	 0.236387981434825 
1623	 0.236837198890493 
1624	 0.237351042712031 
1625	 0.237927108412213 
1626	 0.23841357236634 
1627	 0.238863732198582 
1628	 0.239359749463733 
1629	 0.239830008782569 
1630	 0.240322840134654 
1631	 0.240909532097343 
1632	 0.241363999668402 
1633	 0.241726619267436 
1634	 0.242157499056193 
1635	 0.242568475753124 
1636	 0.242997849913159 
1637	 0.243483197115843 
1638	 0.243883895453045 
1639	 0.244253505772003 
1640	 0.244581563008386 
1641	 0.244825458489597 
1642	 0.24516801987406 
1643	 0.245539311496325 
1644	 0.245825421946392 
1645	 0.246103028925116 
1646	 0.246452265888699 
1647	 0.24677550676621 
1648	 0.247061898033655 
1649	 0.247425729680051 
1650	 0.247719955740127 
1651	 0.247913839317175 
1652	 0.248075798997158 
1653	 0.24826979933588 
1654	 0.24839738042597 
1655	 0.248359849042053 
1656	 0.248552456293145 
1657	 0.248887153755873 
1658	 0.249059862911955 
1659	 0.249220439933571 
1660	 0.249125817262721 
1661	 0.249011237457465 
1662	 0.249202417063335 
1663	 0.249411190986546 
1664	 0.249622829899144 
1665	 0.249911939140348 
1666	 0.250072603606877 
1667	 0.250138403350324 
1668	 0.250199189022285 
1669	 0.250408682252425 
1670	 0.25066277825506 
1671	 0.250729435967654 
1672	 0.250783551290157 
1673	 0.250736976801004 
1674	 0.25059738558006 
1675	 0.25054694261366 
1676	 0.250579168617292 
1677	 0.25066579082907 
1678	 0.250534546614216 
1679	 0.250387215688359 
1680	 0.250289581321171 
1681	 0.250105245243431 
1682	 0.250151363210484 
1683	 0.250162311015555 
1684	 0.249957138843522 
1685	 0.249892257358875 
1686	 0.249740160003338 
1687	 0.249523122650252 
1688	 0.249605888089755 
1689	 0.249536253608597 
1690	 0.249399973436087 
1691	 0.249235948047409 
1692	 0.248883769610421 
1693	 0.248582300258043 
1694	 0.248282861041033 
1695	 0.2480006593169 
1696	 0.247714519945058 
1697	 0.247462128337767 
1698	 0.247325730012839 
1699	 0.247052053441273 
1700	 0.246709119904437 
1701	 0.246360228043349 
1702	 0.245838575186339 
1703	 0.245505243698926 
1704	 0.24525792723743 
1705	 0.244998289543801 
1706	 0.24497189918496 
1707	 0.24471959496832 
1708	 0.244348907407892 
1709	 0.243935717598936 
1710	 0.243285783058157 
1711	 0.242789290753736 
1712	 0.242335974420414 
1713	 0.241967934429451 
1714	 0.241712707956273 
1715	 0.241414746669489 
1716	 0.241197345572506 
1717	 0.240806435422082 
1718	 0.240322900118282 
1719	 0.239891045930937 
1720	 0.239374832072276 
1721	 0.238897816431284 
1722	 0.23853043926267 
1723	 0.237977220805662 
1724	 0.237258131929308 
1725	 0.236696990504785 
1726	 0.236112715143739 
1727	 0.23553586147501 
1728	 0.235070757414275 
1729	 0.234446513512901 
1730	 0.233651780091717 
1731	 0.233214031047917 
1732	 0.232818779636723 
1733	 0.232391699712358 
1734	 0.231950380050137 
1735	 0.231449428559539 
1736	 0.230995576389866 
1737	 0.230784912982187 
1738	 0.230364404523798 
1739	 0.229653386743407 
1740	 0.228960421478722 
1741	 0.228276769670912 
1742	 0.22756020683286 
1743	 0.226958360157059 
1744	 0.22625403628508 
1745	 0.225439971037297 
1746	 0.22483073963115 
1747	 0.224136677551264 
1748	 0.223455116420874 
1749	 0.222788907394956 
1750	 0.221988936277587 
1751	 0.221203223449644 
1752	 0.220440731165877 
1753	 0.219824893595075 
1754	 0.219134706866599 
1755	 0.218514298522384 
1756	 0.217997628489888 
1757	 0.217059023812037 
1758	 0.216359319204009 
1759	 0.215671830403414 
1760	 0.215095954232131 
1761	 0.21484122644974 
1762	 0.214284182137523 
1763	 0.213509974871538 
1764	 0.21293932111068 
1765	 0.212262209380092 
1766	 0.211761631731209 
1767	 0.211667289403811 
1768	 0.211287763499426 
1769	 0.210754578372761 
1770	 0.210326405932535 
1771	 0.209760058368261 
1772	 0.209267666062545 
1773	 0.208856532097047 
1774	 0.208329246354107 
1775	 0.208166686261058 
1776	 0.208350122076546 
1777	 0.208504541548609 
1778	 0.208563414356322 
1779	 0.208578026250729 
1780	 0.208401038762182 
1781	 0.208099618477908 
1782	 0.208241040565539 
1783	 0.208638466079089 
1784	 0.208480843967936 
1785	 0.20828154943506 
1786	 0.208510406521561 
1787	 0.208594060143153 
1788	 0.209144000245049 
1789	 0.209907957089948 
1790	 0.20988355467564 
1791	 0.20990253442586 
1792	 0.210126973921266 
1793	 0.210265763016571 
1794	 0.210893502277949 
1795	 0.211637670561697 
1796	 0.211877029071693 
1797	 0.212479416535419 
1798	 0.213588867198926 
1799	 0.214482224910648 
1800	 0.21709936121195 
1801	 0.215238183049848 
1802	 0.216912505505405 
1803	 0.218460465068888 
1804	 0.219927894412799 
1805	 0.220949334495619 
1806	 0.221073958344706 
1807	 0.222310357083066 
1808	 0.22378194213425 
1809	 0.224843057439843 
1810	 0.226436510762443 
1811	 0.229782465332627 
1812	 0.231777363001562 
1813	 0.232037455150085 
1814	 0.234170395111204 
1815	 0.2384770394003 
1816	 0.240708131004674 
1817	 0.241102417832912 
1818	 0.243528089843993 
1819	 0.246339058006083 
1820	 0.249134371065836 
1821	 0.24984502796873 
1822	 0.250607804653508 
1823	 0.251939001458657 
1824	 0.248801094674984 
1825	 0.247810529683237 
1826	 0.251373547510766 
1827	 0.254174694476083 
1828	 0.256980586610921 
1829	 0.255935081361565 
1830	 0.259960683484766 
1831	 0.270264994943877 
1832	 0.282277479364459 
1833	 0.311384916096029 
1834	 0.325654922614762 
1835	 0.305024598933408 
1836	 0.313822528503139 
1837	 0.306197982928247 
1838	 0.307357425965807 
1839	 0.324163922150407 
1840	 0.403094533715361 
1841	 0.409883313826436 
1842	 0.389301277565308 
1843	 0.363823127053696 
1844	 0.314413248298037 
1845	 0.276972808399614 
1846	 0.178670073939675 
1847	 0.157113990297516 
1848	 0.167582995233169 
1849	 0.21839155538761 
1850	 0.247009428838741 
1851	 0.338882673936018 
1852	 0.381627631383034 
1853	 0.412000060007614 
1854	 0.402211950816664 
1855	 0.354113498726508 
1856	 0.325421075307134 
1857	 0.271353089278573 
1858	 0.230425057989548 
1859	 0.215901932492541 
1860	 0.233055911233923 
1861	 0.223696759381371 
1862	 0.199255163807662 
1863	 0.195664406936359 
1864	 0.19518208254462 
1865	 0.196430382915277 
1866	 0.189376356340898 
1867	 0.239945595630756 
1868	 0.270430007217749 
1869	 0.293689311487921 
1870	 0.291711154765763 
1871	 0.290460207141032 
1872	 0.250610270232278 
1873	 0.147402222783291 
1874	 0.116741135213561 
1875	 0.118465278311679 
1876	 0.105875488597848 
1877	 9.57070762090356E-02 
1878	 0.111600526689991 
1879	 0.112700305257812 
1880	 9.28216617174317E-02 
1881	 9.30924613705169E-02 
1882	 0.106701588375917 
1883	 0.106646894075606 
1884	 0.103247206831822 
1885	 0.101463228615623 
1886	 9.70120254052513E-02 
1887	 9.23298374857204E-02 
1888	 8.46633692164808E-02 
1889	 0.083055828973205 
1890	 0.08260818054996 
1891	 8.31138592091875E-02 
1892	 0.081648277069861 
1893	 8.32458595334171E-02 
1894	 8.21027767405132E-02 
1895	 7.57199163901848E-02 
1896	 7.18242160204518E-02 
1897	 6.71128689600012E-02 
1898	 6.52476348315729E-02 
1899	 6.86145951323109E-02 
1900	 7.26297794160605E-02 
1901	 7.57405802081246E-02 
1902	 8.71812105257159E-02 
1903	 9.07504535239664E-02 
1904	 8.54604848404343E-02 
1905	 7.78043286810628E-02 
1906	 7.09869249386079E-02 
1907	 4.84357651594582E-02 
1908	 2.18560457208626E-02 
1909	 2.28928757097187E-02 
1910	 4.38919606229376E-03 
1911	 1.33902827850741E-02 
1912	 2.23240855392009E-02 
1913	 0.035651064473706 
1914	 3.70533081398025E-02 
1915	 4.30785139171988E-02 
1916	 0.041296815516337 
1917	 0.032638467976777 
1918	 2.87864189379015E-02 
1919	 3.11571070537911E-02 
1920	 3.25876820631704E-02 
1921	 2.95211880831837E-02 
1922	 0.033880659721367 
1923	 3.41729828762586E-02 
1924	 2.94088136333901E-02 
1925	 2.75916835934838E-02 
1926	 2.65106419916199E-02 
1927	 2.72695141587613E-02 
1928	 0.027650375683105 
1929	 3.33444868398038E-02 
1930	 3.61103336498824E-02 
1931	 3.57841940641651E-02 
1932	 3.50398245913665E-02 
1933	 0.030551240155879 
1934	 2.85672803454826E-02 
1935	 2.73505084705394E-02 
1936	 2.68803728651622E-02 
1937	 0.027076082433382 
1938	 2.70278725833778E-02 
1939	 2.74306880965412E-02 
1940	 0.027136861853876 
1941	 0.026835610703517 
1942	 2.64158972834779E-02 
1943	 2.70559600767877E-02 
1944	 0.027553618166541 
1945	 2.87512837201185E-02 
1946	 3.07408444867792E-02 
1947	 3.07175069404828E-02 
1948	 2.94609384737695E-02 
1949	 2.90118598194332E-02 
1950	 2.81688997419466E-02 
1951	 2.57784115135436E-02 
1952	 2.60381456348195E-02 
1953	 2.73658383887407E-02 
1954	 2.77636764844502E-02 
1955	 2.90569594445672E-02 
1956	 2.99721057657199E-02 
1957	 2.97196919195935E-02 
1958	 2.93770415504268E-02 
1959	 2.84212456627711E-02 
1960	 2.81999359848369E-02 
1961	 2.79531980584545E-02 
1962	 2.78778165134259E-02 
1963	 0.028119335487102 
1964	 2.85224451587165E-02 
1965	 2.82309387071083E-02 
1966	 2.79985126740467E-02 
1967	 2.81320919072379E-02 
1968	 2.78800140394669E-02 
1969	 2.81953144689928E-02 
1970	 2.92836939767169E-02 
1971	 2.95433350858598E-02 
1972	 0.029617433691275 
1973	 2.97489806350624E-02 
1974	 2.97217820114733E-02 
1975	 2.95310635462431E-02 
1976	 2.98636711855371E-02 
1977	 3.07069868375174E-02 
1978	 3.08153162604657E-02 
1979	 0.031241779862708 
1980	 3.18749698967613E-02 
1981	 3.19533551457369E-02 
1982	 3.21642234726415E-02 
1983	 3.26401831983179E-02 
1984	 3.26991754845196E-02 
1985	 3.24191892857441E-02 
1986	 3.24038762933331E-02 
1987	 3.26702320966431E-02 
1988	 3.33012261963796E-02 
1989	 3.42571379427007E-02 
1990	 3.54634924689418E-02 
1991	 3.61321106433689E-02 
1992	 3.63259196563541E-02 
1993	 3.67174666547561E-02 
1994	 3.69889502195919E-02 
1995	 3.69979351250707E-02 
1996	 3.67835385309297E-02 
1997	 3.69653784632973E-02 
1998	 3.69777412510192E-02 
1999	 3.64836282574384E-02 
2000	 3.69283194975235E-02 
2001	 3.76311833946765E-02 
2002	 3.80406899458771E-02 
2003	 3.83864945474122E-02 
2004	 3.82217176601343E-02 
2005	 3.90148027659867E-02 
2006	 3.96003062297966E-02 
2007	 4.00522173401313E-02 
2008	 4.04684141977061E-02 
2009	 4.17367857720469E-02 
2010	 4.17995179020898E-02 
2011	 4.15442612523589E-02 
2012	 4.21676648956122E-02 
2013	 4.22065929286335E-02 
2014	 4.23302626879377E-02 
2015	 4.32061424747121E-02 
2016	 4.35664586883858E-02 
2017	 4.41427550616256E-02 
2018	 4.48644777546933E-02 
2019	 4.53007401498993E-02 
2020	 4.55276085959885E-02 
2021	 4.58397760614035E-02 
2022	 4.58603722640529E-02 
2023	 4.60846652701948E-02 
2024	 4.64034911150117E-02 
2025	 4.67756974774095E-02 
2026	 4.74067898858399E-02 
2027	 4.79757396901074E-02 
2028	 4.85302851153371E-02 
2029	 4.90614113999845E-02 
2030	 4.96098017723594E-02 
2031	 4.99047669230641E-02 
2032	 5.02211980000517E-02 
2033	 0.050429076660053 
2034	 0.050754029911261 
2035	 5.11108700059725E-02 
2036	 5.16678896438434E-02 
2037	 0.052327681050145 
2038	 5.29976296063927E-02 
2039	 5.38156921318276E-02 
2040	 5.45113553379522E-02 
2041	 5.49114361931256E-02 
2042	 5.53855811326876E-02 
2043	 5.56844541071797E-02 
2044	 5.57098203403064E-02 
2045	 5.58557271896021E-02 
2046	 5.60173578659847E-02 
2047	 5.63868148339733E-02 
2048	 5.67782148426954E-02 
2049	 5.72315455663269E-02 
2050	 5.81964373356481E-02 
2051	 5.85798070272401E-02 
2052	 5.85219633891124E-02 
2053	 5.89617963753971E-02 
2054	 5.93415144628221E-02 
2055	 0.060035971208663 
2056	 6.08604115816534E-02 
2057	 6.17131127811845E-02 
2058	 6.21148849368415E-02 
2059	 6.21952681615084E-02 
2060	 6.16481138556541E-02 
2061	 0.061685959290323 
2062	 6.19891689497996E-02 
2063	 0.062743350396633 
2064	 6.46005891151532E-02 
2065	 0.066104381837056 
2066	 6.65853183157186E-02 
2067	 0.066877461197642 
2068	 6.69795576173649E-02 
2069	 6.70350378797934E-02 
2070	 6.71147622312247E-02 
2071	 6.72543167754045E-02 
2072	 6.76141484957226E-02 
2073	 6.79854363550724E-02 
2074	 6.81884551960544E-02 
2075	 6.87268404370972E-02 
2076	 6.94114621353153E-02 
2077	 6.95540232952953E-02 
2078	 6.97712029399504E-02 
2079	 0.070253775628833 
2080	 7.06723982368069E-02 
2081	 7.12595393113238E-02 
2082	 7.21214948693492E-02 
2083	 0.072655513446538 
2084	 7.27760789523541E-02 
2085	 7.29283199798274E-02 
2086	 7.32447076261789E-02 
2087	 7.37533669114172E-02 
2088	 7.43773213100349E-02 
2089	 7.54051089978883E-02 
2090	 7.67991711135074E-02 
2091	 7.73088454695794E-02 
2092	 7.72530347159551E-02 
2093	 7.76432930253357E-02 
2094	 0.077688571170672 
2095	 7.78186893206969E-02 
2096	 7.87721917214932E-02 
2097	 7.99725015414158E-02 
2098	 8.06102839010021E-02 
2099	 8.12455266306046E-02 
2100	 8.16748113635608E-02 
2101	 8.14516178369578E-02 
2102	 8.17610127363356E-02 
2103	 8.22402781327872E-02 
2104	 8.28462419379457E-02 
2105	 8.35643191538478E-02 
2106	 8.43372110501958E-02 
2107	 8.45283725528664E-02 
2108	 8.49967835282303E-02 
2109	 8.55146584209759E-02 
2110	 8.56724204195571E-02 
2111	 8.59924114547165E-02 
2112	 8.63116121735774E-02 
2113	 8.66984786233763E-02 
2114	 8.71374400056407E-02 
2115	 8.73074445232839E-02 
2116	 8.76934013227458E-02 
2117	 8.81598500651003E-02 
2118	 8.84245342993357E-02 
2119	 8.90251729905864E-02 
2120	 9.01685594371524E-02 
2121	 9.07849703362762E-02 
2122	 9.12151586122471E-02 
2123	 9.14381761191235E-02 
2124	 9.16101859611085E-02 
2125	 9.18361763336039E-02 
2126	 0.091753778292326 
2127	 9.23300353274055E-02 
2128	 9.27162289406099E-02 
2129	 9.32440947224957E-02 
2130	 9.44446078927987E-02 
2131	 9.47858567551164E-02 
2132	 9.53671366331391E-02 
2133	 9.60115880743543E-02 
2134	 9.63407446069244E-02 
2135	 9.62425189597332E-02 
2136	 9.67300860911503E-02 
2137	 9.69788694609786E-02 
2138	 9.68945433610556E-02 
2139	 9.71331524275121E-02 
2140	 9.73839214618873E-02 
2141	 9.77930248339988E-02 
2142	 9.86307859011051E-02 
2143	 9.92377973002114E-02 
2144	 9.94731820403979E-02 
2145	 0.099328470966525 
2146	 9.89540416120949E-02 
2147	 0.099430629767451 
2148	 0.10002096074946 
2149	 0.100601429658852 
2150	 0.101406218888903 
2151	 0.101798424874382 
2152	 0.101444986149257 
2153	 0.10182542976769 
2154	 0.102483266515374 
2155	 0.102897821008614 
2156	 0.103483260558352 
2157	 0.103612705442206 
2158	 0.103402209507149 
2159	 0.103021320244161 
2160	 0.103298309664129 
2161	 0.103681040601114 
2162	 0.103830638065649 
2163	 0.104496912428874 
2164	 0.104999911729838 
2165	 0.104936443776318 
2166	 0.105366420761444 
2167	 0.106143838108004 
2168	 0.106332427134259 
2169	 0.1061928754201 
2170	 0.106301481017339 
2171	 0.106298343659572 
2172	 0.105763556244668 
2173	 0.106108399671548 
2174	 0.106299062319464 
2175	 0.105994836142149 
2176	 0.10622279487103 
2177	 0.106719653470714 
2178	 0.106837112136576 
2179	 0.107528859375813 
2180	 0.108843982307087 
2181	 0.109053566493096 
2182	 0.109308766206859 
2183	 0.109406596848444 
2184	 0.108669672980916 
2185	 0.108383592412876 
2186	 0.10793688496244 
2187	 0.10783767456364 
2188	 0.108143006500488 
2189	 0.108407762587283 
2190	 0.108668560271756 
2191	 0.109448684110705 
2192	 0.109900079290003 
2193	 0.110156132219352 
2194	 0.110532600039986 
2195	 0.110795974217402 
2196	 0.111005760955576 
2197	 0.11115063690313 
2198	 0.110863573402407 
2199	 0.110296733877913 
2200	 0.110070329070248 
2201	 0.110050705538489 
2202	 0.110031859145823 
2203	 0.110403204509947 
2204	 0.11078426919199 
2205	 0.110835584383742 
2206	 0.111156751536158 
2207	 0.111214710269972 
2208	 0.111074629439476 
2209	 0.110617991492507 
2210	 0.110444085758246 
2211	 0.110185209077707 
2212	 0.110036706058484 
2213	 0.110099413941182 
2214	 0.109976901277348 
2215	 0.110145202948165 
2216	 0.110599050254054 
2217	 0.110791759632561 
2218	 0.111457575668536 
2219	 0.112041051441424 
2220	 0.111788890143714 
2221	 0.111702261687728 
2222	 0.111439583254353 
2223	 0.110484762644666 
2224	 0.109917850293112 
2225	 0.109899651534922 
2226	 0.10987330755927 
2227	 0.109860567650143 
2228	 0.109484609510647 
2229	 0.109079514709101 
2230	 0.10883377141521 
2231	 0.108881103233494 
2232	 0.109898842954238 
2233	 0.110268758763542 
2234	 0.110470726437102 
2235	 0.11043937779246 
2236	 0.11042737686961 
2237	 0.109717007086894 
2238	 0.109448709924019 
2239	 0.109121593571651 
2240	 0.108825474526781 
2241	 0.108818940011785 
2242	 0.108743844138302 
2243	 0.108885684806087 
2244	 0.108485282812854 
2245	 0.10794640024467 
2246	 0.107156081832766 
2247	 0.10596083965059 
2248	 0.104906220740725 
2249	 0.103992613251256 
2250	 0.103770111833863 
2251	 0.103617038791405 
2252	 0.103395991622583 
2253	 0.103308620840771 
2254	 0.102492738462628 
2255	 0.101829752442393 
2256	 0.101645770721845 
2257	 0.101915816191763 
2258	 0.101648278582038 
2259	 0.101762129925089 
2260	 0.101958328127557 
2261	 0.101225593794673 
2262	 0.100541655657411 
2263	 9.96419453564328E-02 
2264	 9.90156321499263E-02 
2265	 9.92661125780325E-02 
2266	 9.87622718203951E-02 
2267	 9.80061918739809E-02 
2268	 9.78987500301033E-02 
2269	 0.096746319780785 
2270	 9.63424319695594E-02 
2271	 9.72361791866758E-02 
2272	 9.68605990473079E-02 
2273	 0.096482146332233 
2274	 9.61609200645439E-02 
2275	 9.52258363852381E-02 
2276	 0.094946661366136 
2277	 0.094516916218894 
2278	 9.33633948565856E-02 
2279	 9.26417768391527E-02 
2280	 9.16968220943523E-02 
2281	 9.07789837316639E-02 
2282	 0.091203313858171 
2283	 0.091965367496856 
2284	 9.27172443256902E-02 
2285	 9.35507436324444E-02 
2286	 9.35997202125051E-02 
2287	 9.29901620167065E-02 
2288	 9.17520079666783E-02 
2289	 9.07622870619683E-02 
2290	 9.01604007654682E-02 
2291	 8.97285545980078E-02 
2292	 8.96122719010399E-02 
2293	 0.089640242148177 
2294	 8.87560297403347E-02 
2295	 8.72723106505111E-02 
2296	 8.65972144727426E-02 
2297	 8.61596456661215E-02 
2298	 8.54919977145618E-02 
2299	 8.54500484133842E-02 
2300	 8.52597147965806E-02 
2301	 8.47881748046367E-02 
2302	 8.52094403170395E-02 
2303	 8.47546305812732E-02 
2304	 8.34272206791692E-02 
2305	 8.20306490968558E-02 
2306	 7.99008195333876E-02 
2307	 7.95835597335448E-02 
2308	 8.05661506841601E-02 
2309	 8.16612381416794E-02 
2310	 8.27924644905499E-02 
2311	 8.18279463031799E-02 
2312	 8.03057153036106E-02 
2313	 7.91565092171792E-02 
2314	 7.73541102685759E-02 
2315	 7.71051447049877E-02 
2316	 7.75553351901147E-02 
2317	 7.69652375264569E-02 
2318	 7.71315896432549E-02 
2319	 7.72675615086454E-02 
2320	 7.79256665585224E-02 
2321	 7.85317086251698E-02 
2322	 0.079876971429071 
2323	 7.96186475229325E-02 
2324	 7.88597008750205E-02 
2325	 0.077356945897814 
2326	 7.53961129985756E-02 
2327	 7.45911269600417E-02 
2328	 7.38169102181142E-02 
2329	 7.40514677330882E-02 
2330	 7.39087487325909E-02 
2331	 7.29601714869159E-02 
2332	 7.35521022973893E-02 
2333	 7.34168160187069E-02 
2334	 7.35763242334469E-02 
2335	 7.44847260762172E-02 
2336	 7.35957178075395E-02 
2337	 7.21543099670363E-02 
2338	 7.13721199300862E-02 
2339	 7.07956944537918E-02 
2340	 7.07427751020926E-02 
2341	 7.17044695131054E-02 
2342	 7.18990598645778E-02 
2343	 7.02924651485372E-02 
2344	 6.99901000138761E-02 
2345	 7.05996520322127E-02 
2346	 6.91673131250288E-02 
2347	 6.81169800087419E-02 
2348	 0.066738777475374 
2349	 0.064321447158049 
2350	 6.36234207940297E-02 
2351	 6.50848024705671E-02 
2352	 6.72681023121727E-02 
2353	 6.78227288052762E-02 
2354	 6.73743484744211E-02 
2355	 6.67232074328022E-02 
2356	 6.48366511921675E-02 
2357	 6.29854423901457E-02 
2358	 6.31654798266818E-02 
2359	 6.29245196968417E-02 
2360	 6.28065182838033E-02 
2361	 6.38340156972918E-02 
2362	 6.36616932599678E-02 
2363	 6.35609831396571E-02 
2364	 0.063403483753168 
2365	 6.26818747297944E-02 
2366	 6.21160784706166E-02 
2367	 6.19436311958424E-02 
2368	 6.15947281548977E-02 
2369	 6.12499006978657E-02 
2370	 6.09322916387405E-02 
2371	 6.00641608641034E-02 
2372	 5.93670277293748E-02 
2373	 5.81091961228936E-02 
2374	 5.80268391344067E-02 
2375	 5.94411631262606E-02 
2376	 5.93894718734931E-02 
2377	 5.98959889469402E-02 
2378	 5.97338547004932E-02 
2379	 5.64029016761212E-02 
2380	 5.59215904820858E-02 
2381	 5.81704398040657E-02 
2382	 5.76112804641138E-02 
2383	 0.057218266584988 
2384	 5.66856706434718E-02 
2385	 5.33863957868327E-02 
2386	 5.18426869922774E-02 
2387	 5.28339411237552E-02 
2388	 5.22936333508161E-02 
2389	 5.02918279811152E-02 
2390	 4.94056459475462E-02 
2391	 4.71712417459804E-02 
2392	 4.77126494787393E-02 
2393	 0.052101964930123 
2394	 5.38563174736259E-02 
2395	 5.73268028952076E-02 
2396	 5.74185105950959E-02 
2397	 5.32064086652965E-02 
2398	 5.11303624948278E-02 
2399	 4.74468285272819E-02 
2400	 4.50891375734116E-02 
2401	 4.44199797257247E-02 
2402	 4.24439894636173E-02 
2403	 4.27170042100793E-02 
2404	 4.45479908740297E-02 
2405	 4.50848949193491E-02 
2406	 0.04761819885084 
2407	 4.57323876162124E-02 
2408	 4.36571521100353E-02 
2409	 0.045409605742155 
2410	 4.36617597487726E-02 
2411	 4.27278509246636E-02 
2412	 4.54647688823061E-02 
2413	 4.67678206561601E-02 
2414	 4.74738371288635E-02 
2415	 0.048724234421033 
2416	 0.049684407323974 
2417	 4.85032042579751E-02 
2418	 4.84339403363787E-02 
2419	 4.88617123354872E-02 
2420	 4.70302094484399E-02 
2421	 4.62608785697323E-02 
2422	 4.57513573285178E-02 
2423	 4.57015400190544E-02 
2424	 4.27750434505313E-02 
2425	 4.00728625009042E-02 
2426	 3.88421939919352E-02 
2427	 0.037534894624605 
2428	 4.21400718073478E-02 
2429	 0.045860199649552 
2430	 4.27980305232307E-02 
2431	 3.79556407661608E-02 
2432	 3.45114097307601E-02 
2433	 3.17740550683877E-02 
2434	 3.20661271633611E-02 
2435	 3.74523472520087E-02 
2436	 3.86382670257551E-02 
2437	 4.11816386503209E-02 
2438	 4.09298087353971E-02 
2439	 3.54372795483018E-02 
2440	 3.42952107449962E-02 
2441	 3.04180840085202E-02 
2442	 0.029288879368971 
2443	 3.49745273372718E-02 
2444	 3.73743861179596E-02 
2445	 4.25910628352815E-02 
2446	 4.45041687010801E-02 
2447	 4.23974812221544E-02 
2448	 4.08183892991552E-02 
2449	 3.54598462542265E-02 
2450	 3.08989758647452E-02 
2451	 2.47774792999286E-02 
2452	 2.08950537846215E-02 
2453	 1.89258566336307E-02 
2454	 2.09168988937749E-02 
2455	 2.66733698669846E-02 
2456	 3.12580856077011E-02 
2457	 3.83234124782072E-02 
2458	 4.03022803476414E-02 
2459	 4.00619941800361E-02 
2460	 4.00987923526329E-02 
2461	 3.87173264753008E-02 
2462	 3.66357136751001E-02 
2463	 3.29150448389856E-02 
2464	 3.03239770905134E-02 
2465	 2.67963624527788E-02 
2466	 2.31173048418206E-02 
2467	 0.01825431845371 
2468	 1.99523254563616E-02 
2469	 2.38625827210183E-02 
2470	 2.81776454546161E-02 
2471	 3.89182122878063E-02 
2472	 4.88936826352842E-02 
2473	 0.063306431878443 
2474	 7.09973056456444E-02 
2475	 8.00836419780523E-02 
2476	 8.25594227752391E-02 
2477	 0.069045494005583 
2478	 6.49044343145903E-02 
2479	 6.55898080455581E-02 
2480	 5.91199778151552E-02 
2481	 0.045064460215822 
2482	 3.36598944285677E-02 
2483	 2.05620016702267E-02 
2484	 8.44233718681937E-03 
2485	 2.62674789641757E-03 
2486	-7.01854379998427E-03 
2487	-5.62775172560808E-02 
2488	-5.16478866640904E-02 
2489	-9.24135753227181E-03 
2490	 9.32769515822373E-03 
2491	 4.03277662714591E-02 
2492	 7.99554154666766E-02 
2493	 7.39971648038791E-02 
2494	 5.11154255670015E-02 
2495	 7.71816343701003E-02 
2496	 7.24221302932498E-02 
2497	 6.41461947794644E-02 
2498	 9.03539652784243E-02 
2499	 9.01945103925653E-02 
2500	 6.20859418390078E-02 
