Wavelength	ref00141.asd
350	 6.25022630436636 
351	 6.30168397249162 
352	 6.54091381227223 
353	 6.44200675539586 
354	 6.56705143332731 
355	 6.73567300697158 
356	 6.74805009268841 
357	 6.665419500654 
358	 6.80333699571824 
359	 6.92022932909567 
360	 6.75267766113298 
361	 6.75409843319368 
362	 6.85456744666763 
363	 6.95569972672074 
364	 6.96373539904914 
365	 6.98596928604843 
366	 7.01104594594862 
367	 7.04068266567519 
368	 7.11705887921788 
369	 7.1093385743674 
370	 7.11054041267273 
371	 7.18235569758777 
372	 7.12645576002145 
373	 7.05264930292975 
374	 7.04275911013838 
375	 7.13140734669984 
376	 7.12695094492526 
377	 7.0909140456287 
378	 7.07865560464835 
379	 7.10566869157901 
380	 7.0812452062193 
381	 7.03793280974946 
382	 7.01978176274699 
383	 7.02767218906404 
384	 7.05360431041718 
385	 7.0723923052167 
386	 7.05731391794474 
387	 7.03082081865357 
388	 6.93081618337868 
389	 6.84124270886454 
390	 6.9598989817819 
391	 6.93550372134869 
392	 6.8996451435643 
393	 6.95142187631954 
394	 6.92626561740976 
395	 6.87476084582027 
396	 6.84429355181896 
397	 6.85490615516626 
398	 6.79536897776451 
399	 6.78097387852566 
400	 6.79244540141134 
401	 6.71372114104861 
402	 6.71868104903212 
403	 6.7327668595424 
404	 6.70180654574816 
405	 6.68061066859646 
406	 6.64600064059574 
407	 6.61853189848107 
408	 6.61809974601656 
409	 6.5947834785612 
410	 6.57087839183223 
411	 6.54633978141542 
412	 6.50369642755563 
413	 6.48760144765544 
414	 6.48913945804538 
415	 6.4846583500754 
416	 6.43558741946622 
417	 6.40471822217852 
418	 6.39404985041821 
419	 6.38353054821301 
420	 6.35420533373277 
421	 6.32994566539345 
422	 6.31506578689107 
423	 6.29653690107224 
424	 6.28384568434792 
425	 6.26854775950949 
426	 6.25159484848205 
427	 6.26205642623524 
428	 6.25460575719523 
429	 6.23065540033924 
430	 6.20594850785422 
431	 6.17513328747782 
432	 6.14389024458207 
433	 6.11809776219166 
434	 6.10246173971036 
435	 6.09046781283527 
436	 6.08333634678807 
437	 6.07530592393793 
438	 6.04035872152685 
439	 6.02747446126298 
440	 6.01703384542148 
441	 5.97890182693932 
442	 5.95943318812553 
443	 5.93989425078955 
444	 5.91659730197387 
445	 5.90172859879418 
446	 5.87754095668532 
447	 5.85804002677666 
448	 5.84876705750956 
449	 5.82261279756795 
450	 5.79182957402394 
451	 5.76835751020677 
452	 5.75833785904839 
453	 5.7326602528771 
454	 5.70603749229853 
455	 5.68396509181528 
456	 5.65789407041283 
457	 5.63009152851917 
458	 5.60126861249748 
459	 5.57238469786579 
460	 5.54616462249515 
461	 5.51905815121608 
462	 5.49328932371319 
463	 5.47324062917503 
464	 5.45449992635249 
465	 5.4305742704879 
466	 5.402595031693 
467	 5.38254766345772 
468	 5.36209570055367 
469	 5.34124625519062 
470	 5.32118026539516 
471	 5.29954661808772 
472	 5.2740953124313 
473	 5.24997111477436 
474	 5.23561734203339 
475	 5.21725953621605 
476	 5.20170691874025 
477	 5.19052802583473 
478	 5.17021054002609 
479	 5.15502201377238 
480	 5.14415856212285 
481	 5.13294658717908 
482	 5.12390630289724 
483	 5.11952650373199 
484	 5.1160607311003 
485	 5.10435054744464 
486	 5.09306719508619 
487	 5.08044406574756 
488	 5.06591769748995 
489	 5.05720726140846 
490	 5.04404970884449 
491	 5.03034962564575 
492	 5.02394095957903 
493	 5.01852609290051 
494	 5.00901149286399 
495	 4.99595729566931 
496	 4.98639823328061 
497	 4.98019091800334 
498	 4.97387563209664 
499	 4.96508330905552 
500	 4.95911733936694 
501	 4.94438906065444 
502	 4.92390173466483 
503	 4.90887797748769 
504	 4.89708106778027 
505	 4.88150183352571 
506	 4.86313118179624 
507	 4.856746010627 
508	 4.84335368564185 
509	 4.82652191344447 
510	 4.81442746022525 
511	 4.80483292906666 
512	 4.78665357482591 
513	 4.76424856899858 
514	 4.75375713047832 
515	 4.74237002926264 
516	 4.73132000366496 
517	 4.72132146003697 
518	 4.70671734869475 
519	 4.68637203591111 
520	 4.66574256656434 
521	 4.65052809839258 
522	 4.63165975898583 
523	 4.6167022784825 
524	 4.60735937532666 
525	 4.59819932424244 
526	 4.58560786242089 
527	 4.57086841273113 
528	 4.55727026744328 
529	 4.55022566931385 
530	 4.54182397079727 
531	 4.53279167809303 
532	 4.52757374579996 
533	 4.51782088800092 
534	 4.50891709270755 
535	 4.50321249249476 
536	 4.4959579493363 
537	 4.48253980173378 
538	 4.47211055102222 
539	 4.4723444641548 
540	 4.46504614957423 
541	 4.45532687806496 
542	 4.44628971371903 
543	 4.43851826692034 
544	 4.43207252929371 
545	 4.42527420706185 
546	 4.41768723980458 
547	 4.41241003659724 
548	 4.40711490320681 
549	 4.4018525794378 
550	 4.39691120928413 
551	 4.38798933172352 
552	 4.37847165142584 
553	 4.37081649236776 
554	 4.36568382453931 
555	 4.35148290508357 
556	 4.33611016941981 
557	 4.32685554312927 
558	 4.31290055430931 
559	 4.29833661613268 
560	 4.2848065520543 
561	 4.27224098159209 
562	 4.26197163800802 
563	 4.24843956456338 
564	 4.23173453156809 
565	 4.22336006335612 
566	 4.21441774198248 
567	 4.20202135231461 
568	 4.18672473445379 
569	 4.17504473003733 
570	 4.164940170088 
571	 4.15441292247721 
572	 4.14203944034305 
573	 4.13044278919568 
574	 4.11811249858718 
575	 4.10416172858045 
576	 4.09134804172801 
577	 4.07867699738903 
578	 4.06701083944566 
579	 4.05754414312188 
580	 4.04808588930497 
581	 4.0391934161535 
582	 4.03166754206423 
583	 4.02630615589906 
584	 4.0192724567751 
585	 4.01085122159818 
586	 4.00240790206203 
587	 3.99443604560212 
588	 3.98674557607332 
589	 3.97938560468346 
590	 3.97276928444165 
591	 3.96725821564234 
592	 3.96587489675509 
593	 3.9676149251739 
594	 3.9639019873197 
595	 3.96263975262673 
596	 3.96387471323613 
597	 3.96475066509321 
598	 3.96209247102791 
599	 3.95926989682216 
600	 3.9575438952318 
601	 3.95580314469 
602	 3.95458440032697 
603	 3.95384587542025 
604	 3.9537463678005 
605	 3.95562195510209 
606	 3.9554363636853 
607	 3.95527556100261 
608	 3.95894159098135 
609	 3.95854144649512 
610	 3.95531513711129 
611	 3.95150064509321 
612	 3.94928214059827 
613	 3.94860132619809 
614	 3.94762568553866 
615	 3.94488789167829 
616	 3.94239177435486 
617	 3.93896736074363 
618	 3.93451868249869 
619	 3.92959642433105 
620	 3.92324291367181 
621	 3.91642658823236 
622	 3.91002386236948 
623	 3.9043556544766 
624	 3.89890681990198 
625	 3.89206564347485 
626	 3.88294607560001 
627	 3.87577122547927 
628	 3.8685303281347 
629	 3.86110317437591 
630	 3.85537942430719 
631	 3.84967225312127 
632	 3.84290812522684 
633	 3.8356064108993 
634	 3.8317201700878 
635	 3.82977805093312 
636	 3.8280045099265 
637	 3.82518020704486 
638	 3.8254428624267 
639	 3.82652067677983 
640	 3.8270858975055 
641	 3.82766401784764 
642	 3.82954089583023 
643	 3.83239694969129 
644	 3.83500518070292 
645	 3.83455406591721 
646	 3.83468792699992 
647	 3.83553057857101 
648	 3.83551178844834 
649	 3.83929403264971 
650	 3.84374709879994 
651	 3.84584686325037 
652	 3.84447061770377 
653	 3.84374202160024 
654	 3.84528086968505 
655	 3.8495740056834 
656	 3.85581758945751 
657	 3.86150876864562 
658	 3.86596348892637 
659	 3.87125985497126 
660	 3.87966816099771 
661	 3.88823397561483 
662	 3.8952880574058 
663	 3.90351263343771 
664	 3.91305371320746 
665	 3.92226091440636 
666	 3.92978225599384 
667	 3.93897180527996 
668	 3.94886507677335 
669	 3.95804308888958 
670	 3.96525048838702 
671	 3.97371200647671 
672	 3.98143742844944 
673	 3.98704289185388 
674	 3.9929651112056 
675	 3.99934872150599 
676	 4.00393332224833 
677	 4.00498554023166 
678	 4.00980134971748 
679	 4.01496236262762 
680	 4.0172210025103 
681	 4.01457869681353 
682	 4.01290085889816 
683	 4.00694116496161 
684	 3.99384759762414 
685	 3.98215151126585 
686	 3.97042151196335 
687	 3.95472234365888 
688	 3.93311886046615 
689	 3.91769766077785 
690	 3.89825527761921 
691	 3.8718105666456 
692	 3.84541109026155 
693	 3.81485091303766 
694	 3.78486956595832 
695	 3.76041850895771 
696	 3.74253564989702 
697	 3.7258826614103 
698	 3.70592640059542 
699	 3.68068341154866 
700	 3.65962935919193 
701	 3.63907119603305 
702	 3.61846892584324 
703	 3.60192452465771 
704	 3.5875790464486 
705	 3.57321563662051 
706	 3.55755588018665 
707	 3.54202913582671 
708	 3.52851246139818 
709	 3.51554194630948 
710	 3.50085771057735 
711	 3.48775028922598 
712	 3.47354108927436 
713	 3.45820479404742 
714	 3.44488397119757 
715	 3.42524137027916 
716	 3.39968684263752 
717	 3.37067423508189 
718	 3.34211473161052 
719	 3.32500449470026 
720	 3.31926015895216 
721	 3.31671552797638 
722	 3.31326287598575 
723	 3.30026714306896 
724	 3.2791280185081 
725	 3.26361848609233 
726	 3.25114190185434 
727	 3.24080174574407 
728	 3.23149223392828 
729	 3.22243440453793 
730	 3.21323088486334 
731	 3.20643208140877 
732	 3.20429387520102 
733	 3.203008196853 
734	 3.1980702040643 
735	 3.18936792452763 
736	 3.18069556804243 
737	 3.17309626531643 
738	 3.16587035840911 
739	 3.15850854985475 
740	 3.15200683991381 
741	 3.14665213451567 
742	 3.14063668146439 
743	 3.13245111487701 
744	 3.12482505512862 
745	 3.11694281323418 
746	 3.10945236926781 
747	 3.10377654033445 
748	 3.09647513609461 
749	 3.08824187444021 
750	 3.0802318604739 
751	 3.07335157082061 
752	 3.06608608392978 
753	 3.05947266341806 
754	 3.05392352729762 
755	 3.04517127266814 
756	 3.03687664225579 
757	 3.02893600178489 
758	 3.01942133015358 
759	 3.01345022023801 
760	 3.00479404210322 
761	 2.98986355879888 
762	 2.98013088182888 
763	 2.97752909098978 
764	 2.97423865207302 
765	 2.96793315550227 
766	 2.96756861531334 
767	 2.96263562955954 
768	 2.95575152739162 
769	 2.95137110714127 
770	 2.94494526438596 
771	 2.93794837663298 
772	 2.93179801644321 
773	 2.92717842239375 
774	 2.91936097665827 
775	 2.91218850336438 
776	 2.90734066083579 
777	 2.90070492833524 
778	 2.89368745702493 
779	 2.88716236569495 
780	 2.88149921406563 
781	 2.87551548505162 
782	 2.86970898793469 
783	 2.86407465265693 
784	 2.85814200678969 
785	 2.85038389390063 
786	 2.84224018667029 
787	 2.8344749524591 
788	 2.82685580493769 
789	 2.81844955788897 
790	 2.81124586551499 
791	 2.80603282650465 
792	 2.80009528141797 
793	 2.79468945287776 
794	 2.78939740388235 
795	 2.78319273805495 
796	 2.77436169589639 
797	 2.76761049419902 
798	 2.76281624855348 
799	 2.75707738785316 
800	 2.75072142398738 
801	 2.74374609769893 
802	 2.73707326600556 
803	 2.73234558482286 
804	 2.7277570454432 
805	 2.7227573196529 
806	 2.71740626959033 
807	 2.71250515775443 
808	 2.70562447069336 
809	 2.6981034125036 
810	 2.69112677229383 
811	 2.68030073601883 
812	 2.66867516043235 
813	 2.65691344814527 
814	 2.64465496466418 
815	 2.63459533303442 
816	 2.62566193969293 
817	 2.61821063503569 
818	 2.61415280643057 
819	 2.61266059498836 
820	 2.61227850214943 
821	 2.61068261706732 
822	 2.60430299711404 
823	 2.59808057491134 
824	 2.59339391973235 
825	 2.59030152781384 
826	 2.58808002679585 
827	 2.5850111639948 
828	 2.58084605567821 
829	 2.57606422085299 
830	 2.57004836488087 
831	 2.56660963187001 
832	 2.56506728320627 
833	 2.56173494977288 
834	 2.55864216626889 
835	 2.55625999933848 
836	 2.55427477390279 
837	 2.55171020194442 
838	 2.54951781717839 
839	 2.5463251655316 
840	 2.54155779143183 
841	 2.53686979133128 
842	 2.53429313647331 
843	 2.53127205104155 
844	 2.52579636502605 
845	 2.52237529608828 
846	 2.51794899489906 
847	 2.51342457807311 
848	 2.51053751527051 
849	 2.50576908465996 
850	 2.49989457681513 
851	 2.49463351538413 
852	 2.49183947642237 
853	 2.49059308919143 
854	 2.48697716224307 
855	 2.48004261501172 
856	 2.4728331483829 
857	 2.46932282825464 
858	 2.46594263772142 
859	 2.46104107967287 
860	 2.45804869616088 
861	 2.45223740625959 
862	 2.44731607432807 
863	 2.44617062815339 
864	 2.44463787361013 
865	 2.44048579021294 
866	 2.43619655580248 
867	 2.43397855202009 
868	 2.42761623574987 
869	 2.42194397062008 
870	 2.41811580657153 
871	 2.41499635268811 
872	 2.41063478443159 
873	 2.40791918426687 
874	 2.40529964250789 
875	 2.3990158894226 
876	 2.39446106754751 
877	 2.390747788445 
878	 2.38686361062379 
879	 2.38246017119339 
880	 2.3789276891358 
881	 2.37457952155894 
882	 2.36981221438339 
883	 2.36800443850944 
884	 2.36321819253958 
885	 2.35865546692 
886	 2.35641211021465 
887	 2.3532871542987 
888	 2.34819907327847 
889	 2.34258077637427 
890	 2.33761111710374 
891	 2.33210951109633 
892	 2.32397791941198 
893	 2.31484380194407 
894	 2.30669427594936 
895	 2.29763457400109 
896	 2.29213637633003 
897	 2.28684071546631 
898	 2.27773400762176 
899	 2.27413377806352 
900	 2.27142306500364 
901	 2.26740271718351 
902	 2.26266188603899 
903	 2.26345329389424 
904	 2.2597571513488 
905	 2.25319893384155 
906	 2.25179761013253 
907	 2.25211075091029 
908	 2.24437780925696 
909	 2.23265543220401 
910	 2.23046688091995 
911	 2.22547627244736 
912	 2.221146797481 
913	 2.21786648755739 
914	 2.21238743138721 
915	 2.21079959772397 
916	 2.20770508445372 
917	 2.20413375728478 
918	 2.20823444034451 
919	 2.20689512528146 
920	 2.2046401220394 
921	 2.20353963878628 
922	 2.19952092489872 
923	 2.19921890304612 
924	 2.19514129438148 
925	 2.18538709943763 
926	 2.17990111655529 
927	 2.16870799222228 
928	 2.15805253316107 
929	 2.15102143329386 
930	 2.138341160178 
931	 2.1278577269473 
932	 2.11581554901664 
933	 2.10009750579844 
934	 2.08838453244019 
935	 2.08533781337859 
936	 2.07862699165208 
937	 2.06593172072373 
938	 2.0704345517279 
939	 2.07070349075074 
940	 2.07212236249362 
941	 2.07834171942045 
942	 2.07844375832318 
943	 2.07867066347253 
944	 2.08189656530463 
945	 2.08404750468843 
946	 2.06860528723235 
947	 2.06808470537526 
948	 2.06750045566342 
949	 2.05745681434333 
950	 2.06587486417213 
951	 2.07024257930637 
952	 2.07109292324773 
953	 2.07092896674377 
954	 2.06412230246149 
955	 2.06409337883392 
956	 2.07049694013951 
957	 2.0773574214718 
958	 2.07626952006345 
959	 2.07415819115466 
960	 2.07867313846838 
961	 2.08810440426196 
962	 2.08520412392646 
963	 2.09301615404308 
964	 2.09566249300951 
965	 2.08901055009472 
966	 2.10090875548617 
967	 2.10412709499186 
968	 2.10333026077687 
969	 2.10340043668712 
970	 2.09929160215339 
971	 2.10424633730977 
972	 2.10578024859536 
973	 2.10100698169529 
974	 2.10639636172557 
975	 2.10046298652562 
976	 2.09274153518007 
977	 2.09231585775375 
978	 2.09836154970911 
979	 2.09677230780439 
980	 2.09407958049039 
981	 2.09537348203617 
982	 2.09858541419653 
983	 2.08734902066352 
984	 2.08448993556402 
985	 2.09330032577909 
986	 2.09597220118202 
987	 2.09773624599015 
988	 2.09224426266958 
989	 2.08382821141814 
990	 2.08323294362723 
991	 2.08402160130502 
992	 2.08684549641848 
993	 2.09130661246932 
994	 2.09507893096654 
995	 2.09231925116765 
996	 2.08256793639893 
997	 2.07629792264512 
998	 2.08076748052463 
999	 2.07097485839211 
1000	 2.06359287192531 
1001	 2.0924723439562 
1002	 2.09018993338372 
1003	 2.08777187149911 
1004	 2.08567597697591 
1005	 2.08305758951988 
1006	 2.08068871917553 
1007	 2.07799336738192 
1008	 2.07463611580903 
1009	 2.07146310170352 
1010	 2.06859628145789 
1011	 2.06537028736405 
1012	 2.0610809422803 
1013	 2.05788095856343 
1014	 2.05536231768958 
1015	 2.05247467158492 
1016	 2.05006523910697 
1017	 2.04770051505077 
1018	 2.04513843059318 
1019	 2.04233896452336 
1020	 2.03964089436603 
1021	 2.03708298672928 
1022	 2.03423445974054 
1023	 2.03145647855211 
1024	 2.02772685951475 
1025	 2.02438968352815 
1026	 2.02145266005732 
1027	 2.0183605587088 
1028	 2.01623396024328 
1029	 2.01368968969286 
1030	 2.01027624878767 
1031	 2.00731471919281 
1032	 2.00402791273528 
1033	 2.00076607176298 
1034	 1.99766228727738 
1035	 1.99462291628059 
1036	 1.99110890354374 
1037	 1.9880392069478 
1038	 1.98538531820664 
1039	 1.98247138945275 
1040	 1.97910147421167 
1041	 1.97610884637347 
1042	 1.97319395296636 
1043	 1.97049006472466 
1044	 1.96839943627635 
1045	 1.96624795371042 
1046	 1.96317742100791 
1047	 1.95978262068749 
1048	 1.95631841871938 
1049	 1.9538217349462 
1050	 1.95148614090576 
1051	 1.94994511324293 
1052	 1.94753800262951 
1053	 1.94532822729698 
1054	 1.94297653692307 
1055	 1.94047187982349 
1056	 1.93895938865916 
1057	 1.93714543577952 
1058	 1.93540100473657 
1059	 1.93413120892895 
1060	 1.93176923892578 
1061	 1.92945963068368 
1062	 1.92748002512571 
1063	 1.92544946768805 
1064	 1.92447448305996 
1065	 1.92294015588264 
1066	 1.92177548131692 
1067	 1.92008383269768 
1068	 1.9179302418162 
1069	 1.91512195257707 
1070	 1.91355430197883 
1071	 1.91236662447388 
1072	 1.91048157999192 
1073	 1.90918090590059 
1074	 1.90728841766767 
1075	 1.90430092185628 
1076	 1.90167914350171 
1077	 1.8995609316578 
1078	 1.89776259209914 
1079	 1.89640548782754 
1080	 1.8954815544651 
1081	 1.89386998729563 
1082	 1.89188193719539 
1083	 1.88904065394671 
1084	 1.88689658850912 
1085	 1.8851726141552 
1086	 1.88321829625634 
1087	 1.8816729978416 
1088	 1.87978442533732 
1089	 1.87645566541704 
1090	 1.87292800170579 
1091	 1.87004298699473 
1092	 1.86700995059622 
1093	 1.86412631185759 
1094	 1.86122087183114 
1095	 1.85776074318696 
1096	 1.85458849199037 
1097	 1.85163591554114 
1098	 1.84803592073433 
1099	 1.84419979476857 
1100	 1.84050704127115 
1101	 1.8363650266229 
1102	 1.83225519275982 
1103	 1.8287539923355 
1104	 1.82499124638185 
1105	 1.82115217093534 
1106	 1.81702131338569 
1107	 1.81266734456421 
1108	 1.80814541297678 
1109	 1.80271908897465 
1110	 1.79664573367232 
1111	 1.78988327703425 
1112	 1.78139355173838 
1113	 1.77358389567414 
1114	 1.76515846482706 
1115	 1.75643859760614 
1116	 1.74734114217125 
1117	 1.73863652895272 
1118	 1.72950902276909 
1119	 1.71926343197508 
1120	 1.70989682242405 
1121	 1.70158324768581 
1122	 1.69429666865918 
1123	 1.68994908602847 
1124	 1.68698402267146 
1125	 1.68504884241936 
1126	 1.6850047509444 
1127	 1.68694321738623 
1128	 1.68856900960173 
1129	 1.69191870662974 
1130	 1.69485370838051 
1131	 1.69707302403184 
1132	 1.7006491386618 
1133	 1.70496430323611 
1134	 1.70991454375346 
1135	 1.71497923038169 
1136	 1.71798178786776 
1137	 1.72092241479388 
1138	 1.72273842766 
1139	 1.72349400774935 
1140	 1.72513900156337 
1141	 1.72547084086498 
1142	 1.72573172900421 
1143	 1.72628789484064 
1144	 1.72620653578783 
1145	 1.72719856222544 
1146	 1.72870397807441 
1147	 1.73062859503465 
1148	 1.73245082149874 
1149	 1.73586186026468 
1150	 1.74048236875832 
1151	 1.74486382526974 
1152	 1.74966027095381 
1153	 1.754895587792 
1154	 1.75989655988021 
1155	 1.7645658859976 
1156	 1.76939511211045 
1157	 1.77430737235471 
1158	 1.77893827082257 
1159	 1.78247202796945 
1160	 1.78588775191764 
1161	 1.78929829701393 
1162	 1.79215342599033 
1163	 1.79475060099703 
1164	 1.79669931887138 
1165	 1.79823059743943 
1166	 1.79928409666077 
1167	 1.79969658419673 
1168	 1.80013087669729 
1169	 1.80040685575622 
1170	 1.80046752571241 
1171	 1.80032870750924 
1172	 1.79990531323304 
1173	 1.79956467466455 
1174	 1.79929370346632 
1175	 1.79867697208467 
1176	 1.79771670821865 
1177	 1.79672096902831 
1178	 1.79534765071206 
1179	 1.79406629483935 
1180	 1.79268928802064 
1181	 1.7915781831627 
1182	 1.79028555783639 
1183	 1.78936015869418 
1184	 1.78877326329099 
1185	 1.78817904702092 
1186	 1.78803732944716 
1187	 1.7874854729984 
1188	 1.78658552623872 
1189	 1.78622495065417 
1190	 1.78550727758352 
1191	 1.78446827600862 
1192	 1.78407759868454 
1193	 1.78327940018494 
1194	 1.78238227996754 
1195	 1.78147323814706 
1196	 1.78032040512897 
1197	 1.77877154673843 
1198	 1.77749720069533 
1199	 1.77619131684766 
1200	 1.77486655611285 
1201	 1.77364536525181 
1202	 1.77233883259008 
1203	 1.77080963386942 
1204	 1.76956006797 
1205	 1.76851184092517 
1206	 1.76736425342928 
1207	 1.76648747172794 
1208	 1.76534470341333 
1209	 1.7638159149226 
1210	 1.76252590773116 
1211	 1.76170114392818 
1212	 1.76047985061773 
1213	 1.75939019883943 
1214	 1.75841653870344 
1215	 1.75764113493924 
1216	 1.75687565423505 
1217	 1.75613240489583 
1218	 1.75575166263104 
1219	 1.75502078834009 
1220	 1.75396478003811 
1221	 1.75309287330896 
1222	 1.75233104801291 
1223	 1.75146350984333 
1224	 1.75080524944744 
1225	 1.74962015985798 
1226	 1.74789591755601 
1227	 1.74651277723328 
1228	 1.74508058338625 
1229	 1.74331782016149 
1230	 1.74241917148545 
1231	 1.74180064316527 
1232	 1.74092909836988 
1233	 1.74025810972052 
1234	 1.73933397175296 
1235	 1.73822173649566 
1236	 1.73709516018515 
1237	 1.73584332009685 
1238	 1.73469280670833 
1239	 1.73353183762664 
1240	 1.73232737908582 
1241	 1.73119462005309 
1242	 1.72997456353575 
1243	 1.72857489004857 
1244	 1.72728956594315 
1245	 1.7260646629142 
1246	 1.72483107750988 
1247	 1.72355268222545 
1248	 1.72237740906732 
1249	 1.72144872435394 
1250	 1.72020194863758 
1251	 1.71866272244131 
1252	 1.71736329731423 
1253	 1.71610871785171 
1254	 1.71466009201142 
1255	 1.71345031425602 
1256	 1.71277494533524 
1257	 1.71136727681265 
1258	 1.70941646344027 
1259	 1.70796098042529 
1260	 1.7064313411605 
1261	 1.70492107188067 
1262	 1.70374566108686 
1263	 1.70237534828497 
1264	 1.70051967786702 
1265	 1.69923370079014 
1266	 1.69824592857573 
1267	 1.69740463120907 
1268	 1.69701624488196 
1269	 1.69651190403089 
1270	 1.69635955845806 
1271	 1.6958197355185 
1272	 1.69486542011398 
1273	 1.69420676092245 
1274	 1.69356641781843 
1275	 1.69270332927613 
1276	 1.69224947391625 
1277	 1.69222683635258 
1278	 1.69186504444482 
1279	 1.6914209740156 
1280	 1.69110386926263 
1281	 1.69067679996379 
1282	 1.69049504408714 
1283	 1.69073165588112 
1284	 1.69048544191308 
1285	 1.69000189244804 
1286	 1.68972682673621 
1287	 1.6892504686344 
1288	 1.68893389456117 
1289	 1.68905199612226 
1290	 1.6888090421269 
1291	 1.68815597538792 
1292	 1.68783205507725 
1293	 1.68778418108428 
1294	 1.68739170260273 
1295	 1.68710498161822 
1296	 1.68655651754458 
1297	 1.68592128172541 
1298	 1.68482406966994 
1299	 1.68412898891733 
1300	 1.68357421214233 
1301	 1.68297241229963 
1302	 1.68243376129385 
1303	 1.68180256455728 
1304	 1.68119972574494 
1305	 1.68047329790554 
1306	 1.67947179189984 
1307	 1.67884419657577 
1308	 1.67848107247097 
1309	 1.67783064058864 
1310	 1.67706517407381 
1311	 1.67659375998684 
1312	 1.67608427160485 
1313	 1.67560338501093 
1314	 1.67566547967168 
1315	 1.67533821043302 
1316	 1.67445459501563 
1317	 1.67391161759187 
1318	 1.67379542269386 
1319	 1.67316256967782 
1320	 1.67220707088892 
1321	 1.67157514574581 
1322	 1.67044601584705 
1323	 1.6687128454264 
1324	 1.66726089853564 
1325	 1.66593030803125 
1326	 1.66417632934026 
1327	 1.66203702850612 
1328	 1.66009852240364 
1329	 1.65758972111017 
1330	 1.6560998503505 
1331	 1.65531565189705 
1332	 1.65427678138923 
1333	 1.65369978486546 
1334	 1.65307768137027 
1335	 1.6526365228346 
1336	 1.65179857315835 
1337	 1.65150936228239 
1338	 1.65009419052788 
1339	 1.64765573986132 
1340	 1.64481197408828 
1341	 1.64102857787049 
1342	 1.63655845568823 
1343	 1.63017652601574 
1344	 1.62369961597299 
1345	 1.61564424659746 
1346	 1.60586737939401 
1347	 1.59581209003712 
1348	 1.5844073658166 
1349	 1.57112923701415 
1350	 1.55401842996066 
1351	 1.53714567823079 
1352	 1.51821483640391 
1353	 1.4971497635802 
1354	 1.48137995331862 
1355	 1.45615203308067 
1356	 1.43249788981037 
1357	 1.39847190208923 
1358	 1.37547492920044 
1359	 1.32993885805844 
1360	 1.29854891501267 
1361	 1.24536133854062 
1362	 1.21478070612949 
1363	 1.17321707575339 
1364	 1.19143085360844 
1365	 1.1938861445022 
1366	 1.22801444726903 
1367	 1.22681641699209 
1368	 1.2054574118542 
1369	 1.20391407646864 
1370	 1.20384791223236 
1371	 1.2003767940218 
1372	 1.19770278812029 
1373	 1.20057584319458 
1374	 1.20243075994119 
1375	 1.20329576022637 
1376	 1.2094945253761 
1377	 1.22152219256038 
1378	 1.22288509342799 
1379	 1.21519658168772 
1380	 1.21769224938309 
1381	 1.21933374529989 
1382	 1.22492133077395 
1383	 1.23823824542655 
1384	 1.24683184128309 
1385	 1.25043301761631 
1386	 1.26116169660204 
1387	 1.27501523928362 
1388	 1.2826838844633 
1389	 1.28705554888525 
1390	 1.29851742667538 
1391	 1.30699766642123 
1392	 1.32171772687255 
1393	 1.34917248915563 
1394	 1.36441918447325 
1395	 1.37568468272043 
1396	 1.38746536741129 
1397	 1.39013473403844 
1398	 1.40271102782826 
1399	 1.42428487379855 
1400	 1.4398618921281 
1401	 1.45728668732709 
1402	 1.47156010539586 
1403	 1.47299669775215 
1404	 1.4867639156704 
1405	 1.50510839185813 
1406	 1.52520912047592 
1407	 1.54496455060416 
1408	 1.56460047376403 
1409	 1.5776553624692 
1410	 1.59280357945234 
1411	 1.61103382432131 
1412	 1.63168505587891 
1413	 1.648292942126 
1414	 1.66617858912483 
1415	 1.67881107037058 
1416	 1.68694516327445 
1417	 1.69860111905526 
1418	 1.70901395410173 
1419	 1.72154606025516 
1420	 1.73723425340864 
1421	 1.7492527324212 
1422	 1.76059870547073 
1423	 1.77074567647538 
1424	 1.77970226775344 
1425	 1.78789220009326 
1426	 1.79593170186605 
1427	 1.8036238533989 
1428	 1.81163272947954 
1429	 1.81769797529837 
1430	 1.82410231445808 
1431	 1.8280723408955 
1432	 1.82817485229288 
1433	 1.83093860477956 
1434	 1.83337306522676 
1435	 1.83678996888718 
1436	 1.84297107635631 
1437	 1.84702398444426 
1438	 1.84955443608585 
1439	 1.85287736989475 
1440	 1.85439245509794 
1441	 1.85817436315317 
1442	 1.86408778202274 
1443	 1.86886166094426 
1444	 1.87511061232584 
1445	 1.88165141223061 
1446	 1.88777804708851 
1447	 1.89529916554048 
1448	 1.9016230735102 
1449	 1.90795765434143 
1450	 1.91376062678054 
1451	 1.91863156893287 
1452	 1.9241200127228 
1453	 1.93019646189359 
1454	 1.93482864853385 
1455	 1.9398808803513 
1456	 1.94278407437685 
1457	 1.94495794048056 
1458	 1.94539038048945 
1459	 1.94442737607327 
1460	 1.94289594366991 
1461	 1.93934632110302 
1462	 1.93672064342917 
1463	 1.9335638200883 
1464	 1.93047882519139 
1465	 1.92781891996036 
1466	 1.9242260978341 
1467	 1.91918254477222 
1468	 1.91586393543376 
1469	 1.91223528036346 
1470	 1.91039587387182 
1471	 1.91118014887156 
1472	 1.91115090326909 
1473	 1.9115841265859 
1474	 1.91219961304337 
1475	 1.91249599461298 
1476	 1.91363254129731 
1477	 1.9153647635021 
1478	 1.91730189091333 
1479	 1.92020638193109 
1480	 1.92223402490782 
1481	 1.92369259143057 
1482	 1.92568032964959 
1483	 1.92725091107213 
1484	 1.92932508410275 
1485	 1.93219279105951 
1486	 1.93477865434441 
1487	 1.93774739621154 
1488	 1.93970117853751 
1489	 1.9418427290706 
1490	 1.94390321461689 
1491	 1.94644039436184 
1492	 1.94911115783705 
1493	 1.95068646603381 
1494	 1.95142323626462 
1495	 1.95204211787923 
1496	 1.9515776572368 
1497	 1.9516658112605 
1498	 1.95210191131412 
1499	 1.95205171688476 
1500	 1.95162856026171 
1501	 1.95116500456508 
1502	 1.95075502023306 
1503	 1.94990998282631 
1504	 1.94876632124014 
1505	 1.94748412834318 
1506	 1.94579389737066 
1507	 1.94444398178758 
1508	 1.94316356775226 
1509	 1.94170021678631 
1510	 1.94010160858043 
1511	 1.93893449700916 
1512	 1.93789325060509 
1513	 1.9366432826919 
1514	 1.93567978293278 
1515	 1.9345287731963 
1516	 1.93285937237103 
1517	 1.93167314320773 
1518	 1.93104253513999 
1519	 1.92981014753706 
1520	 1.9281634753975 
1521	 1.92696957438242 
1522	 1.92584862100295 
1523	 1.92457573327346 
1524	 1.92368294414783 
1525	 1.92238620373883 
1526	 1.92046186852393 
1527	 1.91894628095196 
1528	 1.91754674220754 
1529	 1.91613451428471 
1530	 1.91473069904927 
1531	 1.91352441297137 
1532	 1.9126858082405 
1533	 1.91137962019516 
1534	 1.90989695409517 
1535	 1.90851011607704 
1536	 1.90687166651964 
1537	 1.90523330697658 
1538	 1.9038068720751 
1539	 1.90225712621765 
1540	 1.90036343327976 
1541	 1.89866352400297 
1542	 1.89725912876878 
1543	 1.89554760350054 
1544	 1.89343033020861 
1545	 1.89179616913285 
1546	 1.89039614455423 
1547	 1.88880193795172 
1548	 1.88749009542365 
1549	 1.88603586712417 
1550	 1.88384303949996 
1551	 1.88243389403219 
1552	 1.8821365357119 
1553	 1.88087589993418 
1554	 1.87933407922023 
1555	 1.87791540339361 
1556	 1.87558486627623 
1557	 1.87382354009155 
1558	 1.8730254657703 
1559	 1.8716908003283 
1560	 1.86992580706298 
1561	 1.86849469064446 
1562	 1.866970193487 
1563	 1.86554296012744 
1564	 1.86424573524768 
1565	 1.86348168131983 
1566	 1.86207323899592 
1567	 1.86033523067771 
1568	 1.85874915331011 
1569	 1.85674923034031 
1570	 1.85577798208777 
1571	 1.85534927647248 
1572	 1.85453888523567 
1573	 1.85423157272617 
1574	 1.8533765943887 
1575	 1.85214215497214 
1576	 1.85078842366897 
1577	 1.84942325627237 
1578	 1.8478466819735 
1579	 1.84557818281369 
1580	 1.84454973468521 
1581	 1.84431740129688 
1582	 1.84292997112424 
1583	 1.84154396628766 
1584	 1.84034417559886 
1585	 1.83844814758453 
1586	 1.83703509668737 
1587	 1.83650979374636 
1588	 1.83501838508249 
1589	 1.83262909113166 
1590	 1.83121590485199 
1591	 1.83021939264413 
1592	 1.82869480794082 
1593	 1.82742403479306 
1594	 1.82559562093701 
1595	 1.82290564158995 
1596	 1.82122822604396 
1597	 1.81978482079701 
1598	 1.81845340712771 
1599	 1.81780355820145 
1600	 1.81631713829044 
1601	 1.81447904328671 
1602	 1.81277385617917 
1603	 1.81052902309191 
1604	 1.80922247076411 
1605	 1.80854289600639 
1606	 1.80735213553014 
1607	 1.80663361802331 
1608	 1.80506057980732 
1609	 1.80253953495325 
1610	 1.80108069400129 
1611	 1.79967183631076 
1612	 1.79864140465393 
1613	 1.79857357001963 
1614	 1.79739971926755 
1615	 1.79564697834304 
1616	 1.79453626251012 
1617	 1.79341186047286 
1618	 1.79204692297996 
1619	 1.79083655984144 
1620	 1.78989815484665 
1621	 1.78867634422012 
1622	 1.78761763406081 
1623	 1.78741519230158 
1624	 1.78610849922026 
1625	 1.78373240754662 
1626	 1.78257506336554 
1627	 1.78172518667266 
1628	 1.7806226876614 
1629	 1.7799873551067 
1630	 1.77902975815165 
1631	 1.77752539145703 
1632	 1.77643869082535 
1633	 1.77570384593797 
1634	 1.77482227255058 
1635	 1.77396094783096 
1636	 1.77285897951103 
1637	 1.77156503628752 
1638	 1.77062655254453 
1639	 1.76961919817469 
1640	 1.7688356571144 
1641	 1.76838207228695 
1642	 1.76800365721307 
1643	 1.76785002943272 
1644	 1.76708203682296 
1645	 1.76611892878741 
1646	 1.76568512551489 
1647	 1.76506953462771 
1648	 1.76442465964083 
1649	 1.76421316545859 
1650	 1.76411197525785 
1651	 1.76367489664071 
1652	 1.7633709303011 
1653	 1.76374250510447 
1654	 1.7635087263885 
1655	 1.76260162614052 
1656	 1.76234611224454 
1657	 1.76256036913614 
1658	 1.76148841198963 
1659	 1.76087717998873 
1660	 1.76105634515204 
1661	 1.76138714620386 
1662	 1.76233795160226 
1663	 1.76320883229305 
1664	 1.76265798182671 
1665	 1.76241468507552 
1666	 1.76247080198302 
1667	 1.76238140489739 
1668	 1.76295160506515 
1669	 1.76322823216176 
1670	 1.76379180918211 
1671	 1.76418159752168 
1672	 1.76399710643498 
1673	 1.76440761802325 
1674	 1.76455200311993 
1675	 1.76455648016134 
1676	 1.76520560029976 
1677	 1.76583684576146 
1678	 1.76570460087142 
1679	 1.76586743249744 
1680	 1.76653318074759 
1681	 1.766478062204 
1682	 1.76662977767994 
1683	 1.76752310127474 
1684	 1.76844320580012 
1685	 1.76912141442347 
1686	 1.76980552264463 
1687	 1.77035655190325 
1688	 1.77056819468602 
1689	 1.77112062431195 
1690	 1.7725768772 
1691	 1.77356954322067 
1692	 1.774665783935 
1693	 1.77508901358555 
1694	 1.77434208027326 
1695	 1.77458032040819 
1696	 1.77484386275865 
1697	 1.77533049433003 
1698	 1.77686219956747 
1699	 1.77785451784191 
1700	 1.77879696862652 
1701	 1.77949957688747 
1702	 1.77984639118705 
1703	 1.78032928967993 
1704	 1.78006249641336 
1705	 1.78060924256436 
1706	 1.78206466658694 
1707	 1.78297283737368 
1708	 1.78398777154798 
1709	 1.78538847633717 
1710	 1.78676887600916 
1711	 1.78777596319144 
1712	 1.78920204890596 
1713	 1.78993151303315 
1714	 1.78956908296582 
1715	 1.79005576187968 
1716	 1.79109366729526 
1717	 1.79170311898776 
1718	 1.79191636792862 
1719	 1.79271492284789 
1720	 1.79377978678833 
1721	 1.79451825294651 
1722	 1.79574118696603 
1723	 1.79661346074019 
1724	 1.79713754737084 
1725	 1.79725270156053 
1726	 1.79699301832316 
1727	 1.79686862979476 
1728	 1.79602814786297 
1729	 1.79615512409719 
1730	 1.79744426010586 
1731	 1.79763586318578 
1732	 1.79750053440535 
1733	 1.79706597996246 
1734	 1.79533607572926 
1735	 1.7935254820863 
1736	 1.79220361979176 
1737	 1.79117672905953 
1738	 1.79162775987317 
1739	 1.79193156321953 
1740	 1.79104162379081 
1741	 1.78995530952946 
1742	 1.78893211100884 
1743	 1.78928858950172 
1744	 1.79026333862322 
1745	 1.79087427848248 
1746	 1.7904339511111 
1747	 1.78928996866425 
1748	 1.78977161589349 
1749	 1.7907880242028 
1750	 1.79247451606192 
1751	 1.7945698977158 
1752	 1.79450001170595 
1753	 1.79430232438264 
1754	 1.79435116558505 
1755	 1.79325483995214 
1756	 1.79292225148495 
1757	 1.79266320688844 
1758	 1.79198971222254 
1759	 1.79163419710294 
1760	 1.79099489089124 
1761	 1.7894942077885 
1762	 1.7888422115577 
1763	 1.78935086019111 
1764	 1.7882526478594 
1765	 1.78664387165267 
1766	 1.78501897925644 
1767	 1.78159050522422 
1768	 1.77999712344786 
1769	 1.77981864700045 
1770	 1.77864053641538 
1771	 1.77803291087251 
1772	 1.77604909064189 
1773	 1.77299684166294 
1774	 1.76918646819864 
1775	 1.76620271807913 
1776	 1.76387046275421 
1777	 1.76026603315379 
1778	 1.75822308726484 
1779	 1.7568209511852 
1780	 1.7553691304231 
1781	 1.75454309479501 
1782	 1.75254499502503 
1783	 1.75059326867596 
1784	 1.74736962647709 
1785	 1.74448581530384 
1786	 1.74307083794533 
1787	 1.73852110806519 
1788	 1.7324411630754 
1789	 1.72687606329484 
1790	 1.72156962912556 
1791	 1.71661700586876 
1792	 1.71169385058751 
1793	 1.70718395601233 
1794	 1.70028325835664 
1795	 1.69072747777296 
1796	 1.68318515350968 
1797	 1.67700087320901 
1798	 1.66836042674468 
1799	 1.66217860541265 
1800	 1.65644027389371 
1801	 1.64165443957557 
1802	 1.62545678718016 
1803	 1.61389608812755 
1804	 1.59914487799679 
1805	 1.58919470663468 
1806	 1.58904016411396 
1807	 1.58176394048546 
1808	 1.57231278673641 
1809	 1.56488276762317 
1810	 1.55422954865577 
1811	 1.53518305457737 
1812	 1.52551618035202 
1813	 1.52463579625161 
1814	 1.51456646931197 
1815	 1.50247215848274 
1816	 1.49238045788281 
1817	 1.4750578804358 
1818	 1.4610126945794 
1819	 1.44965839823953 
1820	 1.44752878410414 
1821	 1.44048246464013 
1822	 1.43333031583926 
1823	 1.42594629923794 
1824	 1.42292991766823 
1825	 1.41438358726675 
1826	 1.39800434608815 
1827	 1.38298443908065 
1828	 1.36545819596131 
1829	 1.33268670359882 
1830	 1.32554854814152 
1831	 1.35540340682599 
1832	 1.35740002115051 
1833	 1.42076115305625 
1834	 1.4026843646183 
1835	 1.18141218994642 
1836	 1.09430857930532 
1837	 1.07591367314038 
1838	 1.04470666970029 
1839	 1.05505069803925 
1840	 1.25546701771182 
1841	 1.27619598953102 
1842	 1.18060125777301 
1843	 1.15779132607051 
1844	 1.10874539799108 
1845	 1.09473063968864 
1846	 1.12113527806941 
1847	 1.11904147558019 
1848	 1.11191783717097 
1849	 1.09966728827922 
1850	 1.11289507392821 
1851	 1.14078334440322 
1852	 1.14877375733583 
1853	 1.20707128330344 
1854	 1.16430984038796 
1855	 0.992951063157723 
1856	 0.956829513855622 
1857	 0.898878166860956 
1858	 0.945718267105267 
1859	 0.980824151807295 
1860	 1.11089710208209 
1861	 1.12793625690045 
1862	 1.0787690865863 
1863	 1.09673493638767 
1864	 1.12196463785531 
1865	 1.15012561290357 
1866	 1.31734862620917 
1867	 1.33653435731846 
1868	 1.21956785806413 
1869	 1.12382427538015 
1870	 1.08543869396503 
1871	 1.00306245605116 
1872	 1.0320850996893 
1873	 1.2175944196703 
1874	 1.26038880273938 
1875	 1.22259564439955 
1876	 1.24706350636327 
1877	 1.2565587720392 
1878	 1.28812520047649 
1879	 1.34191913387962 
1880	 1.43060913612154 
1881	 1.44274783994537 
1882	 1.42451872011019 
1883	 1.4079214371137 
1884	 1.33746764260963 
1885	 1.33262921121165 
1886	 1.35380500252444 
1887	 1.38277666872213 
1888	 1.40148728276799 
1889	 1.41359819117033 
1890	 1.4308677774201 
1891	 1.42435926432582 
1892	 1.4369193546878 
1893	 1.48693187085013 
1894	 1.50415929825906 
1895	 1.49225452935766 
1896	 1.50830447051817 
1897	 1.52415058951141 
1898	 1.57534124815434 
1899	 1.66771042118679 
1900	 1.62127262150517 
1901	 1.6199639503634 
1902	 1.55191068681084 
1903	 1.55675167013682 
1904	 1.59691362927084 
1905	 1.65957550198632 
1906	 1.78756829389057 
1907	 1.8975372911923 
1908	 1.88165546067985 
1909	 1.88754525820161 
1910	 1.78034273296274 
1911	 1.68773297893987 
1912	 1.69677695974122 
1913	 1.7426891814003 
1914	 1.73504085284897 
1915	 1.74032965421427 
1916	 1.76561559011124 
1917	 1.75809212845616 
1918	 1.79558196581923 
1919	 1.87185277967821 
1920	 1.89129797245204 
1921	 1.88625143852167 
1922	 1.87911553808006 
1923	 1.87910941868172 
1924	 1.86270245921683 
1925	 1.87024850184942 
1926	 1.89911709731566 
1927	 1.9139603563145 
1928	 1.9191092066543 
1929	 1.95436328709863 
1930	 1.96930023922253 
1931	 1.97368015525297 
1932	 1.99577256046759 
1933	 2.00611316234149 
1934	 2.01278597395492 
1935	 2.01428255588734 
1936	 2.02608158774327 
1937	 2.03826621070988 
1938	 2.04752133688661 
1939	 2.06166721289546 
1940	 2.07252236319157 
1941	 2.07664271975018 
1942	 2.08203664789602 
1943	 2.09799003287185 
1944	 2.11154294079 
1945	 2.12117858409367 
1946	 2.12368723976829 
1947	 2.13082791835122 
1948	 2.14004776929079 
1949	 2.14695922002064 
1950	 2.15474477471912 
1951	 2.16494027140902 
1952	 2.16344163161316 
1953	 2.14780234477943 
1954	 2.14552746043675 
1955	 2.14854546571355 
1956	 2.15162476835669 
1957	 2.15911331775702 
1958	 2.16352555813528 
1959	 2.16005191480768 
1960	 2.16560384483249 
1961	 2.17506342097614 
1962	 2.18426302309646 
1963	 2.19408764227716 
1964	 2.19841549203101 
1965	 2.1972158081753 
1966	 2.19334290008031 
1967	 2.19131454227742 
1968	 2.19123726162143 
1969	 2.19190243659853 
1970	 2.19661968013309 
1971	 2.19809106019389 
1972	 2.19806409360161 
1973	 2.19741422252597 
1974	 2.20165578609306 
1975	 2.20364384256415 
1976	 2.20334987004532 
1977	 2.20173483493779 
1978	 2.19389753860901 
1979	 2.18829219550511 
1980	 2.18565016651941 
1981	 2.18316758651008 
1982	 2.18203967784191 
1983	 2.18424218810115 
1984	 2.18095603846631 
1985	 2.17855003556288 
1986	 2.18008488487119 
1987	 2.17824547306284 
1988	 2.17559557900707 
1989	 2.17209022499488 
1990	 2.16807514578265 
1991	 2.16402497006914 
1992	 2.16086482905546 
1993	 2.16022926806823 
1994	 2.15878269476113 
1995	 2.15708296754415 
1996	 2.15541532385478 
1997	 2.15384123498436 
1998	 2.15239176468833 
1999	 2.1506495252868 
2000	 2.14644286411503 
2001	 2.14836587114335 
2002	 2.14955459295338 
2003	 2.14663732273069 
2004	 2.14797979631143 
2005	 2.14464030990924 
2006	 2.14203637109047 
2007	 2.13758224074591 
2008	 2.13807707889206 
2009	 2.13681482369389 
2010	 2.14003946660115 
2011	 2.14098860393686 
2012	 2.13323078549567 
2013	 2.12625609221899 
2014	 2.12328247656513 
2015	 2.12341996094611 
2016	 2.12582555566795 
2017	 2.13414843196272 
2018	 2.13584635999763 
2019	 2.13519581054219 
2020	 2.12997935331893 
2021	 2.13227813187355 
2022	 2.13433800262541 
2023	 2.13649294094474 
2024	 2.14386845129189 
2025	 2.14969066012475 
2026	 2.15132651653651 
2027	 2.15396104650423 
2028	 2.15723908983902 
2029	 2.16040625462511 
2030	 2.16161964069219 
2031	 2.16408081077497 
2032	 2.16601174517875 
2033	 2.16738276304546 
2034	 2.16516481267783 
2035	 2.16912067265406 
2036	 2.17513657483645 
2037	 2.17703372563676 
2038	 2.18105174819731 
2039	 2.1832569713437 
2040	 2.18127100249409 
2041	 2.18339994311228 
2042	 2.187706454388 
2043	 2.19031867842263 
2044	 2.19564757727019 
2045	 2.19869065650769 
2046	 2.20020390105871 
2047	 2.19895555563509 
2048	 2.2041572201641 
2049	 2.20756411939043 
2050	 2.20774264836689 
2051	 2.21482581094468 
2052	 2.21828451400232 
2053	 2.21755063255696 
2054	 2.21947137545823 
2055	 2.21880335565534 
2056	 2.22028158934403 
2057	 2.22321260372597 
2058	 2.22693193667734 
2059	 2.23065428535375 
2060	 2.23668082919887 
2061	 2.23863647465312 
2062	 2.24105346098453 
2063	 2.24146558356728 
2064	 2.24136062927351 
2065	 2.24198550396729 
2066	 2.23913629191692 
2067	 2.23881159550495 
2068	 2.23876881995251 
2069	 2.23794077228384 
2070	 2.23984994514764 
2071	 2.24237840104626 
2072	 2.24518988106422 
2073	 2.24953608337549 
2074	 2.253121095904 
2075	 2.25366291105393 
2076	 2.25320912424696 
2077	 2.25403390200246 
2078	 2.25579262179123 
2079	 2.25838711582398 
2080	 2.26272732602659 
2081	 2.2649464318061 
2082	 2.26426534500854 
2083	 2.26242585117555 
2084	 2.25862266091828 
2085	 2.25639593071708 
2086	 2.25939763456318 
2087	 2.26118360252282 
2088	 2.264750682164 
2089	 2.26886898258903 
2090	 2.2701549977326 
2091	 2.2651037080839 
2092	 2.26415719101777 
2093	 2.26279135146176 
2094	 2.26011190296433 
2095	 2.2617886733501 
2096	 2.25888674605386 
2097	 2.2560031271575 
2098	 2.25721315785277 
2099	 2.25645325592179 
2100	 2.25694338352479 
2101	 2.25974615115615 
2102	 2.26045026498314 
2103	 2.2597596614969 
2104	 2.25944529829178 
2105	 2.26077137151731 
2106	 2.26011189113524 
2107	 2.26092847029926 
2108	 2.26360872309757 
2109	 2.26324846712831 
2110	 2.26295655567241 
2111	 2.26290273846992 
2112	 2.25959885748663 
2113	 2.25624775885264 
2114	 2.25589703649106 
2115	 2.2537586780242 
2116	 2.25192974285602 
2117	 2.25162043414425 
2118	 2.25197525284662 
2119	 2.25106459700044 
2120	 2.25046559718101 
2121	 2.25190558388614 
2122	 2.25100149894972 
2123	 2.25110406168244 
2124	 2.24784643337147 
2125	 2.24494101699338 
2126	 2.24371555658906 
2127	 2.24272472577425 
2128	 2.24544020626241 
2129	 2.24577736902964 
2130	 2.24392409211025 
2131	 2.24425733371529 
2132	 2.24219120791285 
2133	 2.23981592458194 
2134	 2.23967637508344 
2135	 2.24172695811523 
2136	 2.24011863039204 
2137	 2.23952937156025 
2138	 2.24169254410428 
2139	 2.23802773890494 
2140	 2.23621675565834 
2141	 2.23755135293595 
2142	 2.23471273344793 
2143	 2.23480245656256 
2144	 2.23462907357997 
2145	 2.22985802110303 
2146	 2.2283886718894 
2147	 2.22874795671246 
2148	 2.22428682041976 
2149	 2.21883196059023 
2150	 2.21551466582348 
2151	 2.2136061892156 
2152	 2.21255997985918 
2153	 2.21245818116211 
2154	 2.21649329285822 
2155	 2.21577157843745 
2156	 2.21049799172639 
2157	 2.20438241096133 
2158	 2.19658201134559 
2159	 2.19039866002582 
2160	 2.19130087267151 
2161	 2.19082019942008 
2162	 2.19156937390258 
2163	 2.19455359181784 
2164	 2.19262376174501 
2165	 2.19171156908601 
2166	 2.18953466970277 
2167	 2.18636978567169 
2168	 2.1847976167268 
2169	 2.18341321984503 
2170	 2.18189945594223 
2171	 2.181264754461 
2172	 2.18182087212765 
2173	 2.17993470473444 
2174	 2.17833725721385 
2175	 2.17869414389889 
2176	 2.17706559423021 
2177	 2.17343820869704 
2178	 2.16996620479845 
2179	 2.16444835410445 
2180	 2.1570607628803 
2181	 2.15319438683584 
2182	 2.15223115579642 
2183	 2.15339403432639 
2184	 2.15433494274971 
2185	 2.15068392868572 
2186	 2.14757307275677 
2187	 2.14529175897981 
2188	 2.14144004195821 
2189	 2.13819745273774 
2190	 2.1371994131496 
2191	 2.13394431044417 
2192	 2.13040906784248 
2193	 2.12984012528316 
2194	 2.13040588958692 
2195	 2.1314364059143 
2196	 2.12937788269975 
2197	 2.12247362588082 
2198	 2.11817262856381 
2199	 2.11863806789983 
2200	 2.11918729190647 
2201	 2.1212726345939 
2202	 2.12292893556251 
2203	 2.11715282278439 
2204	 2.11158635055225 
2205	 2.11165955453908 
2206	 2.11011950996787 
2207	 2.11077813677517 
2208	 2.11219406730873 
2209	 2.11450860924472 
2210	 2.11385578607227 
2211	 2.11252046302063 
2212	 2.11527773704273 
2213	 2.10927330286761 
2214	 2.10468097168277 
2215	 2.10377116206798 
2216	 2.09602260724397 
2217	 2.09625109486839 
2218	 2.10126630693685 
2219	 2.10127239488288 
2220	 2.10341389897571 
2221	 2.1074275721651 
2222	 2.10816946858193 
2223	 2.10593867138513 
2224	 2.10528458177724 
2225	 2.10078493617152 
2226	 2.09906155602015 
2227	 2.1033529828345 
2228	 2.10635164770966 
2229	 2.11279490388335 
2230	 2.11752780082779 
2231	 2.12223843821754 
2232	 2.129547606397 
2233	 2.13309981966827 
2234	 2.13365743642253 
2235	 2.13573074004717 
2236	 2.13629533223128 
2237	 2.13785902509522 
2238	 2.14601923009845 
2239	 2.15283362105573 
2240	 2.16049360619103 
2241	 2.16747326025331 
2242	 2.17395420554201 
2243	 2.18142814685532 
2244	 2.18227624575598 
2245	 2.18539982731626 
2246	 2.18925914879478 
2247	 2.19110767533782 
2248	 2.2005399745048 
2249	 2.20894114116939 
2250	 2.21543305976451 
2251	 2.22384476932653 
2252	 2.23025089555794 
2253	 2.23485995669568 
2254	 2.24392508797815 
2255	 2.25761394376864 
2256	 2.26552488800399 
2257	 2.27165108209345 
2258	 2.27932236271156 
2259	 2.28041483480489 
2260	 2.27337020094447 
2261	 2.2741603136595 
2262	 2.27655453732426 
2263	 2.28093347741327 
2264	 2.28984317093853 
2265	 2.29545347218525 
2266	 2.30327778333148 
2267	 2.31405703207957 
2268	 2.32488360198123 
2269	 2.33283159486788 
2270	 2.33553864541746 
2271	 2.33825361080491 
2272	 2.3378502503681 
2273	 2.34001875256759 
2274	 2.34660779080892 
2275	 2.3495046593416 
2276	 2.34933555208595 
2277	 2.35165639227108 
2278	 2.35027168998268 
2279	 2.34592711734881 
2280	 2.34687755872345 
2281	 2.34126906144955 
2282	 2.34102496056481 
2283	 2.34974746966649 
2284	 2.35318276028947 
2285	 2.35691982147158 
2286	 2.36216860657251 
2287	 2.36868995564288 
2288	 2.36923830423741 
2289	 2.36693014378087 
2290	 2.37478504235536 
2291	 2.37874223200227 
2292	 2.37517382918013 
2293	 2.38566804038559 
2294	 2.39180290492162 
2295	 2.38850309897277 
2296	 2.39523253395143 
2297	 2.3965135498527 
2298	 2.39761909578536 
2299	 2.40837803676657 
2300	 2.41207359168817 
2301	 2.42280148964707 
2302	 2.43099518838559 
2303	 2.43080366779377 
2304	 2.43552418659693 
2305	 2.42873509304215 
2306	 2.42106381191825 
2307	 2.42280770451559 
2308	 2.43850460482449 
2309	 2.46033974204311 
2310	 2.47172235950885 
2311	 2.47716973551456 
2312	 2.47046462733813 
2313	 2.4673777567537 
2314	 2.47455980785447 
2315	 2.46303561252021 
2316	 2.44957794245797 
2317	 2.44675836987332 
2318	 2.43876540528695 
2319	 2.43597871495612 
2320	 2.44055303955799 
2321	 2.44543230777781 
2322	 2.44136829248492 
2323	 2.44109765116593 
2324	 2.44795831437793 
2325	 2.46000785184686 
2326	 2.45472905321927 
2327	 2.45448304244884 
2328	 2.45879902899695 
2329	 2.45855470665737 
2330	 2.45854983026975 
2331	 2.45967620960393 
2332	 2.46067064360141 
2333	 2.44803173892534 
2334	 2.44611285624125 
2335	 2.45501176789756 
2336	 2.45858251903914 
2337	 2.46943793878606 
2338	 2.46790147633046 
2339	 2.45731019149104 
2340	 2.45061918839161 
2341	 2.44890327797051 
2342	 2.44449427259843 
2343	 2.43721531136845 
2344	 2.43748074835924 
2345	 2.43599094177398 
2346	 2.4512136949926 
2347	 2.46948736404337 
2348	 2.47576732181595 
2349	 2.48238289926781 
2350	 2.48608706092333 
2351	 2.48495377544516 
2352	 2.47957506715547 
2353	 2.48863258517979 
2354	 2.48588632559829 
2355	 2.47486942084439 
2356	 2.49119032336944 
2357	 2.49095417054928 
2358	 2.47520727935107 
2359	 2.47046029928914 
2360	 2.44752224329428 
2361	 2.43610909765033 
2362	 2.44574811323463 
2363	 2.4360387549108 
2364	 2.43215534497485 
2365	 2.42946049282391 
2366	 2.40634901948723 
2367	 2.40985731846344 
2368	 2.43875147287118 
2369	 2.44845667432149 
2370	 2.47339737205496 
2371	 2.4903561289281 
2372	 2.48696107520409 
2373	 2.45435308943576 
2374	 2.44977313997823 
2375	 2.44053585262652 
2376	 2.43879590922539 
2377	 2.45308229742061 
2378	 2.44395882860978 
2379	 2.41951181812462 
2380	 2.40927012668682 
2381	 2.40217771214437 
2382	 2.40383797530657 
2383	 2.41535209212268 
2384	 2.42146241751125 
2385	 2.43013260581274 
2386	 2.41994615328456 
2387	 2.39538604093008 
2388	 2.39435725716509 
2389	 2.39594928383779 
2390	 2.40017834466174 
2391	 2.42500446617286 
2392	 2.42692160343675 
2393	 2.39950864587272 
2394	 2.40228363874798 
2395	 2.42473892793816 
2396	 2.43468597141897 
2397	 2.46982957455526 
2398	 2.47148406354431 
2399	 2.42813463100647 
2400	 2.41825969156644 
2401	 2.4106179683649 
2402	 2.39955872406161 
2403	 2.42483030083786 
2404	 2.43082174834299 
2405	 2.42247065384084 
2406	 2.41164750263064 
2407	 2.38680618533832 
2408	 2.38648087572996 
2409	 2.38686904579617 
2410	 2.39561423593911 
2411	 2.40981001779375 
2412	 2.40856070950122 
2413	 2.45438916660338 
2414	 2.46126615399906 
2415	 2.44564967695302 
2416	 2.51235977663027 
2417	 2.53191510992157 
2418	 2.53323740932701 
2419	 2.56798411311701 
2420	 2.55698342741731 
2421	 2.53025437744898 
2422	 2.54849273272853 
2423	 2.57283191011876 
2424	 2.54897108791959 
2425	 2.49920585346137 
2426	 2.46586438201792 
2427	 2.45783300757623 
2428	 2.46054015797797 
2429	 2.51481160135941 
2430	 2.57194146321399 
2431	 2.60642135809078 
2432	 2.64025147239794 
2433	 2.62587318313814 
2434	 2.62119047593166 
2435	 2.63525472765896 
2436	 2.6192827035333 
2437	 2.54063980552937 
2438	 2.53031486059531 
2439	 2.51901571340588 
2440	 2.52159978837665 
2441	 2.63299279178652 
2442	 2.66833671017631 
2443	 2.65541127178068 
2444	 2.65136420198422 
2445	 2.57594283197174 
2446	 2.56905732638969 
2447	 2.6326699070522 
2448	 2.6553947820948 
2449	 2.71792981285065 
2450	 2.74138084218956 
2451	 2.64852258897594 
2452	 2.6464110913035 
2453	 2.70936618579122 
2454	 2.72201613484051 
2455	 2.79694896561731 
2456	 2.7928358393526 
2457	 2.68350390087405 
2458	 2.63868312949129 
2459	 2.57932311147367 
2460	 2.5624920478882 
2461	 2.59885352750133 
2462	 2.58625260314101 
2463	 2.54730302680338 
2464	 2.55480448007881 
2465	 2.56052354556886 
2466	 2.59061851460321 
2467	 2.70683281370935 
2468	 2.76071219634998 
2469	 2.78731314475022 
2470	 2.80336045415611 
2471	 2.82950150904741 
2472	 2.80868922058431 
2473	 2.64693215253302 
2474	 2.62250906264182 
2475	 2.62984067563896 
2476	 2.66400694650915 
2477	 2.96520004128312 
2478	 3.03361500969194 
2479	 2.84701090715105 
2480	 2.80162297892052 
2481	 2.65205084951248 
2482	 2.6287797062591 
2483	 2.86937475565938 
2484	 2.93098701503066 
2485	 2.97529859685077 
2486	 2.63329251867473 
2487	 2.27370293524681 
2488	 2.45794929561535 
2489	 2.37286304665962 
2490	 2.47380947818103 
2491	 3.19697506608764 
2492	 2.76823255782986 
2493	 2.48246383571664 
2494	 2.69811737204894 
2495	 2.53373673363014 
2496	 2.82498232371786 
2497	 3.17839544586925 
2498	 2.82870391706708 
2499	 3.1561641722449 
2500	 3.40263820467549 
