Wavelength	ref00047.asd
350	 3.22583993749115E-02 
351	 3.19568478362505E-02 
352	 0.031994820047745 
353	 3.24386353986302E-02 
354	 3.21425544451021E-02 
355	 3.15698207746041E-02 
356	 3.14275362665277E-02 
357	 3.23835789408578E-02 
358	 3.25327842760308E-02 
359	 3.24922329735101E-02 
360	 3.31401845827194E-02 
361	 3.28380035146459E-02 
362	 3.24153975197859E-02 
363	 3.22364699225063E-02 
364	 3.22653740547013E-02 
365	 3.24520625256014E-02 
366	 3.24994047437687E-02 
367	 3.24242946199505E-02 
368	 3.27126611083502E-02 
369	 3.25513736942943E-02 
370	 3.22828491096977E-02 
371	 3.23219021263675E-02 
372	 3.24400392072407E-02 
373	 3.24511790614666E-02 
374	 3.23816225943923E-02 
375	 3.23926230941039E-02 
376	 3.27021495566763E-02 
377	 3.30204179864147E-02 
378	 0.033214039941823 
379	 3.33927809967018E-02 
380	 3.34447455916396E-02 
381	 3.34918784986941E-02 
382	 3.35805316555099E-02 
383	 3.33951205302543E-02 
384	 3.33584450363326E-02 
385	 3.34298227950688E-02 
386	 3.34291285302048E-02 
387	 3.37313063338756E-02 
388	 3.41105816910774E-02 
389	 3.43184198118492E-02 
390	 3.41747046104043E-02 
391	 3.43136135234221E-02 
392	 3.45009488805029E-02 
393	 3.45256396679611E-02 
394	 3.45702671088796E-02 
395	 3.49581932849084E-02 
396	 3.53735689684076E-02 
397	 3.54030084924621E-02 
398	 3.54364126651663E-02 
399	 3.52658075498572E-02 
400	 3.51584606220117E-02 
401	 3.56924116021953E-02 
402	 3.59061258077217E-02 
403	 3.59276809166824E-02 
404	 3.59727812884425E-02 
405	 3.60784809264038E-02 
406	 3.62093094060937E-02 
407	 3.62081373057319E-02 
408	 3.60287809575611E-02 
409	 3.64190000174655E-02 
410	 3.64565070024996E-02 
411	 3.63270165881485E-02 
412	 3.70998791688436E-02 
413	 3.70428801465524E-02 
414	 3.67803524831727E-02 
415	 0.036866252712414 
416	 3.68711796160286E-02 
417	 3.72523984546176E-02 
418	 0.03761571807153 
419	 3.74773428680067E-02 
420	 3.74207182435714E-02 
421	 3.74956517455948E-02 
422	 0.037608994155556 
423	 3.75854852914939E-02 
424	 3.76957976948669E-02 
425	 3.78759233845798E-02 
426	 3.80132305687939E-02 
427	 3.80115877051066E-02 
428	 3.80379906190979E-02 
429	 3.79836292083442E-02 
430	 3.77804701081482E-02 
431	 0.03806614622622 
432	 3.83522084143787E-02 
433	 0.038478766637425 
434	 3.86221538560761E-02 
435	 3.87255258116678E-02 
436	 3.87325730826444E-02 
437	 3.86930120930399E-02 
438	 3.88806515790727E-02 
439	 3.91097083166742E-02 
440	 3.92024728178115E-02 
441	 3.90679628621112E-02 
442	 3.90236031213874E-02 
443	 3.91219343045246E-02 
444	 3.92678974789691E-02 
445	 3.92596317421999E-02 
446	 3.92058983550196E-02 
447	 3.92556024706288E-02 
448	 3.94462535079592E-02 
449	 3.95446539680427E-02 
450	 0.039613403073012 
451	 3.96632355626654E-02 
452	 3.96853182598643E-02 
453	 3.96400572749236E-02 
454	 3.97243271739258E-02 
455	 3.99353568128997E-02 
456	 4.00239902555974E-02 
457	 4.00631460270896E-02 
458	 4.00734816097035E-02 
459	 4.00788895369239E-02 
460	 4.01256646612155E-02 
461	 4.02590493521936E-02 
462	 4.03623288171922E-02 
463	 4.02734090743179E-02 
464	 4.02527211651174E-02 
465	 4.03296976763805E-02 
466	 4.04899166469394E-02 
467	 0.040701547690257 
468	 4.07329024050982E-02 
469	 4.06677934693731E-02 
470	 4.06556360406799E-02 
471	 4.06827656942959E-02 
472	 4.07996957048133E-02 
473	 4.09571112451816E-02 
474	 4.10412339756426E-02 
475	 4.10696931810482E-02 
476	 4.11041744112111E-02 
477	 4.11617532674474E-02 
478	 4.11550835125251E-02 
479	 4.12416381171612E-02 
480	 4.14091172299974E-02 
481	 4.15621616196135E-02 
482	 4.15150475945368E-02 
483	 4.15465407714053E-02 
484	 4.16980603878195E-02 
485	 4.17567587198574E-02 
486	 4.17453001976823E-02 
487	 4.17700882516894E-02 
488	 4.18975051560132E-02 
489	 4.20475374064695E-02 
490	 4.21872995240591E-02 
491	 4.22387758916922E-02 
492	 4.21623602457896E-02 
493	 4.22288757963988E-02 
494	 4.23958019150725E-02 
495	 4.25721327967056E-02 
496	 4.26445665643333E-02 
497	 4.27097556812909E-02 
498	 4.28188121052517E-02 
499	 4.29768507119169E-02 
500	 4.30800792655445E-02 
501	 4.31593280839851E-02 
502	 4.32655501558582E-02 
503	 4.34447760538132E-02 
504	 4.35860273049724E-02 
505	 4.36253709846131E-02 
506	 4.36205182687754E-02 
507	 4.38170607299055E-02 
508	 4.39017121554286E-02 
509	 4.39461053991054E-02 
510	 4.41014712705538E-02 
511	 4.43033704249689E-02 
512	 4.45713219242307E-02 
513	 4.47816716245398E-02 
514	 4.47225256179106E-02 
515	 4.48524050963364E-02 
516	 4.50022489298253E-02 
517	 4.50580442179129E-02 
518	 4.53351800563373E-02 
519	 4.55518157598034E-02 
520	 4.56867908316574E-02 
521	 4.58213808738677E-02 
522	 4.59667632358501E-02 
523	 4.60933926652951E-02 
524	 4.61831252095874E-02 
525	 0.046234274206307 
526	 4.63508404433424E-02 
527	 4.65460860269414E-02 
528	 0.046789614999345 
529	 4.70192001997523E-02 
530	 4.71206019270689E-02 
531	 4.71850808326389E-02 
532	 4.73933423441539E-02 
533	 4.75740192696909E-02 
534	 4.77504781743259E-02 
535	 4.79347161832308E-02 
536	 4.80842741237872E-02 
537	 4.82330444056806E-02 
538	 4.83930713006478E-02 
539	 0.048573973652155 
540	 4.88071009315464E-02 
541	 4.90512105312709E-02 
542	 4.92469951110753E-02 
543	 4.93433584232612E-02 
544	 4.96207661527528E-02 
545	 4.99190766192339E-02 
546	 0.050119735574822 
547	 5.03613864969604E-02 
548	 5.07173606120919E-02 
549	 5.10638792378385E-02 
550	 0.051244522753393 
551	 5.15005546368741E-02 
552	 5.17826156634149E-02 
553	 5.20288340468185E-02 
554	 5.21909068475947E-02 
555	 5.24675154783617E-02 
556	 5.28210837825552E-02 
557	 5.31656370176213E-02 
558	 5.34582785521285E-02 
559	 5.38346753536516E-02 
560	 5.42156519149976E-02 
561	 5.44261341189436E-02 
562	 0.054823358480704 
563	 5.52148577775821E-02 
564	 5.54971420079292E-02 
565	 5.58390038127612E-02 
566	 5.62574222066796E-02 
567	 5.67330830226289E-02 
568	 5.72183990670271E-02 
569	 5.76367040968144E-02 
570	 5.80629644405031E-02 
571	 5.85055012109723E-02 
572	 5.89113055368662E-02 
573	 5.94026831062756E-02 
574	 5.98698770629957E-02 
575	 6.02564272819491E-02 
576	 6.07402317391076E-02 
577	 6.12335388538564E-02 
578	 6.16632186898757E-02 
579	 6.20048106634122E-02 
580	 6.25280365479421E-02 
581	 0.063019109793597 
582	 6.34267729331071E-02 
583	 6.39723290251092E-02 
584	 6.44503850815733E-02 
585	 6.48819778839301E-02 
586	 0.065332937416517 
587	 0.065800444074027 
588	 6.63526346539424E-02 
589	 6.69195722819873E-02 
590	 6.73447665029542E-02 
591	 6.79105403488278E-02 
592	 6.84040901725556E-02 
593	 6.87637127520975E-02 
594	 6.92938583181538E-02 
595	 6.98107959855479E-02 
596	 7.02847388660359E-02 
597	 7.07194316695371E-02 
598	 7.09964034252423E-02 
599	 0.071378337810351 
600	 7.18790641299599E-02 
601	 7.22534678291113E-02 
602	 7.25717978833405E-02 
603	 7.29547225934227E-02 
604	 7.34321432175206E-02 
605	 7.37671746807089E-02 
606	 0.074132421127682 
607	 7.45023069517189E-02 
608	 7.47877791465275E-02 
609	 7.52059030472162E-02 
610	 7.56477942812938E-02 
611	 7.60398640293352E-02 
612	 7.64080321985358E-02 
613	 7.67072421917845E-02 
614	 7.69934388379237E-02 
615	 7.73091820106731E-02 
616	 7.75345991811204E-02 
617	 7.78214719456408E-02 
618	 7.81576044988895E-02 
619	 7.84225671669873E-02 
620	 7.86415271044906E-02 
621	 7.88983289286133E-02 
622	 7.92006660150079E-02 
623	 7.93885465004407E-02 
624	 7.96067096083765E-02 
625	 7.98521490681311E-02 
626	 8.00865936053514E-02 
627	 8.03868461810135E-02 
628	 8.06501342864075E-02 
629	 8.08704413150355E-02 
630	 8.11334268685619E-02 
631	 8.13113304888597E-02 
632	 8.14375789240829E-02 
633	 8.15766143340138E-02 
634	 0.081793638176395 
635	 8.19723251105655E-02 
636	 8.21406891957184E-02 
637	 8.23698478406076E-02 
638	 8.25426050756458E-02 
639	 8.26844718739784E-02 
640	 8.28516665957786E-02 
641	 0.083116946431607 
642	 8.33157048239833E-02 
643	 8.33991047043434E-02 
644	 8.34192078688031E-02 
645	 8.36305367671451E-02 
646	 8.38257352765303E-02 
647	 8.39910956315662E-02 
648	 8.42210831681093E-02 
649	 8.44221695589906E-02 
650	 8.45377617483556E-02 
651	 8.46038473554737E-02 
652	 8.47932613602405E-02 
653	 8.51084226634257E-02 
654	 8.54060617773225E-02 
655	 8.55423988512816E-02 
656	 8.55494137144318E-02 
657	 8.56479430617571E-02 
658	 8.58672465265283E-02 
659	 8.60864078526873E-02 
660	 0.086220430290267 
661	 0.086391901858058 
662	 8.66429946344235E-02 
663	 8.68238603801326E-02 
664	 8.69080741312906E-02 
665	 8.69962301636923E-02 
666	 0.087196240430526 
667	 8.73888411569992E-02 
668	 8.75163845173287E-02 
669	 8.76462811988666E-02 
670	 8.79357409171696E-02 
671	 0.088047411789919 
672	 8.81517231916382E-02 
673	 8.83841835235595E-02 
674	 8.85887755094706E-02 
675	 8.87740356833007E-02 
676	 8.89455895758447E-02 
677	 8.91228720576517E-02 
678	 8.93816869440828E-02 
679	 8.95779760988311E-02 
680	 8.97489896176188E-02 
681	 9.01132448091627E-02 
682	 9.02843742403129E-02 
683	 9.04542408292148E-02 
684	 0.090794543225038 
685	 9.11336680650947E-02 
686	 9.13075021065181E-02 
687	 9.14979104435497E-02 
688	 9.19609672233886E-02 
689	 9.21529736077754E-02 
690	 9.24140230563511E-02 
691	 0.092821160592516 
692	 9.30948872185861E-02 
693	 0.093484456856778 
694	 9.38881650589483E-02 
695	 9.42160628623902E-02 
696	 9.46242181967199E-02 
697	 9.50141858477924E-02 
698	 9.53627862240359E-02 
699	 9.56710956597951E-02 
700	 9.58641643815965E-02 
701	 9.61970495285166E-02 
702	 9.66965316922188E-02 
703	 9.70874715887147E-02 
704	 9.73070951085504E-02 
705	 9.74954300611684E-02 
706	 9.78026468410611E-02 
707	 9.82942786362806E-02 
708	 9.86149893896666E-02 
709	 9.88427268036294E-02 
710	 9.92094169008837E-02 
711	 9.94444730715363E-02 
712	 9.96293291484028E-02 
713	 9.98606964001172E-02 
714	 0.10021378668524 
715	 0.100604053823902 
716	 0.100903967137482 
717	 0.101097066064508 
718	 0.101530316982018 
719	 0.101721767709169 
720	 0.101850785469103 
721	 0.10230347523162 
722	 0.102571282426859 
723	 0.102749933647634 
724	 0.102977750094773 
725	 0.103369199986442 
726	 0.103604932481769 
727	 0.103754000033367 
728	 0.103968110971823 
729	 0.104400374256763 
730	 0.104708606388568 
731	 0.104857202880311 
732	 0.104967844887032 
733	 0.105199101506337 
734	 0.105554702448438 
735	 0.105876699479462 
736	 0.105903543940425 
737	 0.106143284628282 
738	 0.106419463259859 
739	 0.106590698535202 
740	 0.106833237949576 
741	 0.107132859678715 
742	 0.107366382078927 
743	 0.107453539722279 
744	 0.107691336458499 
745	 0.107917850445857 
746	 0.108090256850427 
747	 0.108262956975229 
748	 0.108361700859228 
749	 0.108543475169452 
750	 0.10882887376385 
751	 0.108964537290809 
752	 0.109045796433047 
753	 0.109185808498568 
754	 0.109438440712574 
755	 0.109641019191714 
756	 0.109767148183052 
757	 0.109907927558058 
758	 0.110200914746235 
759	 0.110507370355624 
760	 0.110711215547754 
761	 0.110694901176698 
762	 0.110594056423762 
763	 0.110626156051706 
764	 0.110727417484528 
765	 0.110810795379894 
766	 0.11085504548303 
767	 0.110874583927193 
768	 0.110985103934535 
769	 0.111244867070192 
770	 0.111300370888106 
771	 0.111367857798633 
772	 0.111523983266037 
773	 0.111693539390633 
774	 0.111693677426772 
775	 0.111690623642698 
776	 0.111783357434384 
777	 0.111864232203971 
778	 0.11186189275194 
779	 0.111892156079622 
780	 0.11204532756759 
781	 0.112139150511309 
782	 0.112120956490463 
783	 0.112159029216006 
784	 0.112437852950283 
785	 0.11236714452547 
786	 0.112419831459762 
787	 0.112634700861626 
788	 0.112529313920663 
789	 0.112661935026282 
790	 0.11276310956981 
791	 0.112660135511596 
792	 0.112706527449312 
793	 0.112747608877385 
794	 0.112866244416876 
795	 0.113108519139599 
796	 0.113121990796327 
797	 0.1130411479167 
798	 0.113029780038353 
799	 0.113194332397671 
800	 0.113143890397895 
801	 0.113096496634628 
802	 0.113146659418054 
803	 0.113180018515437 
804	 0.113222414478499 
805	 0.113307354973359 
806	 0.11342556848612 
807	 0.113488915194073 
808	 0.113339766090837 
809	 0.113258590071033 
810	 0.113483781787827 
811	 0.113506352407316 
812	 0.113566556766686 
813	 0.113617709022398 
814	 0.113486507644939 
815	 0.113423445321992 
816	 0.113477373030133 
817	 0.113596808144774 
818	 0.113644165943515 
819	 0.113500809249131 
820	 0.113560172830908 
821	 0.113859595256438 
822	 0.113721483827885 
823	 0.113534827839959 
824	 0.113485887440212 
825	 0.113630585166271 
826	 0.113841838894992 
827	 0.1138473360566 
828	 0.11378160084854 
829	 0.113882280280929 
830	 0.113881786029589 
831	 0.113840136272676 
832	 0.113839340974773 
833	 0.113949820695737 
834	 0.114140240357669 
835	 0.114160566458353 
836	 0.114105124845997 
837	 0.114441644661065 
838	 0.114236749040785 
839	 0.11410198347658 
840	 0.114411000505313 
841	 0.114484846737656 
842	 0.114314313527382 
843	 0.114200634198726 
844	 0.114389141593616 
845	 0.114617177996597 
846	 0.114529172619087 
847	 0.11442723360461 
848	 0.114721194234311 
849	 0.114642764689141 
850	 0.114639986773823 
851	 0.11478021149777 
852	 0.114825111663499 
853	 0.114945053887894 
854	 0.114878983404688 
855	 0.114714124267761 
856	 0.114924398457212 
857	 0.115148334154256 
858	 0.11537323930211 
859	 0.115566277946796 
860	 0.115569096944802 
861	 0.115494814395953 
862	 0.115514356316273 
863	 0.115669365603768 
864	 0.115647746422848 
865	 0.11555666729054 
866	 0.115599311922756 
867	 0.115882550851788 
868	 0.11602499110655 
869	 0.116095946229602 
870	 0.116117449593371 
871	 0.116127776009616 
872	 0.11635117452283 
873	 0.116512354659588 
874	 0.116635554370525 
875	 0.116901599713441 
876	 0.116834282861257 
877	 0.116673373710083 
878	 0.116663701115321 
879	 0.116909464849714 
880	 0.116761253624511 
881	 0.116988099949795 
882	 0.117614286466237 
883	 0.117459965233702 
884	 0.117436874251587 
885	 0.117605598813955 
886	 0.117830840612353 
887	 0.117944464513855 
888	 0.117990354725231 
889	 0.118061237417129 
890	 0.118210379987675 
891	 0.118357693299435 
892	 0.118488411679154 
893	 0.118636789703426 
894	 0.118821439027932 
895	 0.118949053794079 
896	 0.118915830964765 
897	 0.119089446569869 
898	 0.119731700006002 
899	 0.119669462940842 
900	 0.11987296000395 
901	 0.120235049831661 
902	 0.120229819243097 
903	 0.120540600663608 
904	 0.120892394659938 
905	 0.120909586643705 
906	 0.120435639466779 
907	 0.120818794306387 
908	 0.121310522087612 
909	 0.12147398868455 
910	 0.121408956145418 
911	 0.122002017705725 
912	 0.122313453358062 
913	 0.122196555189146 
914	 0.122412573851832 
915	 0.122769954330573 
916	 0.12291455532065 
917	 0.122765706191341 
918	 0.122621425562505 
919	 0.123114764628695 
920	 0.123779686273057 
921	 0.124227720223158 
922	 0.124432008401764 
923	 0.124352529440012 
924	 0.124597723884608 
925	 0.125213848558486 
926	 0.125248805575523 
927	 0.125129484329789 
928	 0.12502741040095 
929	 0.125026621442499 
930	 0.125111169807142 
931	 0.125161435105689 
932	 0.125345362368704 
933	 0.125537177875248 
934	 0.124855889030688 
935	 0.125107486138297 
936	 0.126817478875096 
937	 0.128736754762102 
938	 0.127606103490133 
939	 0.127880909838148 
940	 0.128830326305062 
941	 0.128959135086829 
942	 0.127707315757407 
943	 0.127711694657836 
944	 0.127819292503441 
945	 0.127501826269029 
946	 0.129700904312914 
947	 0.129844527976893 
948	 0.128828076908969 
949	 0.128687143211442 
950	 0.130349494392274 
951	 0.130958218636843 
952	 0.131454380520218 
953	 0.132376337570554 
954	 0.131429634304212 
955	 0.132028067981957 
956	 0.133281777024647 
957	 0.134037162755592 
958	 0.134906508447341 
959	 0.13470291097293 
960	 0.134516758638144 
961	 0.135019881122583 
962	 0.135157976147764 
963	 0.134495245901718 
964	 0.134935257271345 
965	 0.136621195460757 
966	 0.136198792022905 
967	 0.13630181611372 
968	 0.137101446079593 
969	 0.137929677158445 
970	 0.137779466396341 
971	 0.138170532973926 
972	 0.138598409308397 
973	 0.13897484794935 
974	 0.140212151308045 
975	 0.139728448545158 
976	 0.139483831414423 
977	 0.139998657357345 
978	 0.139144821956309 
979	 0.139667124553373 
980	 0.140456367991653 
981	 0.141069566330458 
982	 0.142130433372601 
983	 0.14037571466504 
984	 0.139794151602537 
985	 0.141918769166507 
986	 0.14469728242152 
987	 0.145143029201343 
988	 0.143654458387023 
989	 0.142603114619092 
990	 0.144365327572674 
991	 0.144418613292098 
992	 0.144895234395345 
993	 0.145972235784483 
994	 0.146520380149674 
995	 0.147334420506888 
996	 0.147282307065559 
997	 0.146129641204431 
998	 0.144939112905829 
999	 0.147640412251093 
1000	 0.147673736941484 
1001	 0.152437679665211 
1002	 0.152718862317968 
1003	 0.153134151929486 
1004	 0.153742824961221 
1005	 0.154134055748699 
1006	 0.154390315636516 
1007	 0.154746168780507 
1008	 0.154989567740166 
1009	 0.155320287202072 
1010	 0.155713487463484 
1011	 0.15621061355125 
1012	 0.15666874242648 
1013	 0.157147969759828 
1014	 0.157529131949942 
1015	 0.157880368753665 
1016	 0.158244269734111 
1017	 0.15850023829983 
1018	 0.158798994287304 
1019	 0.159110182835826 
1020	 0.159440787873057 
1021	 0.159735364494966 
1022	 0.160110479337682 
1023	 0.160508717995284 
1024	 0.161064774464948 
1025	 0.161588888627475 
1026	 0.162064239364731 
1027	 0.162485403858639 
1028	 0.162776992185037 
1029	 0.163211052560811 
1030	 0.163606407608116 
1031	 0.163902819992318 
1032	 0.164415282006722 
1033	 0.164894022708701 
1034	 0.165310868982581 
1035	 0.16568482337067 
1036	 0.16611938446164 
1037	 0.166515279048709 
1038	 0.16670002912753 
1039	 0.167197281718174 
1040	 0.167947294993315 
1041	 0.168495925401718 
1042	 0.16893096929326 
1043	 0.169193464349634 
1044	 0.169339948244468 
1045	 0.169691660762635 
1046	 0.170229669305601 
1047	 0.170749066489536 
1048	 0.171221568744635 
1049	 0.171557752428241 
1050	 0.171923932739254 
1051	 0.172173589541239 
1052	 0.17265501668288 
1053	 0.173186905364537 
1054	 0.173697307340022 
1055	 0.174175723431113 
1056	 0.174474243806851 
1057	 0.174876984364363 
1058	 0.1753439426754 
1059	 0.175673713771019 
1060	 0.176091243788565 
1061	 0.176519374799482 
1062	 0.176829725572862 
1063	 0.177191230372102 
1064	 0.17759184566235 
1065	 0.177908899763687 
1066	 0.17809904222374 
1067	 0.178313325189505 
1068	 0.178618602932463 
1069	 0.1788541898898 
1070	 0.179133863746687 
1071	 0.17941925696844 
1072	 0.179774921153384 
1073	 0.180240635194685 
1074	 0.180559641236331 
1075	 0.180842036010015 
1076	 0.181124082757484 
1077	 0.181320480944257 
1078	 0.181532809627386 
1079	 0.181808990767409 
1080	 0.18215873153921 
1081	 0.182484534078075 
1082	 0.182791166249938 
1083	 0.183206763850876 
1084	 0.183651986436518 
1085	 0.183896621019824 
1086	 0.184167800445722 
1087	 0.184483641713819 
1088	 0.184760392458447 
1089	 0.185122626230176 
1090	 0.185556665195367 
1091	 0.185893309139228 
1092	 0.186147278612524 
1093	 0.186450738222515 
1094	 0.186750561369131 
1095	 0.187103605111921 
1096	 0.1874347833885 
1097	 0.187763247437227 
1098	 0.188126980067222 
1099	 0.188510247346834 
1100	 0.188858063959424 
1101	 0.189256750334664 
1102	 0.189694539935398 
1103	 0.189977424847425 
1104	 0.190315913961324 
1105	 0.190701901581165 
1106	 0.191033913504741 
1107	 0.191392047682561 
1108	 0.19175787135676 
1109	 0.192025077166985 
1110	 0.192268196268735 
1111	 0.192583205453467 
1112	 0.192961688149246 
1113	 0.193280200279359 
1114	 0.193642113960968 
1115	 0.193998834609333 
1116	 0.194296410460774 
1117	 0.194617073445156 
1118	 0.195100382890784 
1119	 0.195640160982464 
1120	 0.196146745205918 
1121	 0.196681357151311 
1122	 0.197117338263227 
1123	 0.197546309135742 
1124	 0.198016522681108 
1125	 0.198378494576892 
1126	 0.198785416150552 
1127	 0.199086825216511 
1128	 0.199550151191367 
1129	 0.200171237294597 
1130	 0.20059901785016 
1131	 0.200924200465851 
1132	 0.201324768152697 
1133	 0.201657531074584 
1134	 0.201985783057262 
1135	 0.202413133390682 
1136	 0.203106481513413 
1137	 0.203617010327177 
1138	 0.203884793479222 
1139	 0.204363498609712 
1140	 0.204791863649743 
1141	 0.20513102450954 
1142	 0.205656800987267 
1143	 0.206064516333286 
1144	 0.206329378488931 
1145	 0.206730139047128 
1146	 0.207173191333343 
1147	 0.207614567119755 
1148	 0.208088962933545 
1149	 0.208558737308983 
1150	 0.208944781187762 
1151	 0.209468809369094 
1152	 0.210160646909177 
1153	 0.210622586219368 
1154	 0.210968344576487 
1155	 0.211435243134757 
1156	 0.211690574013569 
1157	 0.211999942607613 
1158	 0.21251289092312 
1159	 0.212911828191843 
1160	 0.21331560745685 
1161	 0.213741320038936 
1162	 0.214137990687522 
1163	 0.214531651172788 
1164	 0.214869740990014 
1165	 0.215142713973384 
1166	 0.215480594177478 
1167	 0.215863813462345 
1168	 0.216180402097023 
1169	 0.216480330081411 
1170	 0.216829408871654 
1171	 0.217181920663526 
1172	 0.217457965911545 
1173	 0.217784160342347 
1174	 0.218159491702704 
1175	 0.2184817355021 
1176	 0.218820660508863 
1177	 0.219169289868248 
1178	 0.219583353743633 
1179	 0.219895446155744 
1180	 0.220153970709336 
1181	 0.220436260272171 
1182	 0.220672744423392 
1183	 0.220970876496016 
1184	 0.221318461610075 
1185	 0.221616503098295 
1186	 0.221889672835822 
1187	 0.222183902137402 
1188	 0.222479551522551 
1189	 0.22275163708063 
1190	 0.22304517006061 
1191	 0.223387427794025 
1192	 0.223712609042193 
1193	 0.224030261924395 
1194	 0.224336693299653 
1195	 0.224660702637527 
1196	 0.224941376075578 
1197	 0.225200313798282 
1198	 0.22544034236705 
1199	 0.225632419116707 
1200	 0.225873344297194 
1201	 0.226105459759968 
1202	 0.226362717509365 
1203	 0.226684564491232 
1204	 0.22695189649109 
1205	 0.227189607545673 
1206	 0.227428003366703 
1207	 0.227648266493063 
1208	 0.227868143033679 
1209	 0.228071334233172 
1210	 0.228309435982199 
1211	 0.228525028446239 
1212	 0.228689784068312 
1213	 0.228882068852852 
1214	 0.22905259897672 
1215	 0.229273670893316 
1216	 0.229529516725535 
1217	 0.229767993708774 
1218	 0.230045353669257 
1219	 0.230266851148315 
1220	 0.230475467181616 
1221	 0.230640818001259 
1222	 0.230730374872239 
1223	 0.23088607116486 
1224	 0.231010115659635 
1225	 0.231202429715265 
1226	 0.23150982401955 
1227	 0.231738073132624 
1228	 0.231962294038448 
1229	 0.23217106712656 
1230	 0.232340180048883 
1231	 0.232473666339054 
1232	 0.23263093936553 
1233	 0.232787800223284 
1234	 0.232959170137359 
1235	 0.233124555889587 
1236	 0.233324061739444 
1237	 0.233557621872411 
1238	 0.233765226524742 
1239	 0.233999428274984 
1240	 0.234195356455453 
1241	 0.234387177367633 
1242	 0.234533271391626 
1243	 0.234632185848422 
1244	 0.23473536079359 
1245	 0.234712260848514 
1246	 0.234857325032714 
1247	 0.235180382172534 
1248	 0.235367845080974 
1249	 0.235579429728073 
1250	 0.235783289813552 
1251	 0.235884799349221 
1252	 0.23597485251978 
1253	 0.236135716722928 
1254	 0.236369659073401 
1255	 0.236582678181369 
1256	 0.236788226289291 
1257	 0.237038391412327 
1258	 0.237382372362018 
1259	 0.237604019809239 
1260	 0.237787862614278 
1261	 0.237977971895036 
1262	 0.238054610688556 
1263	 0.238243322077344 
1264	 0.238518828731104 
1265	 0.238758216205806 
1266	 0.239049710435386 
1267	 0.239273952279765 
1268	 0.239467520813766 
1269	 0.239624614159414 
1270	 0.239699301423247 
1271	 0.239807017233808 
1272	 0.239905068152761 
1273	 0.239980965945489 
1274	 0.24012050963499 
1275	 0.240332401502949 
1276	 0.24041987673593 
1277	 0.240456571149758 
1278	 0.240572444983589 
1279	 0.240662190774749 
1280	 0.240752286011002 
1281	 0.240920256932469 
1282	 0.241032537961576 
1283	 0.241065846921528 
1284	 0.241141106524568 
1285	 0.241286589284524 
1286	 0.241346341659391 
1287	 0.241342761173868 
1288	 0.241359328212285 
1289	 0.241328576644129 
1290	 0.2413375893024 
1291	 0.241430489198335 
1292	 0.241423867082938 
1293	 0.241322200123945 
1294	 0.241298367551734 
1295	 0.241261066269012 
1296	 0.241208226684978 
1297	 0.241236242023883 
1298	 0.24138952702888 
1299	 0.241415255090053 
1300	 0.241410899749702 
1301	 0.241405728681922 
1302	 0.241340149755833 
1303	 0.241343888605292 
1304	 0.24138809376106 
1305	 0.241401466757517 
1306	 0.241417560173087 
1307	 0.241445898550467 
1308	 0.241449208706226 
1309	 0.241495283431646 
1310	 0.241643954243814 
1311	 0.241671216840003 
1312	 0.241619871850044 
1313	 0.241614379288248 
1314	 0.241510128107504 
1315	 0.241511572041342 
1316	 0.24165951601044 
1317	 0.241728678956317 
1318	 0.241796903679588 
1319	 0.241856511234733 
1320	 0.241874109013091 
1321	 0.241871107675535 
1322	 0.241945361698453 
1323	 0.242068340286148 
1324	 0.242164841612488 
1325	 0.24229412977186 
1326	 0.242411871083099 
1327	 0.242553469389587 
1328	 0.242611408466926 
1329	 0.242654499856459 
1330	 0.242657504872008 
1331	 0.242498268890804 
1332	 0.242499601429672 
1333	 0.242567264785374 
1334	 0.242641984559441 
1335	 0.242795884068073 
1336	 0.242933701619149 
1337	 0.243096685074712 
1338	 0.243228007642233 
1339	 0.243429352975666 
1340	 0.24352082977839 
1341	 0.24347835070083 
1342	 0.243495351395297 
1343	 0.24347645758169 
1344	 0.243440808574249 
1345	 0.243382888336684 
1346	 0.24342526841175 
1347	 0.243365164782665 
1348	 0.243120144251909 
1349	 0.242907541845022 
1350	 0.242567800668485 
1351	 0.242273383179024 
1352	 0.241873633701947 
1353	 0.24164349425306 
1354	 0.242065304909931 
1355	 0.241910059884338 
1356	 0.241597586356984 
1357	 0.241120290660755 
1358	 0.238481845761908 
1359	 0.237317943875891 
1360	 0.242225800729736 
1361	 0.242230815632862 
1362	 0.2387012570756 
1363	 0.237100257976636 
1364	 0.224195155167391 
1365	 0.222975384573761 
1366	 0.242341666096838 
1367	 0.245583650304494 
1368	 0.2465986030268 
1369	 0.244038755998776 
1370	 0.231549573800666 
1371	 0.229303561929653 
1372	 0.230595438186647 
1373	 0.231183700628071 
1374	 0.232848341446258 
1375	 0.237718255037894 
1376	 0.236360264874279 
1377	 0.238973596992889 
1378	 0.242073451629911 
1379	 0.247862143844875 
1380	 0.248106599952656 
1381	 0.247532537794962 
1382	 0.246857867568495 
1383	 0.242364067373908 
1384	 0.241418534793106 
1385	 0.243911301106986 
1386	 0.242808430632475 
1387	 0.241543615159195 
1388	 0.237593570051424 
1389	 0.228562730947066 
1390	 0.228783077067867 
1391	 0.232203077951517 
1392	 0.233711192310639 
1393	 0.240343134417414 
1394	 0.241830191708138 
1395	 0.23735770692648 
1396	 0.237418417249362 
1397	 0.23952043306396 
1398	 0.240245501335997 
1399	 0.241875061579551 
1400	 0.242774456890133 
1401	 0.243081431417127 
1402	 0.242627737265597 
1403	 0.2415610837359 
1404	 0.24092912984538 
1405	 0.240022201515155 
1406	 0.238472471532183 
1407	 0.238597246120709 
1408	 0.240098532322242 
1409	 0.240952134480495 
1410	 0.242702870764024 
1411	 0.242788273315981 
1412	 0.242205278821127 
1413	 0.242083419656213 
1414	 0.24144336639151 
1415	 0.241470775617127 
1416	 0.242092068217032 
1417	 0.242394113633473 
1418	 0.24260597266004 
1419	 0.242747060103357 
1420	 0.242835965853824 
1421	 0.242934064107581 
1422	 0.242983373961889 
1423	 0.243121025139091 
1424	 0.243371373009486 
1425	 0.243484658615722 
1426	 0.243509370897916 
1427	 0.243612689847527 
1428	 0.243630963068175 
1429	 0.243806093242906 
1430	 0.244363475564617 
1431	 0.244439632621378 
1432	 0.244182155271863 
1433	 0.244191836707367 
1434	 0.243970657791339 
1435	 0.243963619736507 
1436	 0.244452424550205 
1437	 0.24461735833425 
1438	 0.244564352798602 
1439	 0.244602237577965 
1440	 0.244550909952388 
1441	 0.244570363098746 
1442	 0.2446234586417 
1443	 0.244722929181789 
1444	 0.245169570024112 
1445	 0.245236120649043 
1446	 0.245171753362451 
1447	 0.245418401215762 
1448	 0.245609545542456 
1449	 0.245645140724986 
1450	 0.245952367555258 
1451	 0.246540533001974 
1452	 0.246763755514479 
1453	 0.246923578701667 
1454	 0.247014297478009 
1455	 0.246979555328032 
1456	 0.246987437928918 
1457	 0.246905763795632 
1458	 0.247044977235331 
1459	 0.247318083766184 
1460	 0.247438881054517 
1461	 0.247644137093901 
1462	 0.247793650047894 
1463	 0.247789188046333 
1464	 0.247866740868802 
1465	 0.248116562575333 
1466	 0.248185722837619 
1467	 0.248084846911861 
1468	 0.248055063569844 
1469	 0.247946308966259 
1470	 0.247916408001066 
1471	 0.247883304491692 
1472	 0.247983320335175 
1473	 0.248270059130771 
1474	 0.248406404319736 
1475	 0.248483360950595 
1476	 0.248647809675915 
1477	 0.248625905842753 
1478	 0.248878724645897 
1479	 0.249577839622515 
1480	 0.249894771923882 
1481	 0.250100299821881 
1482	 0.250325904249502 
1483	 0.250293081173933 
1484	 0.250391446622188 
1485	 0.250649489185786 
1486	 0.250841134188201 
1487	 0.250926452232081 
1488	 0.251116387953947 
1489	 0.251514779563928 
1490	 0.251840457915528 
1491	 0.251986235708285 
1492	 0.252213009191928 
1493	 0.252375242711443 
1494	 0.252364725534063 
1495	 0.25251218717344 
1496	 0.252817757791639 
1497	 0.25294611677004 
1498	 0.252981957716415 
1499	 0.253112767087011 
1500	 0.253240235993343 
1501	 0.253374305147623 
1502	 0.25356139532094 
1503	 0.253704070914748 
1504	 0.253823761574785 
1505	 0.253937055480033 
1506	 0.254039254680108 
1507	 0.254147360613866 
1508	 0.254244711594819 
1509	 0.254324660005776 
1510	 0.25436654164933 
1511	 0.254512360989811 
1512	 0.25468155359294 
1513	 0.254865115745933 
1514	 0.255178175980038 
1515	 0.255357547468229 
1516	 0.255477703181611 
1517	 0.255584847928089 
1518	 0.255620009928868 
1519	 0.255704704606342 
1520	 0.255779004489969 
1521	 0.255880800310774 
1522	 0.25603167433184 
1523	 0.25614362173293 
1524	 0.256247943226774 
1525	 0.256349675249129 
1526	 0.256440643659837 
1527	 0.256527592106217 
1528	 0.256654335020559 
1529	 0.256691341557992 
1530	 0.256591938109475 
1531	 0.256645475775397 
1532	 0.256737813262434 
1533	 0.256818137532039 
1534	 0.25701307260975 
1535	 0.257151693828825 
1536	 0.257227226425072 
1537	 0.257315152175914 
1538	 0.257403852522785 
1539	 0.25751408261499 
1540	 0.257617478114064 
1541	 0.257722921777039 
1542	 0.25792687052185 
1543	 0.258003318112787 
1544	 0.257919907651679 
1545	 0.257961831904615 
1546	 0.258020441463463 
1547	 0.258064308552675 
1548	 0.258203773515338 
1549	 0.258294603976886 
1550	 0.258333477415982 
1551	 0.258347698382094 
1552	 0.258324681277981 
1553	 0.258339493674991 
1554	 0.258330135271926 
1555	 0.258335248353602 
1556	 0.258377815551133 
1557	 0.258434349612849 
1558	 0.258509339016553 
1559	 0.25856102210888 
1560	 0.258596622347747 
1561	 0.258674652364348 
1562	 0.25876438486688 
1563	 0.258843162367037 
1564	 0.258934835395277 
1565	 0.259088141004884 
1566	 0.259133826374811 
1567	 0.25918783577007 
1568	 0.259273060275351 
1569	 0.259387530270114 
1570	 0.259426912205483 
1571	 0.25945430628388 
1572	 0.259488278531267 
1573	 0.259454224299068 
1574	 0.259509287694811 
1575	 0.259617450434235 
1576	 0.259732354721559 
1577	 0.259888618749321 
1578	 0.259969054586753 
1579	 0.260067203717613 
1580	 0.260079038448867 
1581	 0.259982805508804 
1582	 0.259992295758735 
1583	 0.259997248188443 
1584	 0.260050162161743 
1585	 0.260159919206005 
1586	 0.26025501259372 
1587	 0.260368792759531 
1588	 0.26046445086578 
1589	 0.260575941492996 
1590	 0.260651834531673 
1591	 0.260704963066905 
1592	 0.260753610885218 
1593	 0.260792030164309 
1594	 0.2608087465536 
1595	 0.260772927834751 
1596	 0.260843797268385 
1597	 0.260947258413248 
1598	 0.261044210558447 
1599	 0.261204537478387 
1600	 0.261347420327639 
1601	 0.261492905195655 
1602	 0.261565947096782 
1603	 0.261641559470768 
1604	 0.261689888016463 
1605	 0.261647923439506 
1606	 0.26163968192335 
1607	 0.261639414086588 
1608	 0.261686202441154 
1609	 0.261720573754856 
1610	 0.261791896065883 
1611	 0.261952770381373 
1612	 0.262027618382372 
1613	 0.262062401514971 
1614	 0.262104327426881 
1615	 0.262145728825292 
1616	 0.262151307535677 
1617	 0.262086972980885 
1618	 0.26215383430646 
1619	 0.262280035888899 
1620	 0.2623469543173 
1621	 0.262471527687182 
1622	 0.262543864609036 
1623	 0.262524423344447 
1624	 0.262578877111701 
1625	 0.262695062561602 
1626	 0.262756931159465 
1627	 0.262790791550114 
1628	 0.262852410455568 
1629	 0.262917413193592 
1630	 0.262988172647806 
1631	 0.263091541514134 
1632	 0.263123344294189 
1633	 0.263108025309229 
1634	 0.263140994572314 
1635	 0.263128075410296 
1636	 0.26320482744085 
1637	 0.263366478002443 
1638	 0.263480208099653 
1639	 0.263649003332754 
1640	 0.263705696605066 
1641	 0.263709594483776 
1642	 0.263681536939436 
1643	 0.26351916911059 
1644	 0.263558992881162 
1645	 0.263689954489747 
1646	 0.263705098093282 
1647	 0.263784751181296 
1648	 0.263849210213759 
1649	 0.263786400578417 
1650	 0.263893629945373 
1651	 0.264134094500917 
1652	 0.264218070047327 
1653	 0.264263667749061 
1654	 0.264383694463803 
1655	 0.264519585292373 
1656	 0.264591180885824 
1657	 0.264696190417056 
1658	 0.264660530455323 
1659	 0.264622611083224 
1660	 0.264540172585495 
1661	 0.264508429922833 
1662	 0.264478481615116 
1663	 0.264533851405653 
1664	 0.264765246774777 
1665	 0.264870823757725 
1666	 0.264869484657221 
1667	 0.264784727866577 
1668	 0.26462116146931 
1669	 0.264650557504177 
1670	 0.264659873434906 
1671	 0.264630237111033 
1672	 0.264703312133215 
1673	 0.264628996443408 
1674	 0.2646979229589 
1675	 0.264824931238568 
1676	 0.264750398844555 
1677	 0.264769230225038 
1678	 0.264807554137625 
1679	 0.264878153015178 
1680	 0.265044427332759 
1681	 0.265112279568171 
1682	 0.26497121839489 
1683	 0.264802264871358 
1684	 0.264754779491682 
1685	 0.264770527214493 
1686	 0.264977186040305 
1687	 0.265182307656365 
1688	 0.265203151526514 
1689	 0.265297217528176 
1690	 0.265328495431503 
1691	 0.26539170261996 
1692	 0.26552549380872 
1693	 0.265566901918795 
1694	 0.265554578847028 
1695	 0.265590391436484 
1696	 0.265537809884793 
1697	 0.265644682131692 
1698	 0.26592552398055 
1699	 0.266061665215426 
1700	 0.266253886182755 
1701	 0.266388341458009 
1702	 0.266351535778988 
1703	 0.266431147164122 
1704	 0.266621842921579 
1705	 0.266635021090351 
1706	 0.266577232053161 
1707	 0.266535688859878 
1708	 0.266327621670526 
1709	 0.266335045424776 
1710	 0.266556970952268 
1711	 0.26659626131363 
1712	 0.266615192493416 
1713	 0.266637746088529 
1714	 0.26651128134738 
1715	 0.266545994891117 
1716	 0.266796890434018 
1717	 0.266827623059062 
1718	 0.266764841419742 
1719	 0.266723050156869 
1720	 0.266585099554451 
1721	 0.266434569268509 
1722	 0.266214136928736 
1723	 0.266253605138732 
1724	 0.266476690753777 
1725	 0.266425143917524 
1726	 0.266456532089406 
1727	 0.266419181774377 
1728	 0.265969018213827 
1729	 0.265994318403174 
1730	 0.266448757425091 
1731	 0.266507667849865 
1732	 0.26654297975747 
1733	 0.266581720373564 
1734	 0.26638609535086 
1735	 0.266289949606371 
1736	 0.266388028218411 
1737	 0.266410954473996 
1738	 0.266344347186512 
1739	 0.266322921730086 
1740	 0.266387645150681 
1741	 0.26637769861054 
1742	 0.266407026869202 
1743	 0.26640906965675 
1744	 0.266243952695251 
1745	 0.26615801296999 
1746	 0.266184717404261 
1747	 0.266275849702318 
1748	 0.266459007416831 
1749	 0.266617886739284 
1750	 0.266709148284043 
1751	 0.266798886749264 
1752	 0.266827110007417 
1753	 0.266768797752157 
1754	 0.266838968772786 
1755	 0.266958676523383 
1756	 0.26707941437971 
1757	 0.267163662130049 
1758	 0.267320628505592 
1759	 0.26753063661247 
1760	 0.26763925666509 
1761	 0.267894457355847 
1762	 0.267900317160616 
1763	 0.267588138478474 
1764	 0.267542264805511 
1765	 0.267416692884503 
1766	 0.267453169883705 
1767	 0.26774191626551 
1768	 0.267889931678178 
1769	 0.268078084150875 
1770	 0.268197723461842 
1771	 0.268307152231725 
1772	 0.268311591094523 
1773	 0.268255243911895 
1774	 0.267978292054616 
1775	 0.267779969240842 
1776	 0.267706765143576 
1777	 0.267287295969967 
1778	 0.267115444013834 
1779	 0.26735638851174 
1780	 0.267437801284419 
1781	 0.267626216850367 
1782	 0.268114833854601 
1783	 0.268275504545315 
1784	 0.268405166749832 
1785	 0.268732513203165 
1786	 0.268453332151227 
1787	 0.268293444005493 
1788	 0.268326606045393 
1789	 0.268348295684499 
1790	 0.26893965795576 
1791	 0.269001380840624 
1792	 0.268573534440495 
1793	 0.268482104142037 
1794	 0.268368532332673 
1795	 0.268333664399176 
1796	 0.268833640036612 
1797	 0.268984228825849 
1798	 0.268764721863271 
1799	 0.269513662880783 
1800	 0.269360854209034 
1801	 0.26677965045557 
1802	 0.265678486625385 
1803	 0.265130957879657 
1804	 0.265560680251417 
1805	 0.265505163005334 
1806	 0.264730784519618 
1807	 0.264553331537045 
1808	 0.264616192836788 
1809	 0.265384408592385 
1810	 0.265978766915041 
1811	 0.267065390594771 
1812	 0.267641878266657 
1813	 0.268435851533228 
1814	 0.268679323032413 
1815	 0.267642036520276 
1816	 0.267677461117958 
1817	 0.267587254294072 
1818	 0.268038045333871 
1819	 0.269116566187485 
1820	 0.272060138656757 
1821	 0.273260277496298 
1822	 0.274337806991846 
1823	 0.27480816745637 
1824	 0.271997295787205 
1825	 0.272749879061493 
1826	 0.27635036430337 
1827	 0.279298867216087 
1828	 0.283727524764296 
1829	 0.295701049346953 
1830	 0.300175592610498 
1831	 0.29492373322131 
1832	 0.298118890446195 
1833	 0.303064817083755 
1834	 0.302630061707247 
1835	 0.295740760808568 
1836	 0.301155871216852 
1837	 0.305708963502902 
1838	 0.30718285125557 
1839	 0.314762810021071 
1840	 0.362254153739229 
1841	 0.361031184397815 
1842	 0.313948784748848 
1843	 0.306343868862044 
1844	 0.301486152024765 
1845	 0.30268221125177 
1846	 0.322882023725266 
1847	 0.334077530147344 
1848	 0.343326815817022 
1849	 0.34601762009588 
1850	 0.3503844838145 
1851	 0.356635284767127 
1852	 0.360676157666173 
1853	 0.389350252961219 
1854	 0.373785328103266 
1855	 0.310450547619035 
1856	 0.288495755372438 
1857	 0.264080813739269 
1858	 0.236124653460735 
1859	 0.247548312558967 
1860	 0.311388205262379 
1861	 0.317053080197764 
1862	 0.3059298400221 
1863	 0.309061014587026 
1864	 0.301443307217398 
1865	 0.288874676364598 
1866	 0.284777862823329 
1867	 0.273634039150132 
1868	 0.254376949880175 
1869	 0.278187876785967 
1870	 0.304763770247825 
1871	 0.403607822811359 
1872	 0.421886186265679 
1873	 0.422029391122214 
1874	 0.392826620878904 
1875	 0.327332720707957 
1876	 0.292291220326831 
1877	 0.263808893829998 
1878	 0.235828267797065 
1879	 0.234885688094711 
1880	 0.243989474279403 
1881	 0.254168817517101 
1882	 0.283919980129861 
1883	 0.289437036489876 
1884	 0.288246814402896 
1885	 0.286977267499573 
1886	 0.279561191729907 
1887	 0.271640665616439 
1888	 0.263770349112513 
1889	 0.25429779543062 
1890	 0.252309404351141 
1891	 0.254083206858159 
1892	 0.250406651936701 
1893	 0.249269369888274 
1894	 0.248192445035376 
1895	 0.233124904724859 
1896	 0.235707648294188 
1897	 0.252226912189699 
1898	 0.285160539076526 
1899	 0.316103020106153 
1900	 0.327942910890318 
1901	 0.338847717977305 
1902	 0.323322728398912 
1903	 0.312435973297838 
1904	 0.285755604688083 
1905	 0.281027131674086 
1906	 0.286652319429084 
1907	 0.281792214744516 
1908	 0.286082975476953 
1909	 0.278950405011424 
1910	 0.262823464611332 
1911	 0.239822514612399 
1912	 0.235260500851566 
1913	 0.239058748599234 
1914	 0.243540107775709 
1915	 0.254056487376933 
1916	 0.255888283822984 
1917	 0.256629347046589 
1918	 0.254945910481526 
1919	 0.251327909705719 
1920	 0.247653102260377 
1921	 0.248749640871618 
1922	 0.249879766653468 
1923	 0.252755471253448 
1924	 0.25884836208967 
1925	 0.260211644520802 
1926	 0.26289244918292 
1927	 0.262843822704579 
1928	 0.258406511710836 
1929	 0.257020146593306 
1930	 0.257489907524674 
1931	 0.25434861900995 
1932	 0.254228980916011 
1933	 0.255248122098767 
1934	 0.255109342890826 
1935	 0.254267652856191 
1936	 0.254692477443985 
1937	 0.25556853870012 
1938	 0.255322270363233 
1939	 0.25478430762019 
1940	 0.255709601630505 
1941	 0.255023621921484 
1942	 0.25501474979646 
1943	 0.255251571010842 
1944	 0.254476434421926 
1945	 0.255143091251938 
1946	 0.256417291184595 
1947	 0.256776369527471 
1948	 0.257508068943314 
1949	 0.258038148680551 
1950	 0.258114996575993 
1951	 0.257356973156802 
1952	 0.257463782382609 
1953	 0.257245758293887 
1954	 0.256302394405203 
1955	 0.257571053002746 
1956	 0.259750990877954 
1957	 0.2607197474393 
1958	 0.261659688704793 
1959	 0.263045645369101 
1960	 0.263109075265518 
1961	 0.261953771138918 
1962	 0.261853512954103 
1963	 0.262070123558157 
1964	 0.262012032121763 
1965	 0.26222891586158 
1966	 0.262958997923595 
1967	 0.263358995818429 
1968	 0.263231292390791 
1969	 0.263416525730991 
1970	 0.263680310484533 
1971	 0.263798965342744 
1972	 0.263823270769014 
1973	 0.264294044418855 
1974	 0.26438762962878 
1975	 0.264332757125557 
1976	 0.264434100378692 
1977	 0.264464272789595 
1978	 0.264239053161421 
1979	 0.264442399625034 
1980	 0.264646884347096 
1981	 0.264327034096843 
1982	 0.264348634094682 
1983	 0.264614743360772 
1984	 0.264569322455305 
1985	 0.264626111202701 
1986	 0.264991472581347 
1987	 0.264764494465804 
1988	 0.264590447762187 
1989	 0.264176565308813 
1990	 0.263969464424915 
1991	 0.264496275994 
1992	 0.264593272226275 
1993	 0.26437511169419 
1994	 0.264199310240042 
1995	 0.264003808627745 
1996	 0.263225678864773 
1997	 0.263063358137625 
1998	 0.263268450145922 
1999	 0.263153437708186 
2000	 0.263256426498007 
2001	 0.263365221127209 
2002	 0.264702328379666 
2003	 0.266347251078234 
2004	 0.267440355729475 
2005	 0.269381389636517 
2006	 0.270774500471192 
2007	 0.271648077710012 
2008	 0.2720284588806 
2009	 0.272357074468812 
2010	 0.272475196621593 
2011	 0.271858235818058 
2012	 0.271890083329478 
2013	 0.273494904303958 
2014	 0.274377598047105 
2015	 0.275333698698272 
2016	 0.275892057881997 
2017	 0.27580120069286 
2018	 0.275691116448024 
2019	 0.275688116986785 
2020	 0.275584505858516 
2021	 0.276191103487721 
2022	 0.276346697829752 
2023	 0.276074291731242 
2024	 0.276036526193757 
2025	 0.275705828509664 
2026	 0.275287013303106 
2027	 0.27543733215627 
2028	 0.275305714301699 
2029	 0.274753593230743 
2030	 0.274483250470733 
2031	 0.274202987452094 
2032	 0.274069101527842 
2033	 0.274068493371793 
2034	 0.274210876891023 
2035	 0.274375098058932 
2036	 0.274322645490767 
2037	 0.27411667664979 
2038	 0.274396062126865 
2039	 0.274403498469849 
2040	 0.274145602841852 
2041	 0.274016278289355 
2042	 0.273717200547237 
2043	 0.273395866210652 
2044	 0.273086527936115 
2045	 0.272956278843987 
2046	 0.272982616797041 
2047	 0.272838418569112 
2048	 0.272903130732119 
2049	 0.27351594974826 
2050	 0.274006101148078 
2051	 0.274704589640933 
2052	 0.275432668695897 
2053	 0.276146181965644 
2054	 0.276657411976232 
2055	 0.276386930730046 
2056	 0.276119974996743 
2057	 0.276218252409647 
2058	 0.276214227476927 
2059	 0.276226684026405 
2060	 0.276586833368772 
2061	 0.276993094490497 
2062	 0.276805781585417 
2063	 0.276690662115204 
2064	 0.276825433079283 
2065	 0.277006207519867 
2066	 0.277261360327939 
2067	 0.277257721736462 
2068	 0.277216242847365 
2069	 0.277032019259 
2070	 0.276759274752821 
2071	 0.276884668404488 
2072	 0.276983479902937 
2073	 0.277256743008697 
2074	 0.277357100500699 
2075	 0.277607924732907 
2076	 0.277697057972929 
2077	 0.27743088286066 
2078	 0.277711293439553 
2079	 0.277993981299049 
2080	 0.277723665337595 
2081	 0.277919048866855 
2082	 0.278124419597703 
2083	 0.277685647686124 
2084	 0.277637732952507 
2085	 0.277648420653075 
2086	 0.277482420218736 
2087	 0.277422999678869 
2088	 0.277554899914606 
2089	 0.277488520527451 
2090	 0.277403851575917 
2091	 0.277269496675707 
2092	 0.277487972044415 
2093	 0.278279959244818 
2094	 0.27876623211856 
2095	 0.279004036450642 
2096	 0.279158312339331 
2097	 0.278877924697851 
2098	 0.278441382784451 
2099	 0.278382998664375 
2100	 0.27880385828502 
2101	 0.278974843290847 
2102	 0.279045499627559 
2103	 0.279196037980901 
2104	 0.279605079796587 
2105	 0.279400512968683 
2106	 0.279294359518629 
2107	 0.279595443186967 
2108	 0.279868006979248 
2109	 0.280338470901 
2110	 0.280398570059723 
2111	 0.280451076054591 
2112	 0.280360197187098 
2113	 0.279873947156643 
2114	 0.280313095952916 
2115	 0.28088822445751 
2116	 0.281250641268796 
2117	 0.281338255285979 
2118	 0.280944328344269 
2119	 0.280802877513598 
2120	 0.280493910833652 
2121	 0.280421919344526 
2122	 0.280783821551216 
2123	 0.281523783059376 
2124	 0.281522910357065 
2125	 0.281392588558072 
2126	 0.281458519967706 
2127	 0.281029302060649 
2128	 0.280857995228098 
2129	 0.280987651342444 
2130	 0.280913779415066 
2131	 0.281064932591077 
2132	 0.281556096867889 
2133	 0.281963083396662 
2134	 0.282104881339649 
2135	 0.282078829907246 
2136	 0.282005089966124 
2137	 0.281746338724731 
2138	 0.281849959963969 
2139	 0.282131336887438 
2140	 0.282255630053414 
2141	 0.28240014206035 
2142	 0.28170112496156 
2143	 0.281022346007931 
2144	 0.280761311849241 
2145	 0.280339447745922 
2146	 0.280634729256645 
2147	 0.281110855324045 
2148	 0.281299780051377 
2149	 0.281665604542949 
2150	 0.28164093713766 
2151	 0.281353584170462 
2152	 0.280456097754834 
2153	 0.280107961371569 
2154	 0.279712766869216 
2155	 0.279436246147268 
2156	 0.279701343101152 
2157	 0.280161342506274 
2158	 0.280466581108393 
2159	 0.280662869518196 
2160	 0.280347825302752 
2161	 0.279673656437251 
2162	 0.279096249655192 
2163	 0.278637309891877 
2164	 0.278404415579536 
2165	 0.27851543285423 
2166	 0.27877727464008 
2167	 0.278680720413389 
2168	 0.278541172243807 
2169	 0.278472518799235 
2170	 0.278360524828158 
2171	 0.277986521658449 
2172	 0.27783432639456 
2173	 0.277830041969744 
2174	 0.277638450313043 
2175	 0.27690490712691 
2176	 0.276034438455682 
2177	 0.275731283501296 
2178	 0.274791571943141 
2179	 0.274334968018679 
2180	 0.274556452839491 
2181	 0.274190941208846 
2182	 0.274621043135843 
2183	 0.274654695341236 
2184	 0.274438352370522 
2185	 0.274952189628217 
2186	 0.274805838212161 
2187	 0.274615729634978 
2188	 0.274577425243723 
2189	 0.274552054898407 
2190	 0.274195937311599 
2191	 0.274044545887741 
2192	 0.274175388283732 
2193	 0.273597405139034 
2194	 0.272677101510541 
2195	 0.271999177945039 
2196	 0.271465413274936 
2197	 0.272041620044849 
2198	 0.272788215810796 
2199	 0.273079598668989 
2200	 0.273682779438828 
2201	 0.273478028920286 
2202	 0.272747167717927 
2203	 0.272341117922046 
2204	 0.27180096438586 
2205	 0.272033188644585 
2206	 0.272820169773851 
2207	 0.273058988802341 
2208	 0.273151753468439 
2209	 0.272959733157851 
2210	 0.272788628993139 
2211	 0.272376869959615 
2212	 0.27214066247375 
2213	 0.271840209445376 
2214	 0.271672190353096 
2215	 0.271362329887476 
2216	 0.271363388219691 
2217	 0.271764958219973 
2218	 0.27194758205049 
2219	 0.27214552854579 
2220	 0.272609691828358 
2221	 0.272651744300871 
2222	 0.272390860199159 
2223	 0.271927746292832 
2224	 0.271188325462542 
2225	 0.271314587468757 
2226	 0.271732569403687 
2227	 0.271895671951277 
2228	 0.272111439954845 
2229	 0.27182243315948 
2230	 0.271503472791416 
2231	 0.271497703129952 
2232	 0.271743834141683 
2233	 0.272056065272291 
2234	 0.272639604230828 
2235	 0.273209485381033 
2236	 0.273373796844437 
2237	 0.273378464337912 
2238	 0.273028602611723 
2239	 0.272543867881711 
2240	 0.272646119273874 
2241	 0.27288652725075 
2242	 0.273278139790095 
2243	 0.273569222810092 
2244	 0.273641896274775 
2245	 0.27375580632001 
2246	 0.273765217167495 
2247	 0.274098804695699 
2248	 0.273837291875835 
2249	 0.273371436630411 
2250	 0.273180670310319 
2251	 0.272536501919982 
2252	 0.272490233227081 
2253	 0.272524455072161 
2254	 0.272071669447018 
2255	 0.27195260818721 
2256	 0.27191422136997 
2257	 0.271915031026925 
2258	 0.271466984844426 
2259	 0.271550248093248 
2260	 0.271811661558417 
2261	 0.270784544117554 
2262	 0.270652854065808 
2263	 0.270989524187944 
2264	 0.270617336732956 
2265	 0.271012793045148 
2266	 0.271297983994752 
2267	 0.271156220811255 
2268	 0.271262414799825 
2269	 0.271612116415051 
2270	 0.27213988740147 
2271	 0.272434704123241 
2272	 0.272449227401003 
2273	 0.272005354367443 
2274	 0.271169071704357 
2275	 0.270954172048024 
2276	 0.270753214218124 
2277	 0.270868388745861 
2278	 0.271727384856612 
2279	 0.271744445946679 
2280	 0.271927336702292 
2281	 0.272508121499386 
2282	 0.272066334520317 
2283	 0.271464430121849 
2284	 0.27122595062586 
2285	 0.271007605080187 
2286	 0.270650795812955 
2287	 0.270437350817904 
2288	 0.270471959763334 
2289	 0.270244877013297 
2290	 0.26920233903748 
2291	 0.268744700417115 
2292	 0.269036425962468 
2293	 0.269196570919161 
2294	 0.269925674752544 
2295	 0.270208011252942 
2296	 0.270153113198751 
2297	 0.270329415092097 
2298	 0.270489524353807 
2299	 0.271157791655682 
2300	 0.271948897940496 
2301	 0.272558310808544 
2302	 0.272453655668279 
2303	 0.272218880995894 
2304	 0.271941197275486 
2305	 0.271506070385001 
2306	 0.270516057442926 
2307	 0.26912459614128 
2308	 0.269166145666045 
2309	 0.268905444606676 
2310	 0.268959911364344 
2311	 0.270037725836365 
2312	 0.26938387932815 
2313	 0.268115390105738 
2314	 0.267882205260179 
2315	 0.268600171104634 
2316	 0.270297686221036 
2317	 0.272307965849303 
2318	 0.273464919556192 
2319	 0.274475217496107 
2320	 0.274784067144725 
2321	 0.274751765160035 
2322	 0.274988058876592 
2323	 0.275017657524132 
2324	 0.274316580141747 
2325	 0.2733254691123 
2326	 0.273582466108784 
2327	 0.272867465105281 
2328	 0.273023280736962 
2329	 0.274541450375656 
2330	 0.274728244990745 
2331	 0.274911664659679 
2332	 0.274890856552384 
2333	 0.273334503112352 
2334	 0.272562554200306 
2335	 0.272499896736346 
2336	 0.272366138260502 
2337	 0.27263357241828 
2338	 0.2733047805168 
2339	 0.274159314235657 
2340	 0.274673422073968 
2341	 0.275992869976535 
2342	 0.277177737968418 
2343	 0.276081264552175 
2344	 0.276042729821674 
2345	 0.276058726106662 
2346	 0.273968730659196 
2347	 0.273952647993875 
2348	 0.274093240085671 
2349	 0.272940287113017 
2350	 0.272906794951163 
2351	 0.273748281388514 
2352	 0.274320619780404 
2353	 0.274924428560114 
2354	 0.276969616178854 
2355	 0.278304422828182 
2356	 0.278749451238527 
2357	 0.279900863913964 
2358	 0.280592260130773 
2359	 0.279994060415328 
2360	 0.279308076757536 
2361	 0.279758988925913 
2362	 0.279629875397873 
2363	 0.279915210365827 
2364	 0.280397586700737 
2365	 0.279744077527147 
2366	 0.278498186257883 
2367	 0.275889883509818 
2368	 0.274832351951052 
2369	 0.27499635968343 
2370	 0.275582983282606 
2371	 0.277730011824345 
2372	 0.278566659688286 
2373	 0.278897539091011 
2374	 0.277650216266638 
2375	 0.2749532614402 
2376	 0.274098703056195 
2377	 0.272530570300535 
2378	 0.273459563990767 
2379	 0.276633848110541 
2380	 0.277699434591541 
2381	 0.279709489120442 
2382	 0.279576686947034 
2383	 0.277036943986265 
2384	 0.275704919383138 
2385	 0.274033543569047 
2386	 0.273485059241378 
2387	 0.273418937732622 
2388	 0.274581399044573 
2389	 0.277910291917287 
2390	 0.278869171520719 
2391	 0.27917185058711 
2392	 0.278731578250687 
2393	 0.275909343730587 
2394	 0.273745325752012 
2395	 0.271615701595416 
2396	 0.272062363553028 
2397	 0.273862679364202 
2398	 0.274302381600234 
2399	 0.276889753300707 
2400	 0.277820140642438 
2401	 0.276036397812722 
2402	 0.276606191309995 
2403	 0.277486388613152 
2404	 0.276371440986131 
2405	 0.276142232137478 
2406	 0.275967797685987 
2407	 0.277435372228 
2408	 0.277982885268423 
2409	 0.277963511938906 
2410	 0.276398419836145 
2411	 0.275286412325235 
2412	 0.27482657143649 
2413	 0.2740573578758 
2414	 0.275890804649207 
2415	 0.274822755683027 
2416	 0.274144161881252 
2417	 0.273928740230985 
2418	 0.272996683860216 
2419	 0.275384320718455 
2420	 0.275321404209978 
2421	 0.274930288797789 
2422	 0.27472980358203 
2423	 0.27202202255757 
2424	 0.270693377392289 
2425	 0.270071765628479 
2426	 0.271022271405363 
2427	 0.272527237624561 
2428	 0.271091762658937 
2429	 0.266874161608646 
2430	 0.263486141581182 
2431	 0.26333809395636 
2432	 0.261445143093506 
2433	 0.264609048054733 
2434	 0.264983579818366 
2435	 0.260709671873749 
2436	 0.26208696511855 
2437	 0.264922790764489 
2438	 0.266855478903544 
2439	 0.273649698243851 
2440	 0.276265303194526 
2441	 0.278416790801534 
2442	 0.279270660584277 
2443	 0.274590769695878 
2444	 0.274197452076533 
2445	 0.273903970265334 
2446	 0.272236596683791 
2447	 0.275170485432748 
2448	 0.273805124754286 
2449	 0.264686285274475 
2450	 0.26368216752813 
2451	 0.269717763073316 
2452	 0.269685511519572 
2453	 0.271136778448498 
2454	 0.270363515483724 
2455	 0.262332706301518 
2456	 0.257828110021273 
2457	 0.254336410222858 
2458	 0.25408937808926 
2459	 0.254501704782426 
2460	 0.255941973846273 
2461	 0.263584493328478 
2462	 0.265616503498227 
2463	 0.265617107006624 
2464	 0.269108238339004 
2465	 0.269354510150557 
2466	 0.271647458434294 
2467	 0.275531890252344 
2468	 0.280085749331984 
2469	 0.289264178946759 
2470	 0.297448319359485 
2471	 0.311758858452732 
2472	 0.314638568452116 
2473	 0.303102619522423 
2474	 0.299693093622906 
2475	 0.296995421939385 
2476	 0.290268553226799 
2477	 0.281779772850464 
2478	 0.279076729457167 
2479	 0.269556110725557 
2480	 0.263735976764291 
2481	 0.272500893293247 
2482	 0.285089186092029 
2483	 0.297463402162966 
2484	 0.303938619311286 
2485	 0.330692641765405 
2486	 0.335484460781288 
2487	 0.331594402204001 
2488	 0.33031497571784 
2489	 0.273447772758309 
2490	 0.236928063325332 
2491	 0.256197199421118 
2492	 0.269173334528115 
2493	 0.286321768123072 
2494	 0.296987117257785 
2495	 0.262074097115324 
2496	 0.232235657234171 
2497	 0.234480083746379 
2498	 0.219407805420313 
2499	 0.20116331822012 
2500	 0.157992205312638 
