Wavelength	ref00123.asd
350	 0.397148857715615 
351	 0.40356654171204 
352	 0.382028214515909 
353	 0.36321204734477 
354	 0.376034732790692 
355	 0.387277538479114 
356	 0.372425047535029 
357	 0.349030060221981 
358	 0.354866056253712 
359	 0.366462816602108 
360	 0.354457224037569 
361	 0.35848172354232 
362	 0.348920061469736 
363	 0.333708834542135 
364	 0.34247588107469 
365	 0.35046525191766 
366	 0.34344808581753 
367	 0.326177699654121 
368	 0.325938769500259 
369	 0.325231462508574 
370	 0.320284299228389 
371	 0.313504719300793 
372	 0.317945569209614 
373	 0.309911359938112 
374	 0.300035505830871 
375	 0.309431159527435 
376	 0.30245533895402 
377	 0.29727428083155 
378	 0.301561044483222 
379	 0.30542360728786 
380	 0.291369431826743 
381	 0.283957375806235 
382	 0.297809409446031 
383	 0.300510409154677 
384	 0.300854636233208 
385	 0.292303936499332 
386	 0.270179347763584 
387	 0.277565291273516 
388	 0.280688628409932 
389	 0.27049466846134 
390	 0.26667067263107 
391	 0.269355217526984 
392	 0.271709563218019 
393	 0.26919010612911 
394	 0.263782591870535 
395	 0.268880869849068 
396	 0.272574754519436 
397	 0.261428501966123 
398	 0.257409505520856 
399	 0.256933027973074 
400	 0.257293161651463 
401	 0.257570686976337 
402	 0.254785908150337 
403	 0.253071478738835 
404	 0.254464083814911 
405	 0.255284052547056 
406	 0.252159528393827 
407	 0.247948873042702 
408	 0.246681927273962 
409	 0.246242467589605 
410	 0.245585043758605 
411	 0.245641129891316 
412	 0.248531511379158 
413	 0.249715635784672 
414	 0.249464757567287 
415	 0.248666548800252 
416	 0.247805522119906 
417	 0.246329766138043 
418	 0.244639857089088 
419	 0.243889832756869 
420	 0.24715141873852 
421	 0.251077443523283 
422	 0.251462792928263 
423	 0.245086850456588 
424	 0.252282872557089 
425	 0.258209590023469 
426	 0.254251925659788 
427	 0.257042040219472 
428	 0.259017862196716 
429	 0.259295253266504 
430	 0.259178949211775 
431	 0.259608403085035 
432	 0.259379644547848 
433	 0.259413787976052 
434	 0.262028166826422 
435	 0.261481315163266 
436	 0.260863241464529 
437	 0.262017102374959 
438	 0.261253315276625 
439	 0.261690728892662 
440	 0.263257248562103 
441	 0.264580340890572 
442	 0.263809103859245 
443	 0.263358194865716 
444	 0.264211211893324 
445	 0.265732990308351 
446	 0.266410802749939 
447	 0.267162320015386 
448	 0.268611078272354 
449	 0.269604806646877 
450	 0.270153998046525 
451	 0.270146386287849 
452	 0.269683809330834 
453	 0.2702675202678 
454	 0.270887611610208 
455	 0.270961375608884 
456	 0.27063152374666 
457	 0.270302963746188 
458	 0.269565231153281 
459	 0.268374773170427 
460	 0.268373696515415 
461	 0.267875887618936 
462	 0.266844776548073 
463	 0.266063582940659 
464	 0.264956886559249 
465	 0.264235726006469 
466	 0.264355852288093 
467	 0.265283725487726 
468	 0.264343666002767 
469	 0.262463784061508 
470	 0.261367041477075 
471	 0.26149807982201 
472	 0.261057133678697 
473	 0.260238250619341 
474	 0.260462126529721 
475	 0.259978579241952 
476	 0.2591749875493 
477	 0.258452159500541 
478	 0.257606485915953 
479	 0.258045294008517 
480	 0.258525407348371 
481	 0.257565107569309 
482	 0.257337208066791 
483	 0.256985543420977 
484	 0.25666463218492 
485	 0.257487096492687 
486	 0.256976522598079 
487	 0.256044267144299 
488	 0.255832887569274 
489	 0.256235012586804 
490	 0.257363387070164 
491	 0.258103909773537 
492	 0.257447883040737 
493	 0.258251484541393 
494	 0.259536056694995 
495	 0.261060943626687 
496	 0.26380917923892 
497	 0.265907984343452 
498	 0.268400111790966 
499	 0.272209367009475 
500	 0.275497544359489 
501	 0.279377297435351 
502	 0.283919679610937 
503	 0.288658289802371 
504	 0.294177041644775 
505	 0.299610395520632 
506	 0.304790939867074 
507	 0.310913349675038 
508	 0.318419657689171 
509	 0.32649422100386 
510	 0.334467322784495 
511	 0.344025533666023 
512	 0.354350878900569 
513	 0.364948576189219 
514	 0.375793374857106 
515	 0.386454988815617 
516	 0.399077899041899 
517	 0.414154318322937 
518	 0.427361101573304 
519	 0.44118827470526 
520	 0.455400259649806 
521	 0.469020718175583 
522	 0.482239214103444 
523	 0.49564288529475 
524	 0.509361526690536 
525	 0.522734703820029 
526	 0.535490782754705 
527	 0.547702040147091 
528	 0.559587188892556 
529	 0.571380955399527 
530	 0.581879803975639 
531	 0.591245688171967 
532	 0.600393626953868 
533	 0.608647458782174 
534	 0.616826830644657 
535	 0.624615496708761 
536	 0.629600281082068 
537	 0.634331758340514 
538	 0.639429066024526 
539	 0.644759713723013 
540	 0.649700792978639 
541	 0.653146211238127 
542	 0.655568881363566 
543	 0.658662840582197 
544	 0.661730474140697 
545	 0.664313809718237 
546	 0.666536312364106 
547	 0.669887658417702 
548	 0.672219561982767 
549	 0.673944974265628 
550	 0.676126973020316 
551	 0.676797326600942 
552	 0.676264184474343 
553	 0.675105567907152 
554	 0.67397321640165 
555	 0.670520687082194 
556	 0.666455832538162 
557	 0.663193617787761 
558	 0.657924805294688 
559	 0.652178795318968 
560	 0.646198109106704 
561	 0.639451544346172 
562	 0.633048933539037 
563	 0.625736073375826 
564	 0.617325295374719 
565	 0.610058728735649 
566	 0.601797326046006 
567	 0.592486930072752 
568	 0.582851726699425 
569	 0.573771480841741 
570	 0.564232204939795 
571	 0.554367403275316 
572	 0.545329540376282 
573	 0.536041821308186 
574	 0.52706147888132 
575	 0.518857685984944 
576	 0.511180076356326 
577	 0.503366778867149 
578	 0.495851379700278 
579	 0.489397925581524 
580	 0.483141147670193 
581	 0.477259472299735 
582	 0.471767060809711 
583	 0.466337482148943 
584	 0.461248892193142 
585	 0.456288777241206 
586	 0.451375608462438 
587	 0.447320627786373 
588	 0.443305746166387 
589	 0.439244987052157 
590	 0.435656951751721 
591	 0.432373741039955 
592	 0.429433356382856 
593	 0.426726915998482 
594	 0.424049820444657 
595	 0.421803436834347 
596	 0.419155229576921 
597	 0.415485918300505 
598	 0.413414286540769 
599	 0.411024035035457 
600	 0.408045984946872 
601	 0.405960084544268 
602	 0.403138173381187 
603	 0.399870243232615 
604	 0.396607018693412 
605	 0.393159135877733 
606	 0.389329629106126 
607	 0.385265521806252 
608	 0.381182595016071 
609	 0.376294592328004 
610	 0.371720224447332 
611	 0.367446472625532 
612	 0.361640977823855 
613	 0.35722040048128 
614	 0.353350187606597 
615	 0.348707330969519 
616	 0.344052951363755 
617	 0.339807240951708 
618	 0.335914511812972 
619	 0.331986330089854 
620	 0.328820746121398 
621	 0.326241441988215 
622	 0.323912486151575 
623	 0.321430781422565 
624	 0.319377134102803 
625	 0.317447154074828 
626	 0.315328236601359 
627	 0.314270196936638 
628	 0.313476224224998 
629	 0.312613827581323 
630	 0.311865299123168 
631	 0.310517288553444 
632	 0.308944425116725 
633	 0.307348275574239 
634	 0.30492233491102 
635	 0.301850880326814 
636	 0.298622497024256 
637	 0.29567185837221 
638	 0.291786459106677 
639	 0.287436428505704 
640	 0.28292841393605 
641	 0.278300854132412 
642	 0.272928841612527 
643	 0.26739118370698 
644	 0.262259887274801 
645	 0.2572202194729 
646	 0.252418471880749 
647	 0.247759143112913 
648	 0.243114895425232 
649	 0.23935896133426 
650	 0.236054214335635 
651	 0.232988189009425 
652	 0.230415412273738 
653	 0.22757761368686 
654	 0.224775724313133 
655	 0.222343841911789 
656	 0.219687571482847 
657	 0.216555556993419 
658	 0.213080073083861 
659	 0.209152538081367 
660	 0.20511592691437 
661	 0.200978911581451 
662	 0.196837185745888 
663	 0.192697764779411 
664	 0.189207823823781 
665	 0.185651816361955 
666	 0.181358310310761 
667	 0.17851345780328 
668	 0.175803194234934 
669	 0.173054974604285 
670	 0.171164371010015 
671	 0.169251288418893 
672	 0.167583495254682 
673	 0.166431526361876 
674	 0.165484050175097 
675	 0.165389290591889 
676	 0.165391684426393 
677	 0.164623605645323 
678	 0.164849436124675 
679	 0.165894711003312 
680	 0.167351212369468 
681	 0.168768126408221 
682	 0.1716447824603 
683	 0.175583773909122 
684	 0.180172001211453 
685	 0.18591188009666 
686	 0.194005455623024 
687	 0.204763090753937 
688	 0.216878733055465 
689	 0.229822883290499 
690	 0.244126649979548 
691	 0.26094001641615 
692	 0.280861532481069 
693	 0.301956138872034 
694	 0.325365501942015 
695	 0.351631286974949 
696	 0.378357163124936 
697	 0.406949183458471 
698	 0.436919711786573 
699	 0.466846498411327 
700	 0.496915926358475 
701	 0.527736710789493 
702	 0.559172657886292 
703	 0.590311654547841 
704	 0.620773477748559 
705	 0.650941564857524 
706	 0.681089755469484 
707	 0.709715037316092 
708	 0.739130037634304 
709	 0.768940677727615 
710	 0.797548155369653 
711	 0.826566092668331 
712	 0.85558133389702 
713	 0.884189557685505 
714	 0.912312369653977 
715	 0.939745990277165 
716	 0.965882867826188 
717	 0.991498604099174 
718	 1.01856713057591 
719	 1.0484858460528 
720	 1.07949503481806 
721	 1.10880467455878 
722	 1.13715701538385 
723	 1.16353326923902 
724	 1.18911230955325 
725	 1.21458633301314 
726	 1.24002286867335 
727	 1.26507029868438 
728	 1.28980097781685 
729	 1.31355469767763 
730	 1.33588573471298 
731	 1.35790022855965 
732	 1.38076743677045 
733	 1.40182211958314 
734	 1.42077904586482 
735	 1.43823197805193 
736	 1.45494627436046 
737	 1.47023808930225 
738	 1.4844629037603 
739	 1.49811884224512 
740	 1.51107384539727 
741	 1.52304590314891 
742	 1.53365579208356 
743	 1.54271873507906 
744	 1.55134373632011 
745	 1.55901112012823 
746	 1.56557730073545 
747	 1.57124663308436 
748	 1.57637626808346 
749	 1.5804687275283 
750	 1.58360003834468 
751	 1.58698382169368 
752	 1.58966599956458 
753	 1.59176239978106 
754	 1.59339376033037 
755	 1.59352993892396 
756	 1.59373387328465 
757	 1.59381398193081 
758	 1.59295129965891 
759	 1.59507393923687 
760	 1.59775771752676 
761	 1.5975730882385 
762	 1.59376056411597 
763	 1.59271814785408 
764	 1.59122800034717 
765	 1.587860615774 
766	 1.58770685137406 
767	 1.58555918184247 
768	 1.58286108863879 
769	 1.58183117759186 
770	 1.57936050692443 
771	 1.57676501183139 
772	 1.57479131935023 
773	 1.57333002139004 
774	 1.56979730818782 
775	 1.56722067412141 
776	 1.56655159333915 
777	 1.56387799891215 
778	 1.56081069170656 
779	 1.55820814483198 
780	 1.55634018280448 
781	 1.55397673477501 
782	 1.5519886508856 
783	 1.55021967724253 
784	 1.54794497531648 
785	 1.54468168811733 
786	 1.54164826946402 
787	 1.53908117326149 
788	 1.5360569235639 
789	 1.53233251651814 
790	 1.52969570679342 
791	 1.52852931828754 
792	 1.52553575060322 
793	 1.5235207775758 
794	 1.5219610841867 
795	 1.51947898172954 
796	 1.51559131884013 
797	 1.51306198087435 
798	 1.5115283862338 
799	 1.50896437467134 
800	 1.50632127953823 
801	 1.50372063663137 
802	 1.50134505991362 
803	 1.49943645359554 
804	 1.49784285230091 
805	 1.49576567209536 
806	 1.4931478127129 
807	 1.49168715237202 
808	 1.48916436563028 
809	 1.48613041732067 
810	 1.48334831337128 
811	 1.47875789567671 
812	 1.4739679419729 
813	 1.46918282661801 
814	 1.46400828215713 
815	 1.46003503258797 
816	 1.45649624931877 
817	 1.4534077578402 
818	 1.4517256684842 
819	 1.45113343562311 
820	 1.45119585106192 
821	 1.45087757679881 
822	 1.44821120810929 
823	 1.44584188229095 
824	 1.44375307779536 
825	 1.44168489430359 
826	 1.44081275058974 
827	 1.4394596732631 
828	 1.437632650577 
829	 1.43581136941225 
830	 1.43237302103436 
831	 1.43080982073577 
832	 1.43028969267703 
833	 1.42735073716728 
834	 1.42658344486435 
835	 1.42591889314987 
836	 1.42453226399154 
837	 1.42389961844406 
838	 1.42329537809615 
839	 1.42185799843952 
840	 1.41945707532444 
841	 1.41731756286992 
842	 1.41673240855182 
843	 1.41589357805721 
844	 1.41333098606338 
845	 1.4119254160447 
846	 1.40980061725396 
847	 1.4076879009131 
848	 1.40679235183184 
849	 1.40447363472697 
850	 1.40181066129239 
851	 1.39983542547016 
852	 1.39915313737712 
853	 1.39891479963437 
854	 1.39759380936189 
855	 1.39441891165284 
856	 1.38995045094447 
857	 1.38893411488154 
858	 1.38768970475889 
859	 1.38499847684711 
860	 1.38561924290584 
861	 1.38362902943143 
862	 1.38118873376859 
863	 1.38064624330672 
864	 1.37967673284739 
865	 1.37784358468028 
866	 1.37597725899477 
867	 1.37475348623358 
868	 1.37221536424457 
869	 1.36927575511572 
870	 1.36758901870973 
871	 1.36783884703254 
872	 1.36460975875199 
873	 1.36302748588489 
874	 1.36249330451189 
875	 1.35889385565881 
876	 1.35678057235506 
877	 1.3551706942847 
878	 1.35322351060086 
879	 1.35089946409578 
880	 1.34938265658714 
881	 1.3471739406141 
882	 1.34450481624852 
883	 1.34416891575994 
884	 1.3424549146269 
885	 1.34043545672765 
886	 1.33906950743497 
887	 1.33734340825012 
888	 1.33521737322222 
889	 1.33278729244117 
890	 1.33003849905822 
891	 1.32650007771298 
892	 1.32308390689089 
893	 1.31984117194363 
894	 1.31646484744271 
895	 1.3124490258948 
896	 1.30973600982124 
897	 1.30692279286973 
898	 1.30235078070995 
899	 1.30004736101274 
900	 1.2987415721346 
901	 1.29739276970092 
902	 1.29569139050572 
903	 1.29607002153142 
904	 1.29439711905251 
905	 1.29084001324062 
906	 1.28838394373819 
907	 1.28842231214861 
908	 1.28506954945703 
909	 1.2794047921308 
910	 1.27783605493856 
911	 1.27582549811266 
912	 1.27344730731707 
913	 1.27056003239238 
914	 1.26686285226352 
915	 1.2663496828909 
916	 1.26486653518865 
917	 1.2626305845695 
918	 1.26484036629016 
919	 1.26197250661218 
920	 1.26034445571668 
921	 1.26126276814645 
922	 1.25737674164108 
923	 1.25627465847381 
924	 1.25421330269397 
925	 1.24950204729593 
926	 1.24644883862007 
927	 1.24111393873485 
928	 1.23529194400474 
929	 1.23039809318014 
930	 1.22489537618653 
931	 1.22067648627184 
932	 1.21489833872424 
933	 1.20545806136938 
934	 1.19485269631423 
935	 1.19062375242782 
936	 1.1866930810784 
937	 1.17990897884302 
938	 1.17952937464422 
939	 1.18048014883935 
940	 1.18122149802032 
941	 1.18113782971676 
942	 1.17980959330678 
943	 1.17746857080515 
944	 1.17549830535818 
945	 1.17347750406122 
946	 1.16682658039419 
947	 1.16020948814423 
948	 1.15448535258549 
949	 1.15063412251124 
950	 1.15155188031006 
951	 1.15146005205732 
952	 1.14758714708351 
953	 1.14151834683563 
954	 1.14099649153121 
955	 1.13748801676642 
956	 1.13359262770765 
957	 1.13189881501736 
958	 1.12941067397992 
959	 1.12685783575019 
960	 1.12671620394958 
961	 1.12845460679008 
962	 1.12585975757006 
963	 1.12648164199886 
964	 1.12706121857507 
965	 1.12540515990512 
966	 1.12505032431463 
967	 1.12493208434013 
968	 1.12482326415257 
969	 1.12437702093182 
970	 1.12306621554325 
971	 1.125484095296 
972	 1.12695242328666 
973	 1.12401988581232 
974	 1.11836419621174 
975	 1.11886602781043 
976	 1.11925206272611 
977	 1.1168790093162 
978	 1.11706677889372 
979	 1.11420139605537 
980	 1.11577040928115 
981	 1.12013271673206 
982	 1.11571756900462 
983	 1.1114839556592 
984	 1.11435548665282 
985	 1.12023579467926 
986	 1.11779661341197 
987	 1.11899119263488 
988	 1.11787569539222 
989	 1.11684367848442 
990	 1.12243519726382 
991	 1.11762502607926 
992	 1.11551181150836 
993	 1.12041887430237 
994	 1.12707313110616 
995	 1.12277465279726 
996	 1.11827257362913 
997	 1.11776496735558 
998	 1.12038047344404 
999	 1.12445167746124 
1000	 1.11850773709084 
1001	 1.14718574883791 
1002	 1.14703312307373 
1003	 1.14734455107941 
1004	 1.14814317118336 
1005	 1.14855093831653 
1006	 1.14926283134002 
1007	 1.14981613211311 
1008	 1.15020728075054 
1009	 1.15026839453164 
1010	 1.15022406118328 
1011	 1.15035792657565 
1012	 1.14976244616308 
1013	 1.14949273383509 
1014	 1.14978514076532 
1015	 1.14982618785606 
1016	 1.1497063926162 
1017	 1.14966286325489 
1018	 1.15006022493229 
1019	 1.15094630364689 
1020	 1.15134149219315 
1021	 1.15202883943803 
1022	 1.15220491416283 
1023	 1.15194880663776 
1024	 1.15123802602891 
1025	 1.151016512401 
1026	 1.15133835665717 
1027	 1.15136046153053 
1028	 1.15186185233928 
1029	 1.15221059324579 
1030	 1.15193052117145 
1031	 1.15180585811744 
1032	 1.15157657819136 
1033	 1.15146481612135 
1034	 1.15157791140257 
1035	 1.15135604266759 
1036	 1.15081661185637 
1037	 1.150389533073 
1038	 1.14980541350557 
1039	 1.14927257698731 
1040	 1.1487461113365 
1041	 1.14882899892766 
1042	 1.1484893295251 
1043	 1.14820275656976 
1044	 1.14804810422894 
1045	 1.14777305942059 
1046	 1.14759228770708 
1047	 1.14705006938369 
1048	 1.14677141633031 
1049	 1.14679300833294 
1050	 1.1465593471473 
1051	 1.14635675645512 
1052	 1.14593384504868 
1053	 1.14540414164958 
1054	 1.14528908678287 
1055	 1.14563901355956 
1056	 1.1460458941236 
1057	 1.14594264989299 
1058	 1.14571854050587 
1059	 1.1452925019413 
1060	 1.14424013091022 
1061	 1.14392884882016 
1062	 1.14362853363437 
1063	 1.14289740159531 
1064	 1.14302804894899 
1065	 1.14279803081647 
1066	 1.14255422493861 
1067	 1.14204457987392 
1068	 1.14168914849233 
1069	 1.14098414416257 
1070	 1.14076789645696 
1071	 1.14065039706669 
1072	 1.13986538391835 
1073	 1.13917773351979 
1074	 1.13831905847736 
1075	 1.13684050090064 
1076	 1.13554490495178 
1077	 1.13465637548227 
1078	 1.13378213481497 
1079	 1.13304352145981 
1080	 1.13274719609912 
1081	 1.13201859001431 
1082	 1.13111943508252 
1083	 1.12959791617342 
1084	 1.12844514727218 
1085	 1.12762749943301 
1086	 1.12655529873485 
1087	 1.12574384865756 
1088	 1.12483028249631 
1089	 1.12297920321469 
1090	 1.12117779000343 
1091	 1.11957948854964 
1092	 1.11788814701587 
1093	 1.11640782674254 
1094	 1.1147336141766 
1095	 1.11309888255849 
1096	 1.11135598561135 
1097	 1.10959542033854 
1098	 1.1074461486083 
1099	 1.10510464000335 
1100	 1.10258998352642 
1101	 1.10000616765542 
1102	 1.09781325063591 
1103	 1.09595148562554 
1104	 1.09374662610345 
1105	 1.09145465751787 
1106	 1.08897694595118 
1107	 1.0861628180385 
1108	 1.08363604655896 
1109	 1.08107105046687 
1110	 1.07782243521812 
1111	 1.07416173657014 
1112	 1.06976718554165 
1113	 1.06543649492573 
1114	 1.06010180902679 
1115	 1.05519630159346 
1116	 1.05054178596751 
1117	 1.0455178467165 
1118	 1.04005602273051 
1119	 1.0342912387415 
1120	 1.02871859965622 
1121	 1.02361166698415 
1122	 1.01877907637272 
1123	 1.0150015256871 
1124	 1.01085470101824 
1125	 1.00603619939476 
1126	 1.00273335852106 
1127	 1.00061657667966 
1128	 0.997895759099346 
1129	 0.996392485222506 
1130	 0.99414809134354 
1131	 0.991310830722442 
1132	 0.988669611266394 
1133	 0.986079393769119 
1134	 0.983711180261905 
1135	 0.981246866765936 
1136	 0.977579011392728 
1137	 0.974173009146715 
1138	 0.970101205188573 
1139	 0.965194932954086 
1140	 0.960559385371418 
1141	 0.955103709029584 
1142	 0.949812178886534 
1143	 0.944285548583679 
1144	 0.938159676987643 
1145	 0.932500661690633 
1146	 0.926750530517981 
1147	 0.921364876975239 
1148	 0.915881042940758 
1149	 0.911817948807079 
1150	 0.909039341906411 
1151	 0.906124692824306 
1152	 0.903804586427145 
1153	 0.902123942914755 
1154	 0.900322701007958 
1155	 0.898224444899813 
1156	 0.896994764255349 
1157	 0.896026129100121 
1158	 0.895034617721173 
1159	 0.894282510970163 
1160	 0.893648820299878 
1161	 0.89326386153751 
1162	 0.892746197484598 
1163	 0.892327617079738 
1164	 0.891761864745678 
1165	 0.891066919741771 
1166	 0.890340547584522 
1167	 0.889672385779274 
1168	 0.888809067989035 
1169	 0.887666657730378 
1170	 0.886784904243369 
1171	 0.88575394007161 
1172	 0.884850029671389 
1173	 0.884628851232505 
1174	 0.883956739170691 
1175	 0.882664411246361 
1176	 0.881543477836966 
1177	 0.880308091640261 
1178	 0.8785032152788 
1179	 0.877133302270385 
1180	 0.876090402119641 
1181	 0.874915474902706 
1182	 0.873612922965934 
1183	 0.872537045769578 
1184	 0.871658110689998 
1185	 0.870714536724021 
1186	 0.869881122992096 
1187	 0.868947006831878 
1188	 0.867796184428279 
1189	 0.867016217592468 
1190	 0.866359621922544 
1191	 0.865692102766842 
1192	 0.865254757508531 
1193	 0.864558631788377 
1194	 0.863830921368806 
1195	 0.862822749605763 
1196	 0.86216830430877 
1197	 0.86163166580707 
1198	 0.861110854469188 
1199	 0.860739722173439 
1200	 0.860345920976368 
1201	 0.859922395310663 
1202	 0.859548606315872 
1203	 0.859107110283074 
1204	 0.858931220756589 
1205	 0.85896958399646 
1206	 0.858980565184085 
1207	 0.859287879634012 
1208	 0.859374671945185 
1209	 0.859315950365299 
1210	 0.859068445299464 
1211	 0.859223199554165 
1212	 0.859769144278864 
1213	 0.860033046074824 
1214	 0.860364294408294 
1215	 0.860961657227578 
1216	 0.861392260722933 
1217	 0.862166664923066 
1218	 0.863681280876556 
1219	 0.864520281086038 
1220	 0.865061404388792 
1221	 0.8657524995242 
1222	 0.866184525825275 
1223	 0.866871302064494 
1224	 0.867891716832086 
1225	 0.868654691367885 
1226	 0.869380739884457 
1227	 0.870044903777771 
1228	 0.870665185945484 
1229	 0.870940717263838 
1230	 0.871689756891148 
1231	 0.872716343423091 
1232	 0.873388561422766 
1233	 0.87421732743017 
1234	 0.8747565394499 
1235	 0.874875707648517 
1236	 0.875247136667132 
1237	 0.875682957820262 
1238	 0.876074514635149 
1239	 0.876598654827725 
1240	 0.876822318977359 
1241	 0.876738615407503 
1242	 0.876951444924619 
1243	 0.877060722453922 
1244	 0.87730691799718 
1245	 0.878190002063678 
1246	 0.878402995105933 
1247	 0.877985797861705 
1248	 0.877979147099057 
1249	 0.877847503819703 
1250	 0.877753115403276 
1251	 0.878103020737705 
1252	 0.878255817819894 
1253	 0.878106153087744 
1254	 0.877535256396351 
1255	 0.877355098281857 
1256	 0.877258754329391 
1257	 0.876906890381109 
1258	 0.876575010202035 
1259	 0.876207390550918 
1260	 0.875414838186742 
1261	 0.875035865218831 
1262	 0.875200292115666 
1263	 0.874821601660798 
1264	 0.874134340120069 
1265	 0.873703301291916 
1266	 0.873083890542326 
1267	 0.872619976256835 
1268	 0.872702928991302 
1269	 0.872317940910053 
1270	 0.871439501818623 
1271	 0.870907846504644 
1272	 0.870418190814826 
1273	 0.86993397901482 
1274	 0.869381689623494 
1275	 0.869063213182656 
1276	 0.868477260653957 
1277	 0.8675015239405 
1278	 0.866982810581597 
1279	 0.866718186931042 
1280	 0.866248280390629 
1281	 0.866020382579591 
1282	 0.865333394762926 
1283	 0.864311792730985 
1284	 0.863361906972584 
1285	 0.862246622217884 
1286	 0.861112061704854 
1287	 0.859922445035595 
1288	 0.858766384574978 
1289	 0.857629931708146 
1290	 0.856332357326052 
1291	 0.85501052182965 
1292	 0.853618554707106 
1293	 0.852039447465728 
1294	 0.850431250151129 
1295	 0.848861864749578 
1296	 0.847173982378338 
1297	 0.845256017695685 
1298	 0.843168097675885 
1299	 0.840950934733317 
1300	 0.838397884676847 
1301	 0.836147637663198 
1302	 0.834038973472322 
1303	 0.831548833361771 
1304	 0.829050352780631 
1305	 0.826339054018025 
1306	 0.823154375126927 
1307	 0.820193623157132 
1308	 0.81735834496567 
1309	 0.814318379712235 
1310	 0.811132949258453 
1311	 0.80794677222659 
1312	 0.804721592481632 
1313	 0.801371323192328 
1314	 0.79807446177488 
1315	 0.794529930912989 
1316	 0.790623455263781 
1317	 0.786876009591172 
1318	 0.78317660333133 
1319	 0.779279406952301 
1320	 0.775252395754058 
1321	 0.771319294626315 
1322	 0.76709051421673 
1323	 0.762416744313769 
1324	 0.758061247069423 
1325	 0.753717631647052 
1326	 0.749161445636707 
1327	 0.744664856052587 
1328	 0.739669801091614 
1329	 0.73408189282047 
1330	 0.728826561348461 
1331	 0.72327071132183 
1332	 0.718172566573537 
1333	 0.713607638484649 
1334	 0.708813510028494 
1335	 0.703924813410874 
1336	 0.699516514760631 
1337	 0.695162290324905 
1338	 0.691024462359998 
1339	 0.687448559678045 
1340	 0.683457715645819 
1341	 0.678617948787626 
1342	 0.67434613844446 
1343	 0.66986632372668 
1344	 0.665237291256343 
1345	 0.660525618060672 
1346	 0.655341719354913 
1347	 0.649833912369438 
1348	 0.643961971228131 
1349	 0.638101823672587 
1350	 0.633004537813254 
1351	 0.626017142609338 
1352	 0.617964502494906 
1353	 0.608942471470213 
1354	 0.59887231532738 
1355	 0.587684547658727 
1356	 0.582888469320474 
1357	 0.571510538267325 
1358	 0.563466040302536 
1359	 0.552288223135064 
1360	 0.554896348139315 
1361	 0.544816142313291 
1362	 0.544091797899705 
1363	 0.541578166805197 
1364	 0.535414436857232 
1365	 0.521215471597677 
1366	 0.528122921277736 
1367	 0.510553081457101 
1368	 0.472876446883935 
1369	 0.456327304302995 
1370	 0.446256338403452 
1371	 0.438352282778482 
1372	 0.432294549528806 
1373	 0.43057152661919 
1374	 0.425821380877611 
1375	 0.430444117540579 
1376	 0.445856603134269 
1377	 0.448516146506744 
1378	 0.441330888763031 
1379	 0.426437066764763 
1380	 0.414570604323727 
1381	 0.38912358767316 
1382	 0.379411496600063 
1383	 0.383077833991434 
1384	 0.375869028924469 
1385	 0.369587823916789 
1386	 0.358251982346258 
1387	 0.342574996163874 
1388	 0.332188563295003 
1389	 0.321970632665832 
1390	 0.315349712424048 
1391	 0.312534534558328 
1392	 0.305964037390198 
1393	 0.29974682356847 
1394	 0.291152912008368 
1395	 0.277384531559426 
1396	 0.270753668874194 
1397	 0.266976079811118 
1398	 0.261869388512088 
1399	 0.261235208416353 
1400	 0.256470707688377 
1401	 0.249529769289425 
1402	 0.241257991769743 
1403	 0.228939542827076 
1404	 0.221463852588547 
1405	 0.214267929875013 
1406	 0.210913741165522 
1407	 0.207138170220735 
1408	 0.204590132374035 
1409	 0.201906982713843 
1410	 0.197149411688064 
1411	 0.194274011270765 
1412	 0.192971876820066 
1413	 0.190228683178861 
1414	 0.186297270188147 
1415	 0.184876151777438 
1416	 0.184313302373161 
1417	 0.182942027797263 
1418	 0.181993625172803 
1419	 0.18152296066533 
1420	 0.181208119757279 
1421	 0.180163565173256 
1422	 0.179621345718051 
1423	 0.178377261336025 
1424	 0.175436408038903 
1425	 0.174176496019668 
1426	 0.17386554861785 
1427	 0.173200556270393 
1428	 0.172870485228056 
1429	 0.172363174520882 
1430	 0.17172728329983 
1431	 0.170966485850704 
1432	 0.170090628685811 
1433	 0.169225941715334 
1434	 0.167918557026669 
1435	 0.167301401217711 
1436	 0.167451967080907 
1437	 0.167076809313467 
1438	 0.166730367609337 
1439	 0.166220919960263 
1440	 0.16469483609982 
1441	 0.164398325783432 
1442	 0.164779672255984 
1443	 0.165373840093967 
1444	 0.166429838812757 
1445	 0.167099236254225 
1446	 0.167138077204153 
1447	 0.167034679265871 
1448	 0.167108204914223 
1449	 0.166967354702752 
1450	 0.167284742640452 
1451	 0.167879147136342 
1452	 0.168337340497027 
1453	 0.169000821688276 
1454	 0.169238939270356 
1455	 0.169219241339575 
1456	 0.169416786175043 
1457	 0.169637726048087 
1458	 0.169715777570118 
1459	 0.169872119564225 
1460	 0.169890513925628 
1461	 0.169499171443017 
1462	 0.169583924190517 
1463	 0.169721826399504 
1464	 0.170304315925246 
1465	 0.171535801953854 
1466	 0.172419725146731 
1467	 0.173486669243593 
1468	 0.174472089112602 
1469	 0.174915002141078 
1470	 0.176039106017402 
1471	 0.17776187632494 
1472	 0.179081705895309 
1473	 0.180403793175907 
1474	 0.181681772948263 
1475	 0.182377281502196 
1476	 0.183648726360308 
1477	 0.185353002341349 
1478	 0.186935050702398 
1479	 0.188477566602262 
1480	 0.190327010568811 
1481	 0.192421177396144 
1482	 0.194225909204759 
1483	 0.195985341007712 
1484	 0.197921516927382 
1485	 0.199526482442779 
1486	 0.201454838850239 
1487	 0.20386677948108 
1488	 0.206037989175155 
1489	 0.207715583531894 
1490	 0.20981948667336 
1491	 0.212165652619833 
1492	 0.214193919165431 
1493	 0.216227931336424 
1494	 0.218182411354157 
1495	 0.219974300069415 
1496	 0.221291610203441 
1497	 0.22320473851645 
1498	 0.225482253212222 
1499	 0.22740775186909 
1500	 0.229405872494827 
1501	 0.231287251917616 
1502	 0.232973973042428 
1503	 0.23483618574846 
1504	 0.236754761200077 
1505	 0.238724619858128 
1506	 0.240706908981391 
1507	 0.242718103656344 
1508	 0.24477953101759 
1509	 0.246852006397598 
1510	 0.249033009305351 
1511	 0.251000112220769 
1512	 0.252873245548205 
1513	 0.254825952960202 
1514	 0.256658610000179 
1515	 0.258602050648193 
1516	 0.260760538607664 
1517	 0.262751390352981 
1518	 0.264656672930304 
1519	 0.2665873748021 
1520	 0.268541417364254 
1521	 0.270402908881932 
1522	 0.272195455907802 
1523	 0.274032445472582 
1524	 0.275797561395562 
1525	 0.277654059867533 
1526	 0.279665019387853 
1527	 0.281530177754619 
1528	 0.283299384113784 
1529	 0.28515908618621 
1530	 0.286967094131307 
1531	 0.288871286896833 
1532	 0.290957783720237 
1533	 0.292916987808268 
1534	 0.294806811475133 
1535	 0.296757777668161 
1536	 0.298804296700071 
1537	 0.300674602518957 
1538	 0.302531175144019 
1539	 0.304286715628781 
1540	 0.30578256976977 
1541	 0.307392414683414 
1542	 0.308970041050054 
1543	 0.310651412172438 
1544	 0.312467006880931 
1545	 0.314201250571965 
1546	 0.315981837286705 
1547	 0.317715485224507 
1548	 0.3193457780453 
1549	 0.32103051521995 
1550	 0.322802983472817 
1551	 0.324491432299466 
1552	 0.32617328206284 
1553	 0.327793554829341 
1554	 0.329356969794825 
1555	 0.330857640391893 
1556	 0.332204503743952 
1557	 0.3336656572002 
1558	 0.335153798073644 
1559	 0.336628439140542 
1560	 0.338229678951998 
1561	 0.339743579694453 
1562	 0.341162442568257 
1563	 0.342599690674471 
1564	 0.343967451236348 
1565	 0.345446922581077 
1566	 0.347049347438606 
1567	 0.348376075394059 
1568	 0.349879034324274 
1569	 0.351492177995011 
1570	 0.352815051429888 
1571	 0.353982964710734 
1572	 0.355390570059986 
1573	 0.356665279453918 
1574	 0.35817735220999 
1575	 0.3600314426934 
1576	 0.361491382009614 
1577	 0.362838114702359 
1578	 0.364060111053171 
1579	 0.364995838830513 
1580	 0.366340220599529 
1581	 0.367868668158845 
1582	 0.36897106604293 
1583	 0.370023101186255 
1584	 0.371275998111889 
1585	 0.372328871505236 
1586	 0.373387833853381 
1587	 0.374781298663038 
1588	 0.375879927825717 
1589	 0.376469143205862 
1590	 0.377662057155143 
1591	 0.379281223900612 
1592	 0.38052282177127 
1593	 0.381823563011352 
1594	 0.382922316194564 
1595	 0.383715170147469 
1596	 0.384813672893821 
1597	 0.386006711196352 
1598	 0.387129947291842 
1599	 0.388395654211033 
1600	 0.389454198632204 
1601	 0.390393235919125 
1602	 0.391266181657656 
1603	 0.391880231842795 
1604	 0.392989170636674 
1605	 0.394268771224494 
1606	 0.395458290391699 
1607	 0.397171736944169 
1608	 0.397966530532702 
1609	 0.398008696831733 
1610	 0.398774523274913 
1611	 0.399376627501759 
1612	 0.400320420415282 
1613	 0.401943319854567 
1614	 0.40288950671724 
1615	 0.403532907778969 
1616	 0.404310828475349 
1617	 0.404974678276676 
1618	 0.40565005635322 
1619	 0.406281170287277 
1620	 0.407098160831866 
1621	 0.408005094207855 
1622	 0.40874556006444 
1623	 0.40961959346269 
1624	 0.410284335153471 
1625	 0.410538078670128 
1626	 0.411306152699148 
1627	 0.412506381396393 
1628	 0.413078326962703 
1629	 0.413530431108229 
1630	 0.414054910010731 
1631	 0.4141839420084 
1632	 0.414551105159649 
1633	 0.415237946208679 
1634	 0.415780589223511 
1635	 0.416148437946406 
1636	 0.416600138926977 
1637	 0.417180097214192 
1638	 0.417638124030205 
1639	 0.41796244647352 
1640	 0.418443640280251 
1641	 0.419066142871141 
1642	 0.419454494466504 
1643	 0.419874930822991 
1644	 0.419957460449392 
1645	 0.419657619073579 
1646	 0.41981630507716 
1647	 0.420030120372547 
1648	 0.420033991256435 
1649	 0.420151691213641 
1650	 0.420196504877742 
1651	 0.420019524715546 
1652	 0.419940845666085 
1653	 0.420078371516542 
1654	 0.419986791728931 
1655	 0.419661971189871 
1656	 0.419307249983936 
1657	 0.418988197495754 
1658	 0.418155424180369 
1659	 0.417610903336375 
1660	 0.417604324677927 
1661	 0.417448560661372 
1662	 0.417512146630816 
1663	 0.417780793217902 
1664	 0.417407197644005 
1665	 0.417192778697336 
1666	 0.417228018818999 
1667	 0.416666116623367 
1668	 0.416630508215635 
1669	 0.416840035519082 
1670	 0.416895557735452 
1671	 0.417362052104324 
1672	 0.41747968881601 
1673	 0.417443873621934 
1674	 0.417483073690729 
1675	 0.417452224536231 
1676	 0.417621290208411 
1677	 0.417824219970299 
1678	 0.417803886138315 
1679	 0.41793216516486 
1680	 0.418071788466684 
1681	 0.417744408187381 
1682	 0.417706986964819 
1683	 0.417746027027634 
1684	 0.417496426807969 
1685	 0.417484990498852 
1686	 0.41739508673926 
1687	 0.416982026064721 
1688	 0.416494780756309 
1689	 0.416008552151273 
1690	 0.415985447300329 
1691	 0.415498788899091 
1692	 0.414750615449596 
1693	 0.414245962124526 
1694	 0.413338672785943 
1695	 0.412680560443319 
1696	 0.412762985016812 
1697	 0.412200872758836 
1698	 0.411201342168306 
1699	 0.410352713576558 
1700	 0.409139628273355 
1701	 0.408317653379528 
1702	 0.407953712958339 
1703	 0.407220138171532 
1704	 0.406355498885676 
1705	 0.405609805801037 
1706	 0.404642998694345 
1707	 0.403796666693626 
1708	 0.40336163570524 
1709	 0.402594279953978 
1710	 0.401589255151426 
1711	 0.400741147419359 
1712	 0.399776052214747 
1713	 0.398728053847403 
1714	 0.39773529204751 
1715	 0.396847664828634 
1716	 0.395912538701418 
1717	 0.395000953718204 
1718	 0.394037793883016 
1719	 0.393202375755233 
1720	 0.392539481123594 
1721	 0.391857808767596 
1722	 0.391659839289688 
1723	 0.390618000302484 
1724	 0.388803108162787 
1725	 0.387503997692361 
1726	 0.385909041299919 
1727	 0.384493155303195 
1728	 0.3834596348136 
1729	 0.382603777800565 
1730	 0.381626090668943 
1731	 0.381224282506311 
1732	 0.38091563158982 
1733	 0.380002359142447 
1734	 0.37914149245437 
1735	 0.377917266201783 
1736	 0.376341325595837 
1737	 0.375540101098898 
1738	 0.375306786636371 
1739	 0.374625188006459 
1740	 0.37378831626595 
1741	 0.372939174447688 
1742	 0.371284589392285 
1743	 0.370119496525038 
1744	 0.369579536252002 
1745	 0.368394685541617 
1746	 0.36702768996327 
1747	 0.365710668370703 
1748	 0.364574910365284 
1749	 0.363771238399765 
1750	 0.362958059282363 
1751	 0.362368480326569 
1752	 0.362066361059653 
1753	 0.361236217849351 
1754	 0.360118698803134 
1755	 0.358871809697158 
1756	 0.357039941801351 
1757	 0.355590616182339 
1758	 0.354242038934773 
1759	 0.353230067348812 
1760	 0.352114321246223 
1761	 0.35072529960028 
1762	 0.34950582568863 
1763	 0.348429066523223 
1764	 0.347463746222352 
1765	 0.346771254850929 
1766	 0.345555414349546 
1767	 0.343962286945717 
1768	 0.342961563922796 
1769	 0.341879256236306 
1770	 0.341171855423621 
1771	 0.34115648102284 
1772	 0.340365996805182 
1773	 0.339393069760482 
1774	 0.338328584682109 
1775	 0.337330129747422 
1776	 0.336276598945954 
1777	 0.334994783158653 
1778	 0.333830666043389 
1779	 0.332736348045305 
1780	 0.332495918626908 
1781	 0.331508740736925 
1782	 0.330410342115728 
1783	 0.330673011105725 
1784	 0.330340862488613 
1785	 0.32997022541937 
1786	 0.329403424293649 
1787	 0.328572219426865 
1788	 0.328162856019845 
1789	 0.326644374576176 
1790	 0.326455013709271 
1791	 0.326388453923064 
1792	 0.323924933111161 
1793	 0.323860107645063 
1794	 0.323594425097517 
1795	 0.321111874257005 
1796	 0.321209993354803 
1797	 0.320884736646099 
1798	 0.319917252289316 
1799	 0.320181610413625 
1800	 0.321282752596372 
1801	 0.312837500203104 
1802	 0.313462402605135 
1803	 0.31208477874123 
1804	 0.309236474184673 
1805	 0.309649189111093 
1806	 0.311424815438847 
1807	 0.311965083623749 
1808	 0.3176980312948 
1809	 0.318883268243422 
1810	 0.318321958556104 
1811	 0.312781459875609 
1812	 0.308866875957658 
1813	 0.300692120622385 
1814	 0.29813573712127 
1815	 0.297123938490403 
1816	 0.297044841713089 
1817	 0.306342636117845 
1818	 0.310037158837431 
1819	 0.311907389606975 
1820	 0.310929820768375 
1821	 0.309839320528981 
1822	 0.302589412665638 
1823	 0.300591147306226 
1824	 0.299290110801346 
1825	 0.300320242436475 
1826	 0.310941264486606 
1827	 0.315357077255553 
1828	 0.318271993162818 
1829	 0.319566426378567 
1830	 0.32354835913663 
1831	 0.324411566394802 
1832	 0.320661300803787 
1833	 0.303027940136905 
1834	 0.306772940180774 
1835	 0.297420931991379 
1836	 0.319624168358289 
1837	 0.424473470992272 
1838	 0.497476061770582 
1839	 0.570832519850921 
1840	 0.702219931598504 
1841	 0.721279236650798 
1842	 0.642869699659018 
1843	 0.601391123505995 
1844	 0.489131066667029 
1845	 0.453380844075321 
1846	 0.470270809150347 
1847	 0.452692501159262 
1848	 0.431374938695413 
1849	 0.400712872608699 
1850	 0.398426954541646 
1851	 0.40806799481749 
1852	 0.402220337973177 
1853	 0.451988644780035 
1854	 0.425805861310286 
1855	 0.318473893024778 
1856	 0.263414206477755 
1857	 0.163523387337846 
1858	 0.147932523467356 
1859	 0.180058353736805 
1860	 0.295064775469943 
1861	 0.312431401455255 
1862	 0.351767975359395 
1863	 0.360467301881243 
1864	 0.262433879835906 
1865	 0.250966279295533 
1866	 0.342569783325569 
1867	 0.352877660083 
1868	 0.340477052794903 
1869	 0.354107607175396 
1870	 0.318553711833721 
1871	 0.180194850736538 
1872	 0.152247691386004 
1873	 0.177317854469432 
1874	 0.178037338629119 
1875	 0.200291930357388 
1876	 0.211803626717399 
1877	 0.237915498064527 
1878	 0.217983542783537 
1879	 0.188861885413594 
1880	 0.167489070768276 
1881	 0.161269556870225 
1882	 0.146817146849954 
1883	 0.15004883453641 
1884	 0.18598613185727 
1885	 0.189127095667867 
1886	 0.189755892355466 
1887	 0.165485909020699 
1888	 0.132531325035645 
1889	 0.118750272561963 
1890	 0.107359714697617 
1891	 9.34272787181084E-02 
1892	 9.32061759966914E-02 
1893	 0.111302060099766 
1894	 0.123787578726632 
1895	 0.157164047554859 
1896	 0.164934583335743 
1897	 0.156643772550537 
1898	 0.14710102496622 
1899	 8.74811088143829E-02 
1900	 8.23792992602157E-02 
1901	 9.13962005791783E-02 
1902	 0.148034164793985 
1903	 0.161188444887569 
1904	 0.199794125828511 
1905	 0.226157484875203 
1906	 0.213527323030759 
1907	 0.231665537022094 
1908	 0.26358553913436 
1909	 0.237956214541408 
1910	 0.196105806298917 
1911	 0.160550800924731 
1912	 0.139326042644426 
1913	 0.123749612970556 
1914	 0.104831071479549 
1915	 7.79205024221404E-02 
1916	 7.85192999538888E-02 
1917	 9.34131043931071E-02 
1918	 0.089261423485304 
1919	 9.60603485538776E-02 
1920	 0.109484922164083 
1921	 9.31775777562765E-02 
1922	 7.60318291938134E-02 
1923	 7.17786943465853E-02 
1924	 6.75184481255364E-02 
1925	 6.82521673330224E-02 
1926	 7.74560171116237E-02 
1927	 8.54202065307232E-02 
1928	 9.92384566733125E-02 
1929	 0.103726364670281 
1930	 0.093294161661568 
1931	 8.62632007010939E-02 
1932	 8.23986635272376E-02 
1933	 7.82857822880722E-02 
1934	 7.93029088672763E-02 
1935	 9.55183796504663E-02 
1936	 9.67003179740828E-02 
1937	 9.14098707142818E-02 
1938	 8.52211870549873E-02 
1939	 7.56226576456497E-02 
1940	 6.88593050474417E-02 
1941	 6.00920715109168E-02 
1942	 5.62094520666649E-02 
1943	 0.058789811035501 
1944	 5.82396430029665E-02 
1945	 5.81592375360553E-02 
1946	 6.44991774893401E-02 
1947	 0.067564822092282 
1948	 6.95974530925633E-02 
1949	 7.20920961877079E-02 
1950	 7.84566373713907E-02 
1951	 7.57294624025263E-02 
1952	 6.84862030821637E-02 
1953	 6.30838249294444E-02 
1954	 5.94156209034561E-02 
1955	 0.058731375166636 
1956	 6.31210958247312E-02 
1957	 6.68643246254442E-02 
1958	 6.70899978847451E-02 
1959	 6.29421346076324E-02 
1960	 6.23977730989063E-02 
1961	 6.13086750632452E-02 
1962	 6.20779201142943E-02 
1963	 6.51683589605831E-02 
1964	 6.55080660966716E-02 
1965	 0.06464805563344 
1966	 6.56677535686031E-02 
1967	 6.51880754243557E-02 
1968	 6.61629769116907E-02 
1969	 6.66542469039542E-02 
1970	 6.67074184103762E-02 
1971	 6.67061074912339E-02 
1972	 6.67273826213575E-02 
1973	 6.71407573518313E-02 
1974	 6.64981704909708E-02 
1975	 6.72979402391772E-02 
1976	 6.81090362468198E-02 
1977	 6.69664434320574E-02 
1978	 6.57450513408262E-02 
1979	 6.57735981280294E-02 
1980	 6.54906054494967E-02 
1981	 0.066026711461423 
1982	 6.65048747424694E-02 
1983	 6.79913956490379E-02 
1984	 6.79080662465688E-02 
1985	 6.87714194859589E-02 
1986	 7.04744923324908E-02 
1987	 7.10772413724236E-02 
1988	 7.23922700210011E-02 
1989	 0.072834437399214 
1990	 7.14333972071049E-02 
1991	 7.18461036048225E-02 
1992	 7.31889017866993E-02 
1993	 7.47578705373087E-02 
1994	 7.73709610395257E-02 
1995	 7.89241487505452E-02 
1996	 8.00942140676763E-02 
1997	 0.080566411432062 
1998	 8.00700589885916E-02 
1999	 0.078948869812213 
2000	 7.96835776409905E-02 
2001	 8.08888591101744E-02 
2002	 8.27474146565248E-02 
2003	 8.58175193532843E-02 
2004	 8.69153894770593E-02 
2005	 8.82446447140572E-02 
2006	 8.94079530766949E-02 
2007	 9.07863704421435E-02 
2008	 9.02404025995555E-02 
2009	 9.00231855796153E-02 
2010	 8.93047370875416E-02 
2011	 8.67231721109266E-02 
2012	 8.51266065531046E-02 
2013	 8.49575192715955E-02 
2014	 8.34390937842805E-02 
2015	 8.29059557277911E-02 
2016	 0.083479786730902 
2017	 8.48526660392922E-02 
2018	 8.76773188298249E-02 
2019	 8.89269215372077E-02 
2020	 9.04574797043548E-02 
2021	 9.10251029556318E-02 
2022	 9.03366871170016E-02 
2023	 9.02894991303895E-02 
2024	 9.19198530238675E-02 
2025	 9.35000303804653E-02 
2026	 9.47348268750213E-02 
2027	 9.55206148500101E-02 
2028	 9.63719947160362E-02 
2029	 9.77110425067161E-02 
2030	 0.099254475158875 
2031	 0.10088467925651 
2032	 0.10159877641154 
2033	 0.10156659080585 
2034	 0.100697384539507 
2035	 0.100767018801266 
2036	 0.101249081827905 
2037	 0.102164013946578 
2038	 0.103550100272098 
2039	 0.103867910550834 
2040	 0.103601635578256 
2041	 0.103014976598395 
2042	 0.10317101307629 
2043	 0.104747160492812 
2044	 0.106850785361665 
2045	 0.108239997142296 
2046	 0.109851684915106 
2047	 0.110327673526089 
2048	 0.110818714376545 
2049	 0.110819930098258 
2050	 0.111056760205532 
2051	 0.112336296625448 
2052	 0.112307092799596 
2053	 0.112543208160852 
2054	 0.112684721981474 
2055	 0.113036189517814 
2056	 0.114853811178383 
2057	 0.114670423478279 
2058	 0.113816032002383 
2059	 0.114161130878661 
2060	 0.114556228876982 
2061	 0.114660449167392 
2062	 0.116892994226435 
2063	 0.120188588111447 
2064	 0.121675863336536 
2065	 0.122240325257034 
2066	 0.122239870758958 
2067	 0.121712726934903 
2068	 0.121899534338923 
2069	 0.123709831706912 
2070	 0.125818519288769 
2071	 0.125921866351735 
2072	 0.126326402450763 
2073	 0.126536870517722 
2074	 0.126624789873635 
2075	 0.126021272934252 
2076	 0.1277938666447 
2077	 0.130832384075203 
2078	 0.132101696448443 
2079	 0.13255746350603 
2080	 0.133082147593454 
2081	 0.132878746411681 
2082	 0.132577348677724 
2083	 0.133767051916152 
2084	 0.135634432792008 
2085	 0.136855161132439 
2086	 0.137487436465982 
2087	 0.138093728907882 
2088	 0.138361333630728 
2089	 0.138921708601565 
2090	 0.139636821183912 
2091	 0.140578787569188 
2092	 0.141864653909053 
2093	 0.14194400686311 
2094	 0.142335205861716 
2095	 0.143716807954969 
2096	 0.144211406456588 
2097	 0.144960655363151 
2098	 0.145376223366834 
2099	 0.144441977346429 
2100	 0.145278477701192 
2101	 0.146152320959259 
2102	 0.146605168604051 
2103	 0.147015544977958 
2104	 0.148177611147098 
2105	 0.147178002950842 
2106	 0.146742417136187 
2107	 0.147104054894893 
2108	 0.147985171976038 
2109	 0.149913548164465 
2110	 0.150860904636187 
2111	 0.1522158119529 
2112	 0.152756817547683 
2113	 0.152509891380856 
2114	 0.153315088430648 
2115	 0.153569721637664 
2116	 0.153285578228481 
2117	 0.152919436328846 
2118	 0.151970987567823 
2119	 0.151928043424219 
2120	 0.152236243411765 
2121	 0.151917212130507 
2122	 0.153135662866168 
2123	 0.154263675821415 
2124	 0.15415607717454 
2125	 0.155475675053907 
2126	 0.155728928925067 
2127	 0.154945359318136 
2128	 0.155414764218211 
2129	 0.156504579729998 
2130	 0.157964810141115 
2131	 0.15925460334592 
2132	 0.159383142800633 
2133	 0.159330840225424 
2134	 0.159771335310963 
2135	 0.159714712233494 
2136	 0.160771344985038 
2137	 0.163381357586109 
2138	 0.164300830303145 
2139	 0.164065063368676 
2140	 0.164870729645853 
2141	 0.165206760170959 
2142	 0.165417221505908 
2143	 0.166980208830636 
2144	 0.167732635056703 
2145	 0.167598610956923 
2146	 0.168559331011861 
2147	 0.169504844914581 
2148	 0.169664664128981 
2149	 0.169613907423024 
2150	 0.169221806607691 
2151	 0.169094684414777 
2152	 0.169060026551463 
2153	 0.168939676365869 
2154	 0.168806263603679 
2155	 0.168925274501635 
2156	 0.16927187834555 
2157	 0.169004993329129 
2158	 0.16960779383834 
2159	 0.169483234586076 
2160	 0.169709021867848 
2161	 0.170917487625902 
2162	 0.171446590356272 
2163	 0.17305302943277 
2164	 0.174482564061307 
2165	 0.173746710638037 
2166	 0.174818075056878 
2167	 0.176882713761135 
2168	 0.178068148122463 
2169	 0.179951998093712 
2170	 0.180595343641712 
2171	 0.180009055423384 
2172	 0.179771300027503 
2173	 0.179607686645776 
2174	 0.179905977842687 
2175	 0.181570652644184 
2176	 0.182228585175971 
2177	 0.182712595772861 
2178	 0.182995228020196 
2179	 0.183504803118192 
2180	 0.183734232735997 
2181	 0.184278347034135 
2182	 0.184120640593801 
2183	 0.184226083584614 
2184	 0.185324827904986 
2185	 0.184454814257488 
2186	 0.185348261786389 
2187	 0.185659624953799 
2188	 0.183843845300307 
2189	 0.184330747692557 
2190	 0.186554520034099 
2191	 0.188128712999194 
2192	 0.189111391213487 
2193	 0.191204339822052 
2194	 0.190777178827683 
2195	 0.189524818869426 
2196	 0.189023298479411 
2197	 0.188943040437553 
2198	 0.189866514981642 
2199	 0.189504550602455 
2200	 0.188807232013423 
2201	 0.18892454642148 
2202	 0.188665401009713 
2203	 0.190013614931744 
2204	 0.192242733516521 
2205	 0.193972227666979 
2206	 0.194495870165224 
2207	 0.19308283353638 
2208	 0.19233321743344 
2209	 0.190269451064286 
2210	 0.189761283242556 
2211	 0.190130265809095 
2212	 0.191141793272954 
2213	 0.191021834371398 
2214	 0.191393664670288 
2215	 0.190471653849137 
2216	 0.190112359720243 
2217	 0.190166658064091 
2218	 0.189497658682639 
2219	 0.189424362645068 
2220	 0.189860914100899 
2221	 0.191679163958308 
2222	 0.19208377598381 
2223	 0.19187250598381 
2224	 0.19167343043321 
2225	 0.190448616916628 
2226	 0.191392238345501 
2227	 0.192338776072592 
2228	 0.192917578405498 
2229	 0.194007351070241 
2230	 0.194118193345948 
2231	 0.193710257026567 
2232	 0.192375733167389 
2233	 0.191826496770065 
2234	 0.190923286806345 
2235	 0.190442258011695 
2236	 0.191920857403203 
2237	 0.191891467860154 
2238	 0.189458940282334 
2239	 0.188510915244315 
2240	 0.186126418294432 
2241	 0.184653999075127 
2242	 0.185960414038189 
2243	 0.186277826034324 
2244	 0.18671023756621 
2245	 0.188296847544098 
2246	 0.189558723056935 
2247	 0.190684510646638 
2248	 0.188794206515773 
2249	 0.186031819356452 
2250	 0.185862714429409 
2251	 0.183466661965138 
2252	 0.183741144404577 
2253	 0.186772605029091 
2254	 0.18529414497466 
2255	 0.184047885398421 
2256	 0.1836211619451 
2257	 0.182525060032479 
2258	 0.182784922685007 
2259	 0.18483825155006 
2260	 0.183693516094566 
2261	 0.184217624432889 
2262	 0.181467087806294 
2263	 0.177258143578573 
2264	 0.177662327744008 
2265	 0.175486769174723 
2266	 0.172309402727722 
2267	 0.170769828112234 
2268	 0.171563616396225 
2269	 0.172695882678657 
2270	 0.172836365305922 
2271	 0.174588153098264 
2272	 0.174495670566514 
2273	 0.174590338919253 
2274	 0.176561137479018 
2275	 0.178037872455569 
2276	 0.178488925039545 
2277	 0.177931849215729 
2278	 0.17764059149957 
2279	 0.175124451965698 
2280	 0.170620459428326 
2281	 0.168274907401318 
2282	 0.16675195349073 
2283	 0.16628197234287 
2284	 0.168863608975052 
2285	 0.168685126351833 
2286	 0.167647841215534 
2287	 0.165107781506114 
2288	 0.164385017808326 
2289	 0.161828007714994 
2290	 0.160427694821053 
2291	 0.162585381210377 
2292	 0.163062002858644 
2293	 0.160348324531442 
2294	 0.160652859118365 
2295	 0.160494432886376 
2296	 0.157856535391871 
2297	 0.157523419197986 
2298	 0.156462636371236 
2299	 0.155175123219782 
2300	 0.154899829907849 
2301	 0.157532566410096 
2302	 0.1587183418231 
2303	 0.155902334975696 
2304	 0.151688305759358 
2305	 0.144899184352634 
2306	 0.141384460701716 
2307	 0.142543984947354 
2308	 0.144686863014585 
2309	 0.146432159512661 
2310	 0.15044110991066 
2311	 0.154034164675577 
2312	 0.152233026450486 
2313	 0.151123700884378 
2314	 0.149327353192613 
2315	 0.142909312524756 
2316	 0.140337568140147 
2317	 0.143504546467238 
2318	 0.144793954332954 
2319	 0.141672735364501 
2320	 0.137578656419857 
2321	 0.136440227750666 
2322	 0.132576789475164 
2323	 0.13178004140319 
2324	 0.135316125694018 
2325	 0.141868855725839 
2326	 0.139047984095109 
2327	 0.135935366061279 
2328	 0.138853735700597 
2329	 0.136404502038639 
2330	 0.133969614853675 
2331	 0.134798125948658 
2332	 0.130921443384123 
2333	 0.12864651904496 
2334	 0.131809068562962 
2335	 0.133678294440945 
2336	 0.132306579684254 
2337	 0.132466913589286 
2338	 0.136481779530892 
2339	 0.135783204060671 
2340	 0.134417104885525 
2341	 0.137741783435159 
2342	 0.130792863524293 
2343	 0.124937014601241 
2344	 0.127196722646963 
2345	 0.124336492879349 
2346	 0.123861507202618 
2347	 0.12775428317383 
2348	 0.131058120712277 
2349	 0.130948901190168 
2350	 0.132041910840409 
2351	 0.134867114154607 
2352	 0.130852391449269 
2353	 0.127806796078303 
2354	 0.126697100369063 
2355	 0.122850459427952 
2356	 0.122023534142138 
2357	 0.122547436841391 
2358	 0.121672567144832 
2359	 0.118067576260854 
2360	 0.113892070136049 
2361	 0.117509968409692 
2362	 0.121431800653229 
2363	 0.122660959529387 
2364	 0.128948001981907 
2365	 0.129488455815434 
2366	 0.122212443799023 
2367	 0.119989973144562 
2368	 0.121660996326672 
2369	 0.119633721125143 
2370	 0.117847772700805 
2371	 0.116176388422408 
2372	 0.114314176822336 
2373	 0.106954780241056 
2374	 0.109707565787397 
2375	 0.121767419888604 
2376	 0.12558528964228 
2377	 0.131013492732371 
2378	 0.129980109093856 
2379	 0.117321109984721 
2380	 0.113287807084215 
2381	 0.111644038478177 
2382	 0.111463989822229 
2383	 0.121782299943003 
2384	 0.121241846477017 
2385	 0.111539559355792 
2386	 0.1079636909514 
2387	 0.100610675148093 
2388	 9.53083131120015E-02 
2389	 9.42853581095688E-02 
2390	 9.43582167312354E-02 
2391	 9.64002025210258E-02 
2392	 9.24940156691402E-02 
2393	 8.46216936374884E-02 
2394	 8.61986935508057E-02 
2395	 9.02099755238506E-02 
2396	 0.091604198002759 
2397	 0.102010630241998 
2398	 0.10661255424015 
2399	 0.104623201079352 
2400	 0.103059379215455 
2401	 0.103460980824592 
2402	 9.38804015391045E-02 
2403	 8.65252782986207E-02 
2404	 7.09305360266262E-02 
2405	 6.50687581569073E-02 
2406	 8.20290099347284E-02 
2407	 9.56284767620858E-02 
2408	 0.105035597725521 
2409	 0.117469210457754 
2410	 0.120357562418528 
2411	 0.121472160293049 
2412	 0.123021648450623 
2413	 0.111283952233497 
2414	 0.101553261745974 
2415	 0.097698978778759 
2416	 0.102520138291625 
2417	 0.119995009280906 
2418	 0.120498063343621 
2419	 0.112423559033562 
2420	 0.115244418801429 
2421	 0.110606487669888 
2422	 0.102170759623428 
2423	 0.108911684842817 
2424	 0.100802045980628 
2425	 8.06192544064424E-02 
2426	 8.21950958108657E-02 
2427	 8.60907391043437E-02 
2428	 8.95696236274492E-02 
2429	 9.76384628137909E-02 
2430	 0.101204264985932 
2431	 0.10647949468657 
2432	 0.11599537187394 
2433	 0.119209892466404 
2434	 0.121081436162415 
2435	 0.118862978067017 
2436	 0.10961980985717 
2437	 9.38426055478447E-02 
2438	 8.80235402648687E-02 
2439	 7.60944744916881E-02 
2440	 8.04450722002809E-02 
2441	 9.72558946885208E-02 
2442	 0.112888038965152 
2443	 0.156035044187574 
2444	 0.156857142823086 
2445	 0.133812546963077 
2446	 0.128761905132673 
2447	 9.57599013052522E-02 
2448	 8.41240826816986E-02 
2449	 0.100869022512768 
2450	 0.100156968266664 
2451	 8.04515150230186E-02 
2452	 8.00551482420859E-02 
2453	 0.099892236853879 
2454	 0.10251804033578 
2455	 0.107328738780399 
2456	 0.121614213679995 
2457	 0.128659199391655 
2458	 0.129559557432848 
2459	 0.14229151269535 
2460	 0.129842738950034 
2461	 8.49943316848446E-02 
2462	 7.04527141904577E-02 
2463	 6.28450317647997E-02 
2464	 0.05632328943274 
2465	 5.18316881723618E-02 
2466	 6.53508212721177E-02 
2467	 0.10848256015766 
2468	 0.119466400766078 
2469	 0.146430552298504 
2470	 0.145715955695829 
2471	 7.62161856222149E-02 
2472	 3.01212793839278E-02 
2473	-5.45984408362921E-03 
2474	-2.13163607962011E-02 
2475	-4.09966899203229E-02 
2476	-3.20258188316501E-02 
2477	 5.14392134924832E-02 
2478	 4.54726084685596E-02 
2479	-5.13908791857004E-02 
2480	-4.86566003074994E-02 
2481	-2.86224799017938E-02 
2482	-1.27655259138961E-03 
2483	 0.16917546675636 
2484	 0.289179127399101 
2485	 0.342094372239796 
2486	 0.396015899710729 
2487	 0.375462923449203 
2488	 0.362798129064075 
2489	 0.242827520792546 
2490	 0.211783931062312 
2491	 0.270680067105378 
2492	 0.207060023718401 
2493	 0.330622060207065 
2494	 0.35576787885368 
2495	 0.192723493495843 
2496	 7.98508626869622E-02 
2497	-2.82128469263653E-02 
2498	 1.34724321012202E-02 
2499	 0.092247339656564 
2500	 0.216743972479498 
