Wavelength	ref00065.asd
350	 3.60984253115067E-02 
351	 3.70571982214067E-02 
352	 3.72729405202942E-02 
353	 3.73615251757608E-02 
354	 3.75435663250808E-02 
355	 3.75277144339451E-02 
356	 0.037359204869691 
357	 3.80544985761264E-02 
358	 3.81084129163449E-02 
359	 3.78891406381532E-02 
360	 3.81700435476044E-02 
361	 0.038867347632882 
362	 3.86165969063695E-02 
363	 3.81517813278202E-02 
364	 0.039242655200677 
365	 3.94767341229665E-02 
366	 3.91315339386286E-02 
367	 3.89314894445365E-02 
368	 3.97178450835349E-02 
369	 4.03365425492101E-02 
370	 4.04478451229151E-02 
371	 4.01847351056014E-02 
372	 4.03626346036209E-02 
373	 4.07497283334683E-02 
374	 4.09688856149014E-02 
375	 4.07696258188039E-02 
376	 4.14114179504339E-02 
377	 4.19568273801047E-02 
378	 4.20992727221291E-02 
379	 4.25049204718678E-02 
380	 4.24432750185795E-02 
381	 4.26621353338592E-02 
382	 4.35815841671084E-02 
383	 4.39593505170867E-02 
384	 4.41093654026615E-02 
385	 4.43421426329644E-02 
386	 4.49088551771967E-02 
387	 4.55509527186495E-02 
388	 0.046158912152813 
389	 4.66624066939984E-02 
390	 4.70299976523062E-02 
391	 4.72360217571046E-02 
392	 4.78231350763954E-02 
393	 4.88450411774035E-02 
394	 4.89964281124587E-02 
395	 4.98171584886626E-02 
396	 5.08767019045066E-02 
397	 5.12951531734207E-02 
398	 5.17326059157911E-02 
399	 5.20547624037439E-02 
400	 5.23310656385327E-02 
401	 0.052807522662857 
402	 5.34248461514257E-02 
403	 5.39489952291907E-02 
404	 5.43652826497329E-02 
405	 5.51874949175386E-02 
406	 5.57049335212468E-02 
407	 5.61393494680116E-02 
408	 5.68885672210956E-02 
409	 0.05750691026959 
410	 5.80257976376596E-02 
411	 5.85504615019305E-02 
412	 5.92048416881802E-02 
413	 5.96899411821996E-02 
414	 6.02143948162837E-02 
415	 6.08991496128811E-02 
416	 6.15281106689094E-02 
417	 6.20885089173392E-02 
418	 6.26118222139517E-02 
419	 6.31603833996498E-02 
420	 6.38181643125568E-02 
421	 6.44848207067203E-02 
422	 6.50430994974789E-02 
423	 6.54087497286927E-02 
424	 6.60874972349483E-02 
425	 6.67162173561227E-02 
426	 6.70493636146877E-02 
427	 6.73704724616034E-02 
428	 6.80653645396309E-02 
429	 6.88781136283773E-02 
430	 6.94216580399099E-02 
431	 7.00406259891423E-02 
432	 7.05290952158774E-02 
433	 7.09356882117906E-02 
434	 7.15213764930862E-02 
435	 7.19651186862905E-02 
436	 7.23581395128443E-02 
437	 7.28142040658129E-02 
438	 7.33768827685273E-02 
439	 7.37941207794056E-02 
440	 7.41535205715612E-02 
441	 7.46199714159874E-02 
442	 7.50333802120737E-02 
443	 7.55451258490798E-02 
444	 7.61258447849346E-02 
445	 0.076576411972898 
446	 7.70641089041532E-02 
447	 7.76118059231432E-02 
448	 7.81846873978124E-02 
449	 7.86773271486379E-02 
450	 7.91295188936669E-02 
451	 7.95749401475891E-02 
452	 8.00425058804478E-02 
453	 8.05300589758279E-02 
454	 8.10191502363528E-02 
455	 8.15103685050517E-02 
456	 8.20274286982401E-02 
457	 8.25014430462588E-02 
458	 8.28620403714092E-02 
459	 8.31292639566765E-02 
460	 8.35773224118444E-02 
461	 8.39937762906496E-02 
462	 8.43398059719724E-02 
463	 8.46796020480048E-02 
464	 8.50731417364151E-02 
465	 8.55104944456532E-02 
466	 8.59612835939201E-02 
467	 8.63807660422006E-02 
468	 8.67363577681681E-02 
469	 8.70709477383682E-02 
470	 0.08743133603003 
471	 8.77749392687124E-02 
472	 8.81901048340293E-02 
473	 8.86441504294915E-02 
474	 8.90287945381006E-02 
475	 8.94402894575512E-02 
476	 8.98174346410145E-02 
477	 9.01664701729407E-02 
478	 9.06707724529162E-02 
479	 9.10173346321597E-02 
480	 0.091349189698253 
481	 0.091870420359201 
482	 9.22458247455632E-02 
483	 9.25819838391871E-02 
484	 9.29913898591287E-02 
485	 9.35555395840162E-02 
486	 9.40054506947398E-02 
487	 9.44641098575694E-02 
488	 9.50152658427922E-02 
489	 9.54156766975523E-02 
490	 0.095974655905229 
491	 9.66067591662722E-02 
492	 9.71061106307449E-02 
493	 9.76409579845895E-02 
494	 9.82857987744902E-02 
495	 9.89821344605468E-02 
496	 9.95247936495372E-02 
497	 0.10019028099413 
498	 0.1009596519408 
499	 0.101754012097753 
500	 0.102546934867503 
501	 0.103452505305483 
502	 0.104417289866381 
503	 0.105305246899812 
504	 0.106275754841506 
505	 0.107237298740714 
506	 0.10817915808803 
507	 0.109265661006265 
508	 0.110444867693662 
509	 0.11162726813337 
510	 0.112764278745977 
511	 0.114045522200414 
512	 0.115442580086935 
513	 0.116829570801621 
514	 0.11803473554686 
515	 0.119422244766274 
516	 0.120944614521975 
517	 0.122487687034592 
518	 0.123982460796412 
519	 0.12560709099784 
520	 0.127170895803657 
521	 0.128460218128331 
522	 0.129996819435528 
523	 0.131483575715598 
524	 0.132810990949638 
525	 0.134120815457026 
526	 0.135641022373747 
527	 0.137159138270874 
528	 0.138457244956212 
529	 0.139625095405386 
530	 0.140741510317145 
531	 0.141857026709875 
532	 0.142986823463458 
533	 0.143976105658393 
534	 0.144947526582059 
535	 0.145930424573638 
536	 0.146749911816088 
537	 0.147635056732046 
538	 0.14854007745133 
539	 0.149363491809599 
540	 0.150171635262886 
541	 0.150990982636027 
542	 0.151771466792823 
543	 0.152417020631148 
544	 0.153206153524123 
545	 0.15394432336233 
546	 0.154526717770457 
547	 0.155232436675101 
548	 0.155947120904363 
549	 0.156626117006409 
550	 0.157255949392527 
551	 0.157866081260315 
552	 0.158466948322681 
553	 0.159027187353511 
554	 0.159468476718747 
555	 0.159861819688429 
556	 0.160308640529797 
557	 0.160815729409865 
558	 0.161036535270388 
559	 0.161332718479632 
560	 0.161711939665237 
561	 0.161959882366641 
562	 0.162175522852144 
563	 0.162321426986275 
564	 0.16239537365966 
565	 0.162485505651727 
566	 0.162485036717505 
567	 0.162466987194189 
568	 0.162511207464029 
569	 0.162429279093231 
570	 0.162321694453976 
571	 0.162263386710607 
572	 0.162282148272773 
573	 0.162230388221797 
574	 0.162136136325951 
575	 0.162056829791466 
576	 0.162040496950744 
577	 0.162014723601845 
578	 0.161978181453403 
579	 0.161960899602597 
580	 0.161952226552781 
581	 0.161934457857124 
582	 0.161897318995934 
583	 0.161839559969882 
584	 0.161891736659601 
585	 0.161989177910059 
586	 0.162061168614766 
587	 0.162224151548003 
588	 0.162481619648759 
589	 0.162753369682882 
590	 0.162898586833485 
591	 0.162902707320413 
592	 0.163022077169213 
593	 0.16330862492494 
594	 0.16337267929813 
595	 0.163588502924484 
596	 0.16383836977634 
597	 0.163923700194766 
598	 0.164111248750599 
599	 0.164316109070633 
600	 0.164490934942502 
601	 0.164642968452759 
602	 0.164808593426991 
603	 0.164966031566273 
604	 0.165094984554031 
605	 0.165209587234214 
606	 0.165344187903401 
607	 0.16544469330858 
608	 0.165440737005784 
609	 0.165496205683665 
610	 0.165626293570502 
611	 0.165783026690572 
612	 0.165857043245938 
613	 0.165925495258298 
614	 0.165962181872654 
615	 0.165954720332336 
616	 0.166049362310344 
617	 0.166073775632925 
618	 0.166043627149859 
619	 0.166107697888294 
620	 0.166281626039169 
621	 0.166455638725262 
622	 0.166596524318833 
623	 0.166855245204351 
624	 0.167110944407806 
625	 0.167354072971555 
626	 0.167623397171767 
627	 0.167998087301437 
628	 0.168355152007967 
629	 0.168679176708424 
630	 0.16905877973127 
631	 0.169400998401458 
632	 0.169702955736151 
633	 0.169960844675817 
634	 0.170130604154647 
635	 0.170160452485632 
636	 0.170117887711943 
637	 0.170098300855878 
638	 0.169965797869579 
639	 0.169714086504393 
640	 0.16937235382954 
641	 0.169007605288309 
642	 0.168494769331757 
643	 0.168029188446123 
644	 0.167728608959616 
645	 0.167212764431813 
646	 0.166762824584362 
647	 0.166391348205313 
648	 0.165976447353913 
649	 0.165822338620796 
650	 0.165658066200892 
651	 0.165424449248259 
652	 0.165499873814196 
653	 0.165574963572809 
654	 0.16560159469973 
655	 0.165616326006598 
656	 0.165691944516299 
657	 0.165654239588622 
658	 0.165502089660999 
659	 0.165350593131484 
660	 0.164999813984705 
661	 0.16454896565397 
662	 0.164111828452953 
663	 0.163730118101598 
664	 0.163381433939622 
665	 0.163055333617862 
666	 0.162730977193688 
667	 0.162329286032658 
668	 0.162039817010848 
669	 0.161902037955071 
670	 0.161804528595946 
671	 0.161771920874534 
672	 0.161868506259887 
673	 0.162087912044488 
674	 0.162241053643067 
675	 0.162480644025007 
676	 0.162806214134958 
677	 0.163174743417392 
678	 0.163666493872788 
679	 0.164192428967619 
680	 0.164769761516054 
681	 0.165537796032475 
682	 0.16668496793696 
683	 0.168016349258326 
684	 0.169424593823865 
685	 0.171245014221427 
686	 0.17330188319952 
687	 0.175816172593487 
688	 0.178851124439584 
689	 0.181823684142387 
690	 0.184933468892394 
691	 0.188363523972771 
692	 0.191935328272227 
693	 0.195804334297391 
694	 0.19991456297044 
695	 0.204077911912788 
696	 0.207993797764923 
697	 0.21204628440846 
698	 0.216205331241694 
699	 0.220233341462482 
700	 0.224143305560137 
701	 0.227986850000957 
702	 0.231739915830809 
703	 0.235280516666375 
704	 0.238724440538878 
705	 0.242004751046761 
706	 0.245101075188854 
707	 0.24811697986205 
708	 0.251041433318316 
709	 0.253933009219604 
710	 0.256815285532693 
711	 0.259434860705431 
712	 0.262040180612322 
713	 0.2646799214853 
714	 0.267135521519186 
715	 0.269597098564027 
716	 0.272101360200132 
717	 0.274707780509011 
718	 0.277414690357629 
719	 0.279908996326627 
720	 0.282074779326868 
721	 0.284017139119506 
722	 0.28577502191344 
723	 0.287640371253843 
724	 0.289740328278282 
725	 0.291768567509407 
726	 0.293633170817421 
727	 0.295344265497004 
728	 0.296985048614665 
729	 0.298567690109614 
730	 0.300161830426807 
731	 0.301690106097583 
732	 0.303053390540781 
733	 0.30430947658258 
734	 0.305461913487451 
735	 0.3065958292926 
736	 0.307821875251036 
737	 0.308941479867444 
738	 0.30998745239769 
739	 0.311028886355406 
740	 0.312079883230897 
741	 0.313035807471775 
742	 0.313949866498995 
743	 0.314898920916309 
744	 0.315852092465176 
745	 0.316696080010438 
746	 0.317448474618536 
747	 0.318225843980791 
748	 0.319053356148792 
749	 0.319772753314267 
750	 0.320397370894196 
751	 0.32126905333684 
752	 0.321956206487007 
753	 0.322590084996902 
754	 0.323338079683137 
755	 0.323897030816819 
756	 0.324487707374054 
757	 0.325032182394459 
758	 0.325364879030638 
759	 0.326131376200479 
760	 0.327463947515125 
761	 0.329128443077643 
762	 0.329810909320266 
763	 0.329976138827325 
764	 0.330243674851196 
765	 0.330748272194188 
766	 0.33094617995344 
767	 0.331278421873362 
768	 0.331714142164724 
769	 0.332128533435295 
770	 0.332596964827379 
771	 0.33314708454418 
772	 0.333688561254322 
773	 0.334067949124305 
774	 0.334578742922247 
775	 0.335104083725384 
776	 0.335579363763143 
777	 0.336141765342562 
778	 0.336700330321038 
779	 0.337244997577523 
780	 0.337785054984565 
781	 0.338339934253265 
782	 0.338817905728814 
783	 0.339316953063478 
784	 0.339984161379261 
785	 0.340547598210959 
786	 0.341081843558469 
787	 0.341639442300326 
788	 0.342214695120157 
789	 0.342875588280057 
790	 0.343463715652474 
791	 0.34391193403731 
792	 0.344418732949648 
793	 0.345081288883214 
794	 0.34571850879091 
795	 0.346156535475642 
796	 0.346657408348741 
797	 0.347179721888583 
798	 0.347709767005425 
799	 0.348242727840802 
800	 0.348699726899536 
801	 0.349247419986736 
802	 0.349882170799718 
803	 0.350402468167188 
804	 0.351025837787594 
805	 0.35158215844815 
806	 0.351990198108241 
807	 0.352498986280631 
808	 0.35307201062503 
809	 0.35365262981202 
810	 0.354192349733853 
811	 0.354732965254137 
812	 0.355398943993434 
813	 0.356139706701005 
814	 0.356805169822014 
815	 0.357398619966143 
816	 0.35810585627999 
817	 0.358849622083963 
818	 0.35928959001033 
819	 0.359601072877132 
820	 0.35987395005536 
821	 0.360296481777807 
822	 0.361249412320801 
823	 0.361915006505517 
824	 0.362273691804857 
825	 0.362542604771312 
826	 0.362874226666661 
827	 0.363381565040237 
828	 0.363911700236355 
829	 0.364259356412196 
830	 0.364713257815797 
831	 0.365288360586747 
832	 0.365826684554589 
833	 0.366128901511775 
834	 0.366707356911741 
835	 0.367262804049452 
836	 0.367630144219506 
837	 0.3679351728092 
838	 0.368549766562806 
839	 0.369152841589761 
840	 0.369508462877917 
841	 0.369820356055678 
842	 0.370362748678493 
843	 0.371041219398117 
844	 0.371621561011571 
845	 0.371824938842337 
846	 0.372309199164826 
847	 0.372879573090452 
848	 0.373103986466479 
849	 0.373534971911094 
850	 0.374089583699811 
851	 0.374532459094929 
852	 0.374679135401586 
853	 0.375508289784637 
854	 0.376365524112249 
855	 0.376841280937563 
856	 0.37706474690334 
857	 0.377533277602511 
858	 0.37798686938454 
859	 0.378326557554278 
860	 0.378887450090365 
861	 0.379430789768807 
862	 0.379699453904646 
863	 0.379725905820899 
864	 0.380254565588913 
865	 0.380928290426486 
866	 0.381490850449891 
867	 0.38184370456271 
868	 0.382406343806546 
869	 0.382743247815626 
870	 0.38299686022796 
871	 0.383498231283428 
872	 0.383994586834495 
873	 0.384386375160874 
874	 0.384762299428013 
875	 0.385321677824171 
876	 0.386059868914348 
877	 0.386615827536942 
878	 0.38693454977228 
879	 0.387294788409618 
880	 0.387683408980853 
881	 0.388193545335999 
882	 0.388720343329897 
883	 0.38892389392496 
884	 0.389425797516089 
885	 0.389875642783447 
886	 0.390125635861514 
887	 0.390744349212871 
888	 0.39139151422908 
889	 0.391846646498781 
890	 0.392075269898429 
891	 0.392383726756197 
892	 0.393121404261287 
893	 0.393709345256625 
894	 0.393725591254813 
895	 0.394488513004205 
896	 0.395187971707243 
897	 0.39588727509363 
898	 0.396867373987171 
899	 0.397611470095425 
900	 0.397859641273981 
901	 0.397774153455923 
902	 0.397787083255178 
903	 0.39838169539186 
904	 0.398458063143737 
905	 0.398617440075428 
906	 0.400050340071179 
907	 0.400112287884653 
908	 0.400686137163976 
909	 0.401669455403477 
910	 0.401351752024277 
911	 0.401868194540509 
912	 0.402418291226148 
913	 0.402713779329999 
914	 0.403227788043548 
915	 0.403708422466634 
916	 0.403870958365351 
917	 0.403809959345416 
918	 0.404015611393095 
919	 0.404528424117827 
920	 0.4048679179976 
921	 0.405031709605484 
922	 0.405665776289209 
923	 0.406242051512096 
924	 0.406581294829894 
925	 0.40656571288672 
926	 0.406138335840289 
927	 0.406830795231968 
928	 0.407480170396223 
929	 0.407501596464011 
930	 0.408666669525771 
931	 0.410589296530032 
932	 0.411667844869689 
933	 0.411208384598187 
934	 0.411539456018427 
935	 0.412703148542711 
936	 0.412972348159952 
937	 0.411769606859068 
938	 0.411497948341901 
939	 0.411472911029882 
940	 0.411451087085287 
941	 0.411334954914736 
942	 0.411139257373631 
943	 0.412781838839227 
944	 0.413945264976394 
945	 0.413099102935677 
946	 0.412803114158535 
947	 0.413789424374189 
948	 0.414375756120359 
949	 0.41376150490528 
950	 0.414377426094177 
951	 0.414120375615964 
952	 0.414216215968074 
953	 0.41532566657897 
954	 0.415357634149906 
955	 0.414507393738741 
956	 0.414261131633807 
957	 0.415078485179742 
958	 0.414866487272911 
959	 0.414629369313318 
960	 0.415044184202418 
961	 0.415963542235524 
962	 0.416015726020752 
963	 0.416022484218068 
964	 0.415469073490744 
965	 0.414766426684496 
966	 0.416069641349083 
967	 0.416404067722733 
968	 0.41649643822499 
969	 0.416815665141431 
970	 0.41628873526371 
971	 0.416666889823597 
972	 0.417392321259693 
973	 0.417597898487068 
974	 0.416848151096768 
975	 0.417376600742634 
976	 0.417850609757627 
977	 0.417707776480824 
978	 0.418151817711684 
979	 0.418069642108725 
980	 0.418043504633302 
981	 0.418369856198567 
982	 0.418729773303638 
983	 0.418988679505864 
984	 0.418849501039852 
985	 0.418747360915959 
986	 0.419447957596037 
987	 0.418833861417374 
988	 0.420015259014086 
989	 0.422296774706786 
990	 0.422412729946153 
991	 0.423278856965757 
992	 0.422700549910116 
993	 0.421755020852842 
994	 0.422766519045463 
995	 0.422296393276876 
996	 0.422272448384042 
997	 0.422834780184759 
998	 0.4233291090458 
999	 0.424610792780404 
1000	 0.423472056000728 
1001	 0.430439464843897 
1002	 0.430705910265637 
1003	 0.43106236717376 
1004	 0.431530913927349 
1005	 0.431887776774742 
1006	 0.432211450839895 
1007	 0.432595719797487 
1008	 0.433052273998853 
1009	 0.433335583232687 
1010	 0.433537739660541 
1011	 0.433839989683364 
1012	 0.43414891786379 
1013	 0.434348527553303 
1014	 0.434755338239613 
1015	 0.435298357921597 
1016	 0.435715023102854 
1017	 0.436109113866572 
1018	 0.436499647728711 
1019	 0.436951536297252 
1020	 0.43727862762738 
1021	 0.437445890384469 
1022	 0.43781431761614 
1023	 0.438254153866681 
1024	 0.43864566467411 
1025	 0.439168910977778 
1026	 0.439579555079671 
1027	 0.439780716334703 
1028	 0.440066219330765 
1029	 0.440261835983975 
1030	 0.440492517045505 
1031	 0.440797775786053 
1032	 0.440962746521347 
1033	 0.441176093791658 
1034	 0.441356915476947 
1035	 0.44165075612418 
1036	 0.44203729231819 
1037	 0.442352137169089 
1038	 0.442750658192191 
1039	 0.443053119281256 
1040	 0.443151907595735 
1041	 0.443385535903078 
1042	 0.44360334503165 
1043	 0.443753272574393 
1044	 0.444110175082792 
1045	 0.444379615237888 
1046	 0.444593714514796 
1047	 0.444912834787424 
1048	 0.445064706250326 
1049	 0.445144891417625 
1050	 0.445388548444662 
1051	 0.445746787262439 
1052	 0.44604567493949 
1053	 0.446365504600395 
1054	 0.446846601421589 
1055	 0.447129499079859 
1056	 0.447316244565296 
1057	 0.447415166950034 
1058	 0.447513628163541 
1059	 0.447781167369744 
1060	 0.448073850392199 
1061	 0.44850877893862 
1062	 0.448807365438421 
1063	 0.448916824318568 
1064	 0.449106937510204 
1065	 0.449362385194332 
1066	 0.449644722821813 
1067	 0.45001313140218 
1068	 0.450448067721082 
1069	 0.450851182265424 
1070	 0.451192535540683 
1071	 0.451484673493633 
1072	 0.451693666803398 
1073	 0.451981411563125 
1074	 0.452328274489366 
1075	 0.452637871624506 
1076	 0.452993142401411 
1077	 0.45332438926874 
1078	 0.453544851850967 
1079	 0.45369162821318 
1080	 0.453928585349731 
1081	 0.454243557770521 
1082	 0.454583652568821 
1083	 0.454939546667743 
1084	 0.455361846942658 
1085	 0.455785533027941 
1086	 0.456122298905398 
1087	 0.456351304696888 
1088	 0.456656807706077 
1089	 0.456972452415016 
1090	 0.457320947231968 
1091	 0.457663941358461 
1092	 0.457873819052128 
1093	 0.45825609967151 
1094	 0.458618706711077 
1095	 0.458880946526889 
1096	 0.459139516763766 
1097	 0.459370712026152 
1098	 0.45963368157284 
1099	 0.459821700036035 
1100	 0.460198744182212 
1101	 0.460514346184463 
1102	 0.460805695057137 
1103	 0.461092731447029 
1104	 0.4612130410069 
1105	 0.461392297253557 
1106	 0.461683817296322 
1107	 0.462050907340642 
1108	 0.462442201231339 
1109	 0.462762950445 
1110	 0.463131081671212 
1111	 0.463493140748913 
1112	 0.463744387720953 
1113	 0.464067395322316 
1114	 0.46444069229566 
1115	 0.46492141128587 
1116	 0.465494880237081 
1117	 0.466006906924092 
1118	 0.466641678472145 
1119	 0.467415784137619 
1120	 0.468052984104837 
1121	 0.468569120186082 
1122	 0.469096618500748 
1123	 0.469649329369367 
1124	 0.470085812823054 
1125	 0.470451604114356 
1126	 0.470646202620749 
1127	 0.470731444721932 
1128	 0.470706213875517 
1129	 0.470447190008401 
1130	 0.470266329104542 
1131	 0.470029572088844 
1132	 0.469829219653846 
1133	 0.469573286461058 
1134	 0.469501631813449 
1135	 0.469386047237011 
1136	 0.469108184507705 
1137	 0.468919299597312 
1138	 0.46856629232725 
1139	 0.468101837589946 
1140	 0.467837757120333 
1141	 0.467591765494434 
1142	 0.46733375358742 
1143	 0.467070708743437 
1144	 0.466944037383583 
1145	 0.466595365937659 
1146	 0.466040778796076 
1147	 0.465618359000361 
1148	 0.465230036449103 
1149	 0.464801158057633 
1150	 0.464373883465569 
1151	 0.464002911594776 
1152	 0.463620683172581 
1153	 0.463316462696678 
1154	 0.462920619019655 
1155	 0.462667847934596 
1156	 0.462373143370097 
1157	 0.461835093556086 
1158	 0.461480087276109 
1159	 0.461280713716933 
1160	 0.461068023331716 
1161	 0.460874129612658 
1162	 0.460780709734887 
1163	 0.460789177532525 
1164	 0.460697511030662 
1165	 0.460587207394957 
1166	 0.460551951383295 
1167	 0.460461383347343 
1168	 0.460443157292809 
1169	 0.460501082065976 
1170	 0.460641137127046 
1171	 0.460721986362138 
1172	 0.460819187049612 
1173	 0.460839682042541 
1174	 0.460813732376591 
1175	 0.460792992019328 
1176	 0.460752143507277 
1177	 0.460861922600415 
1178	 0.461132944188967 
1179	 0.461283522103326 
1180	 0.461507534173677 
1181	 0.461639853078432 
1182	 0.461665839318161 
1183	 0.461743384101791 
1184	 0.461810880586412 
1185	 0.461883275505852 
1186	 0.461957997795946 
1187	 0.462026749190266 
1188	 0.46212932977665 
1189	 0.462167382169535 
1190	 0.462168667431561 
1191	 0.462191038111943 
1192	 0.462162948585274 
1193	 0.462211412186552 
1194	 0.462301932801277 
1195	 0.46243599890645 
1196	 0.462585331748723 
1197	 0.462813281622716 
1198	 0.46297957204538 
1199	 0.463130965847093 
1200	 0.463301225178709 
1201	 0.46341720021679 
1202	 0.463630714795971 
1203	 0.463959118235622 
1204	 0.464196869827672 
1205	 0.464423954710945 
1206	 0.464652182752424 
1207	 0.464808746309126 
1208	 0.465018257092471 
1209	 0.465267305738406 
1210	 0.465552115610432 
1211	 0.465827655675737 
1212	 0.466008014520135 
1213	 0.466237562075645 
1214	 0.466440745566499 
1215	 0.466705851212683 
1216	 0.467023030419643 
1217	 0.467290639555699 
1218	 0.467583639482493 
1219	 0.467850747905748 
1220	 0.468049778050748 
1221	 0.46831036764234 
1222	 0.468618668259709 
1223	 0.468885786073865 
1224	 0.469145624071323 
1225	 0.469432629268211 
1226	 0.469702104926094 
1227	 0.469984728618095 
1228	 0.470303901323779 
1229	 0.470612083054182 
1230	 0.470940234471518 
1231	 0.471251242955956 
1232	 0.471536342707972 
1233	 0.471825679249659 
1234	 0.472089088820449 
1235	 0.472306027505019 
1236	 0.472546867071015 
1237	 0.472762049242321 
1238	 0.473050347444396 
1239	 0.47339986322695 
1240	 0.473685356463461 
1241	 0.473968746079699 
1242	 0.474288460423297 
1243	 0.474627503264803 
1244	 0.474895635933682 
1245	 0.475177993907379 
1246	 0.475437670002988 
1247	 0.475595516060079 
1248	 0.475782171742309 
1249	 0.475996870531199 
1250	 0.476219813782099 
1251	 0.476438362537552 
1252	 0.47664478299621 
1253	 0.476859623219489 
1254	 0.477115720881644 
1255	 0.477312292924975 
1256	 0.477466851451037 
1257	 0.477647315488322 
1258	 0.477825469495696 
1259	 0.477994157511951 
1260	 0.478147689613305 
1261	 0.47833402004793 
1262	 0.478508231018561 
1263	 0.478721731697844 
1264	 0.479029347719884 
1265	 0.479244791879589 
1266	 0.479415690692438 
1267	 0.479596503904161 
1268	 0.479718995503616 
1269	 0.479866580819565 
1270	 0.479991982329683 
1271	 0.480184032575964 
1272	 0.480472600597328 
1273	 0.480663128852854 
1274	 0.480854244633411 
1275	 0.481111809056628 
1276	 0.481213619086927 
1277	 0.481145949187435 
1278	 0.481261039495963 
1279	 0.481358205558169 
1280	 0.481553488188091 
1281	 0.481944712128832 
1282	 0.482141286657972 
1283	 0.482288240977765 
1284	 0.482428479864384 
1285	 0.48245411192577 
1286	 0.482561212520276 
1287	 0.482734582959744 
1288	 0.482855205433305 
1289	 0.482892054058326 
1290	 0.483057570522177 
1291	 0.48333772816136 
1292	 0.483515398016339 
1293	 0.483718159146217 
1294	 0.483922589297852 
1295	 0.484073095276095 
1296	 0.484182398164073 
1297	 0.484293507586925 
1298	 0.484459134077022 
1299	 0.484552778988855 
1300	 0.484562472635535 
1301	 0.484605623678565 
1302	 0.484675702302277 
1303	 0.484694367967689 
1304	 0.48464661335303 
1305	 0.484659185112443 
1306	 0.484718387260845 
1307	 0.484693460896185 
1308	 0.484647819585963 
1309	 0.484599446803624 
1310	 0.484498231685408 
1311	 0.484388345894864 
1312	 0.484296693409106 
1313	 0.484173842737815 
1314	 0.484026697872484 
1315	 0.483826427247691 
1316	 0.483576554448839 
1317	 0.483339703280229 
1318	 0.483020210148403 
1319	 0.482755788332278 
1320	 0.482571585490998 
1321	 0.482374276264568 
1322	 0.482030804132539 
1323	 0.481615379899927 
1324	 0.481214451246982 
1325	 0.480616214288644 
1326	 0.480268124801474 
1327	 0.48011986750212 
1328	 0.479776264361427 
1329	 0.479486850848273 
1330	 0.479052496481692 
1331	 0.478394071495407 
1332	 0.477876541766323 
1333	 0.477394938097861 
1334	 0.476874550931925 
1335	 0.47637712672982 
1336	 0.475849442529244 
1337	 0.475248508959154 
1338	 0.474682718079094 
1339	 0.473990263054203 
1340	 0.473508965391969 
1341	 0.473105325832151 
1342	 0.472736618073019 
1343	 0.47262493300651 
1344	 0.472409246178158 
1345	 0.47211298231061 
1346	 0.471814873651388 
1347	 0.471472387772539 
1348	 0.471195215656783 
1349	 0.471153678058535 
1350	 0.471467326368211 
1351	 0.471897876858612 
1352	 0.473501761084774 
1353	 0.474064126531987 
1354	 0.473643170764859 
1355	 0.473796579285791 
1356	 0.471035774127192 
1357	 0.47137848850486 
1358	 0.479160188277067 
1359	 0.485225989872028 
1360	 0.495525636189703 
1361	 0.505783498468237 
1362	 0.49832452363998 
1363	 0.495179168051161 
1364	 0.480860312468419 
1365	 0.473585397697925 
1366	 0.469383513994959 
1367	 0.468031692787349 
1368	 0.476923766439122 
1369	 0.477972683151009 
1370	 0.474460383678293 
1371	 0.475142602719816 
1372	 0.477224017685192 
1373	 0.476671536831089 
1374	 0.474639222953861 
1375	 0.477851958127501 
1376	 0.473324048158167 
1377	 0.467777707947916 
1378	 0.463791791365611 
1379	 0.45894845264638 
1380	 0.453610407180915 
1381	 0.447475874328382 
1382	 0.444578002797343 
1383	 0.442544156504972 
1384	 0.440385525655493 
1385	 0.441599821848112 
1386	 0.439997061283737 
1387	 0.437521093375409 
1388	 0.43425405396717 
1389	 0.430199902020147 
1390	 0.427491727561816 
1391	 0.426220870824951 
1392	 0.421544966318261 
1393	 0.416166766650119 
1394	 0.410760350211905 
1395	 0.401991065653925 
1396	 0.396614459762839 
1397	 0.393653174620327 
1398	 0.390119527968265 
1399	 0.387653933443887 
1400	 0.383925736194482 
1401	 0.379266330415497 
1402	 0.375332549270842 
1403	 0.371359179659356 
1404	 0.367878846317296 
1405	 0.365177064476071 
1406	 0.36295302613132 
1407	 0.360550307120338 
1408	 0.357717905438336 
1409	 0.354576917624982 
1410	 0.35119597491251 
1411	 0.347988509728163 
1412	 0.344518419679996 
1413	 0.34187306606691 
1414	 0.339459000392998 
1415	 0.337509025665124 
1416	 0.336053764323335 
1417	 0.334307191675606 
1418	 0.332632936665345 
1419	 0.331086265217014 
1420	 0.32959524408407 
1421	 0.328009363278525 
1422	 0.326233827464482 
1423	 0.325116174169827 
1424	 0.324007528162042 
1425	 0.32317872515621 
1426	 0.323061559400781 
1427	 0.322344559335237 
1428	 0.321233738223035 
1429	 0.320421567184336 
1430	 0.319482706692805 
1431	 0.31870220550337 
1432	 0.318076397531775 
1433	 0.317538919988124 
1434	 0.317025950979262 
1435	 0.316615648589433 
1436	 0.31640346482458 
1437	 0.316081326025252 
1438	 0.315789529416835 
1439	 0.315477533411289 
1440	 0.315116960555075 
1441	 0.314826251019324 
1442	 0.314506039250563 
1443	 0.314283025077987 
1444	 0.3142099397402 
1445	 0.314108876230481 
1446	 0.314163315238256 
1447	 0.314118252010983 
1448	 0.313968488033519 
1449	 0.313705198531713 
1450	 0.313636220610932 
1451	 0.313570098559572 
1452	 0.313460642959818 
1453	 0.313444053612071 
1454	 0.313347838415219 
1455	 0.313093556527315 
1456	 0.313092381419866 
1457	 0.313210643433799 
1458	 0.31326938404901 
1459	 0.313339511893569 
1460	 0.313534638826937 
1461	 0.313791071436694 
1462	 0.314063069821904 
1463	 0.314454111488776 
1464	 0.314911149520107 
1465	 0.315354301746251 
1466	 0.315934118746769 
1467	 0.316805790093957 
1468	 0.31746778010509 
1469	 0.31790193924281 
1470	 0.318656892537249 
1471	 0.319510006400248 
1472	 0.320290774676847 
1473	 0.321234910524014 
1474	 0.322019583573915 
1475	 0.322563520377829 
1476	 0.323216384158912 
1477	 0.323837345121434 
1478	 0.324572249557222 
1479	 0.325311126049519 
1480	 0.326101044558701 
1481	 0.327059598892086 
1482	 0.327878516920939 
1483	 0.328567659821788 
1484	 0.329386666263682 
1485	 0.330240510522206 
1486	 0.331026594504743 
1487	 0.331839859252296 
1488	 0.332639820209286 
1489	 0.33335444015642 
1490	 0.333991158130361 
1491	 0.334730068748952 
1492	 0.335542578130365 
1493	 0.336395363706194 
1494	 0.33725630682543 
1495	 0.338018428684248 
1496	 0.338769699048978 
1497	 0.33951328345676 
1498	 0.340169559548596 
1499	 0.34097091354132 
1500	 0.341831810071375 
1501	 0.34278134349023 
1502	 0.343832038413243 
1503	 0.344844937426005 
1504	 0.3459621946646 
1505	 0.346941532857688 
1506	 0.347845052181411 
1507	 0.348781579291003 
1508	 0.349651769938387 
1509	 0.350592280456194 
1510	 0.351614464008948 
1511	 0.352514582059947 
1512	 0.353359500056296 
1513	 0.354276304278415 
1514	 0.35515102613108 
1515	 0.356077492353589 
1516	 0.357134032071336 
1517	 0.358072340545719 
1518	 0.358969870360602 
1519	 0.35984992247649 
1520	 0.360678279562121 
1521	 0.361534648696649 
1522	 0.362367625645996 
1523	 0.36323432615481 
1524	 0.364140018874103 
1525	 0.365023589333978 
1526	 0.36594044532895 
1527	 0.366807357544502 
1528	 0.367633569861959 
1529	 0.368478268337488 
1530	 0.369293068253818 
1531	 0.370133194020701 
1532	 0.371034374440345 
1533	 0.371860263222902 
1534	 0.372671292736366 
1535	 0.373451729996494 
1536	 0.374093525500464 
1537	 0.37488369474478 
1538	 0.375811941353939 
1539	 0.376611980965429 
1540	 0.377455647065192 
1541	 0.378229998845648 
1542	 0.378791437677046 
1543	 0.379504169075641 
1544	 0.380384575318671 
1545	 0.381100904980845 
1546	 0.38170096874534 
1547	 0.382431636026177 
1548	 0.38315929568141 
1549	 0.383864840254244 
1550	 0.384712761335471 
1551	 0.385484413564941 
1552	 0.386101024038302 
1553	 0.386793409514214 
1554	 0.387579556506656 
1555	 0.388296056095337 
1556	 0.389029411633476 
1557	 0.389687455231236 
1558	 0.390212414652337 
1559	 0.39080038141944 
1560	 0.391380718819555 
1561	 0.391962742999722 
1562	 0.39258007603055 
1563	 0.39320540020506 
1564	 0.393826407042468 
1565	 0.394448476316904 
1566	 0.395113591163629 
1567	 0.395771899166149 
1568	 0.396403663942425 
1569	 0.397016118680131 
1570	 0.39764351965076 
1571	 0.398269217311089 
1572	 0.398861888293522 
1573	 0.39944003749499 
1574	 0.400028989891148 
1575	 0.400592061383688 
1576	 0.401144248353159 
1577	 0.401679041782909 
1578	 0.402278460236614 
1579	 0.402875758564362 
1580	 0.403459979026164 
1581	 0.404111348500934 
1582	 0.404673692171885 
1583	 0.405144890725502 
1584	 0.405697638330361 
1585	 0.406270308460288 
1586	 0.406844041468285 
1587	 0.407448363078591 
1588	 0.408019395064124 
1589	 0.408569609655258 
1590	 0.409160738366225 
1591	 0.409779897757381 
1592	 0.410330861153998 
1593	 0.410901847489443 
1594	 0.411397239978864 
1595	 0.41174940407981 
1596	 0.412315029197822 
1597	 0.413011920645059 
1598	 0.413510624966801 
1599	 0.414020328061912 
1600	 0.414523918574642 
1601	 0.414836651143077 
1602	 0.415363638318542 
1603	 0.416068267787651 
1604	 0.416677403962263 
1605	 0.417307907888534 
1606	 0.417857612751883 
1607	 0.418359265835756 
1608	 0.418898273131893 
1609	 0.419394495505276 
1610	 0.419905299784891 
1611	 0.420476761984448 
1612	 0.420953257417473 
1613	 0.421354502837682 
1614	 0.421792403823881 
1615	 0.422210701999714 
1616	 0.422634299123122 
1617	 0.423081594214336 
1618	 0.423471243987675 
1619	 0.423817125687137 
1620	 0.424198644831564 
1621	 0.424536616716355 
1622	 0.424977667792601 
1623	 0.425531315886098 
1624	 0.425925606666511 
1625	 0.426282860068048 
1626	 0.426676565164728 
1627	 0.427008623478414 
1628	 0.427360728540785 
1629	 0.427780723116658 
1630	 0.428161994469422 
1631	 0.428495961064296 
1632	 0.428788040684948 
1633	 0.429086054453983 
1634	 0.429388023247104 
1635	 0.429606189779654 
1636	 0.42989622186091 
1637	 0.430269823888825 
1638	 0.4305812587684 
1639	 0.43087940552384 
1640	 0.431133329972862 
1641	 0.431332568570414 
1642	 0.4316096836217 
1643	 0.431881301836045 
1644	 0.432149866505123 
1645	 0.432499484313945 
1646	 0.432747522953428 
1647	 0.43291238767526 
1648	 0.433102255264577 
1649	 0.433259506397906 
1650	 0.433492194233028 
1651	 0.433774682855773 
1652	 0.43396461809566 
1653	 0.434183985558724 
1654	 0.43431833527686 
1655	 0.434360394084634 
1656	 0.434359116513688 
1657	 0.434293439892113 
1658	 0.434182109178243 
1659	 0.434206898330172 
1660	 0.434335231809049 
1661	 0.43451497364156 
1662	 0.43458235652776 
1663	 0.434603773634099 
1664	 0.434628797396271 
1665	 0.434554626961078 
1666	 0.434466167179673 
1667	 0.434322452417474 
1668	 0.434143932496165 
1669	 0.434019495276588 
1670	 0.433905316580419 
1671	 0.433842921121334 
1672	 0.433700278627255 
1673	 0.433493646371079 
1674	 0.433463772122998 
1675	 0.433459449478136 
1676	 0.433429694927259 
1677	 0.433460958140772 
1678	 0.433234024940023 
1679	 0.432845031383247 
1680	 0.432636268985192 
1681	 0.432374121143508 
1682	 0.432120082921584 
1683	 0.431994617050749 
1684	 0.431546864869124 
1685	 0.431083770906056 
1686	 0.431004106748727 
1687	 0.430863086086714 
1688	 0.430757312277687 
1689	 0.430637173368825 
1690	 0.430074179802327 
1691	 0.429689257907988 
1692	 0.429369979742613 
1693	 0.42903709961872 
1694	 0.4287827339944 
1695	 0.428479784164025 
1696	 0.428096883430148 
1697	 0.427758418345757 
1698	 0.427378775964851 
1699	 0.427101626558363 
1700	 0.427019254942032 
1701	 0.426806901404615 
1702	 0.426563038022233 
1703	 0.426299651003575 
1704	 0.425925761141014 
1705	 0.425521374716377 
1706	 0.425122966759213 
1707	 0.424788855187783 
1708	 0.42445920901485 
1709	 0.424045607431221 
1710	 0.42364082888805 
1711	 0.423218740097079 
1712	 0.422702581857647 
1713	 0.422253296716197 
1714	 0.421828159290185 
1715	 0.421415463114259 
1716	 0.421025901796514 
1717	 0.420565025664462 
1718	 0.420119276863906 
1719	 0.419730209239778 
1720	 0.419235174976539 
1721	 0.418849140562985 
1722	 0.418647491599845 
1723	 0.418288049044562 
1724	 0.417860417124788 
1725	 0.41750444479404 
1726	 0.417051054160176 
1727	 0.416755517742763 
1728	 0.416602800340768 
1729	 0.416397242189171 
1730	 0.416276459611156 
1731	 0.416154059185773 
1732	 0.415946948356721 
1733	 0.415906446339105 
1734	 0.415797999972392 
1735	 0.415804006037921 
1736	 0.415908501712655 
1737	 0.415825543945112 
1738	 0.415692243983535 
1739	 0.415364921962028 
1740	 0.414867821852884 
1741	 0.4144985971504 
1742	 0.414083463306077 
1743	 0.41367385330664 
1744	 0.41353529184398 
1745	 0.413272944099691 
1746	 0.412901020965413 
1747	 0.412538983142254 
1748	 0.411737598106027 
1749	 0.410991738051905 
1750	 0.4106513651232 
1751	 0.410345466144016 
1752	 0.410165476749592 
1753	 0.409997135221138 
1754	 0.409576545214682 
1755	 0.40917134862266 
1756	 0.408779945253488 
1757	 0.408276018374957 
1758	 0.40783373230376 
1759	 0.407147784596755 
1760	 0.406765756547834 
1761	 0.406781594600456 
1762	 0.406476346143485 
1763	 0.406200957637048 
1764	 0.4058878653935 
1765	 0.405112220305365 
1766	 0.404900275076131 
1767	 0.405102410141494 
1768	 0.405040030201874 
1769	 0.405287109723053 
1770	 0.405254557661012 
1771	 0.404841490558384 
1772	 0.40455780978588 
1773	 0.404292924717387 
1774	 0.403643033725005 
1775	 0.403380656447696 
1776	 0.40319733686038 
1777	 0.403002723737036 
1778	 0.403119910131102 
1779	 0.403158580264598 
1780	 0.403007062164609 
1781	 0.40293817416674 
1782	 0.402992985062965 
1783	 0.403262568471394 
1784	 0.403878439324994 
1785	 0.404039790751854 
1786	 0.403390858807627 
1787	 0.402984317984264 
1788	 0.402865200921339 
1789	 0.402997274995648 
1790	 0.403729404931172 
1791	 0.403950967818563 
1792	 0.403266151935064 
1793	 0.402665386692672 
1794	 0.402819680497866 
1795	 0.403471383422972 
1796	 0.404494862014018 
1797	 0.405406503087935 
1798	 0.405611975429222 
1799	 0.405817599604355 
1800	 0.406118814167626 
1801	 0.408251154349277 
1802	 0.408829621010116 
1803	 0.409594736507791 
1804	 0.411049321182063 
1805	 0.411733272051705 
1806	 0.412083687375404 
1807	 0.412893916767294 
1808	 0.413396903160294 
1809	 0.413611193014128 
1810	 0.414594737793971 
1811	 0.41707009498066 
1812	 0.418610739130426 
1813	 0.420299224163032 
1814	 0.420961417187173 
1815	 0.419907847388524 
1816	 0.420373629729867 
1817	 0.421141461841163 
1818	 0.421178981902722 
1819	 0.421270662046309 
1820	 0.423232855157894 
1821	 0.423413894565903 
1822	 0.419478912756039 
1823	 0.419870247220296 
1824	 0.423401184200464 
1825	 0.425838851583308 
1826	 0.433050772154951 
1827	 0.437964924321191 
1828	 0.442024754268335 
1829	 0.441781688326812 
1830	 0.44833720026678 
1831	 0.461452008525842 
1832	 0.466627833614817 
1833	 0.466876280469551 
1834	 0.47443070859784 
1835	 0.460297041078982 
1836	 0.457905640293772 
1837	 0.503245075117853 
1838	 0.515632993386921 
1839	 0.510141172582894 
1840	 0.477213442068165 
1841	 0.451049716929806 
1842	 0.399016357096747 
1843	 0.382170562541165 
1844	 0.368656722241875 
1845	 0.373919338223204 
1846	 0.428024062371037 
1847	 0.437304121191767 
1848	 0.434679820659339 
1849	 0.417901681807898 
1850	 0.428786234373664 
1851	 0.408541201186716 
1852	 0.436675622805014 
1853	 0.596041435805141 
1854	 0.610483221486488 
1855	 0.523678837990647 
1856	 0.498770200160692 
1857	 0.436278047449223 
1858	 0.386941611701916 
1859	 0.386000893090741 
1860	 0.455470750912753 
1861	 0.459158348055577 
1862	 0.436301571827982 
1863	 0.436631074018052 
1864	 0.434827032165533 
1865	 0.431666683466059 
1866	 0.423421993433127 
1867	 0.452947285708986 
1868	 0.478691115512899 
1869	 0.496295603639431 
1870	 0.49186908678206 
1871	 0.488303787394961 
1872	 0.47527674991258 
1873	 0.438002379620022 
1874	 0.408708092840473 
1875	 0.39220271349326 
1876	 0.374707130433935 
1877	 0.362891420457094 
1878	 0.337253739376902 
1879	 0.31834851889697 
1880	 0.31982281852839 
1881	 0.318806996966145 
1882	 0.319011709980702 
1883	 0.320671635812975 
1884	 0.329267061838351 
1885	 0.330526722877355 
1886	 0.329438052784404 
1887	 0.327098597915365 
1888	 0.323653143504662 
1889	 0.321910950467232 
1890	 0.315202967151386 
1891	 0.30218243552036 
1892	 0.297141673396387 
1893	 0.293015773600666 
1894	 0.284759357770824 
1895	 0.274421929025581 
1896	 0.271503881602169 
1897	 0.268090666757018 
1898	 0.265734112671729 
1899	 0.275726308723684 
1900	 0.286870257431653 
1901	 0.288042688334626 
1902	 0.271455068353949 
1903	 0.263764701434117 
1904	 0.257607980389755 
1905	 0.253504071238534 
1906	 0.263488276423353 
1907	 0.23588977948677 
1908	 0.238707046471764 
1909	 0.239943238606198 
1910	 0.246367706673966 
1911	 0.250001467084814 
1912	 0.245118217247289 
1913	 0.239970718151966 
1914	 0.234297848788281 
1915	 0.227368399855667 
1916	 0.221443218621935 
1917	 0.219336774953222 
1918	 0.207708982769115 
1919	 0.203255772244418 
1920	 0.19943893157961 
1921	 0.19782784796523 
1922	 0.205873707085817 
1923	 0.207281122499817 
1924	 0.206425447083886 
1925	 0.206687610051419 
1926	 0.205205490033316 
1927	 0.205420458513737 
1928	 0.206138241878958 
1929	 0.210714515352762 
1930	 0.209708229807925 
1931	 0.206428128588648 
1932	 0.205706867867806 
1933	 0.203739578581215 
1934	 0.202273150848461 
1935	 0.202849512537443 
1936	 0.202848197094345 
1937	 0.200671141576017 
1938	 0.200100121419213 
1939	 0.200565848552696 
1940	 0.201840520895137 
1941	 0.202067992050898 
1942	 0.20432648279072 
1943	 0.206009259657558 
1944	 0.207939849893448 
1945	 0.209155379724181 
1946	 0.209074379923119 
1947	 0.209623165579157 
1948	 0.210200885274034 
1949	 0.209973305601108 
1950	 0.2085471371107 
1951	 0.209993067448044 
1952	 0.210965151347347 
1953	 0.21175954453335 
1954	 0.214325676575338 
1955	 0.215421273095385 
1956	 0.214963222476001 
1957	 0.215414303595358 
1958	 0.216199841970491 
1959	 0.217015037946303 
1960	 0.217730591128861 
1961	 0.218797954811392 
1962	 0.219658200685927 
1963	 0.22003707360306 
1964	 0.220505546784303 
1965	 0.220420549694659 
1966	 0.22067018016346 
1967	 0.221619947845609 
1968	 0.222584821250287 
1969	 0.223481079937072 
1970	 0.225153067825242 
1971	 0.225893349075796 
1972	 0.226177349447724 
1973	 0.226107051239372 
1974	 0.226570349475221 
1975	 0.227179071741004 
1976	 0.22798748975253 
1977	 0.229489339563468 
1978	 0.230644535562842 
1979	 0.231345107037844 
1980	 0.231989635464616 
1981	 0.23250063431837 
1982	 0.233287508297035 
1983	 0.234155625640863 
1984	 0.235096512290474 
1985	 0.236492099456536 
1986	 0.237798712187933 
1987	 0.238435812480523 
1988	 0.239635079478172 
1989	 0.240668972640396 
1990	 0.24142359748907 
1991	 0.242572259397019 
1992	 0.243438335522993 
1993	 0.24419984669722 
1994	 0.245100913545496 
1995	 0.245828521355467 
1996	 0.246436094647774 
1997	 0.247180830943014 
1998	 0.248308378795855 
1999	 0.249106612095932 
2000	 0.250172573714336 
2001	 0.251302334515143 
2002	 0.251098169133022 
2003	 0.251315380493496 
2004	 0.252138960147693 
2005	 0.253132521576415 
2006	 0.254474952706705 
2007	 0.256853007682755 
2008	 0.257691345596065 
2009	 0.258226103241968 
2010	 0.259343054114971 
2011	 0.258529808519382 
2012	 0.259122254385188 
2013	 0.259748131031398 
2014	 0.259415100360352 
2015	 0.261035009102377 
2016	 0.262080149143478 
2017	 0.262983163313341 
2018	 0.264131324971227 
2019	 0.264793954910247 
2020	 0.264874738574537 
2021	 0.265174415310841 
2022	 0.265970192833692 
2023	 0.266656166371154 
2024	 0.266862553126516 
2025	 0.267218659331277 
2026	 0.267728456835073 
2027	 0.268106528157475 
2028	 0.268647607346988 
2029	 0.269004618494823 
2030	 0.268701307818198 
2031	 0.268516211210522 
2032	 0.268558625799387 
2033	 0.268660453750576 
2034	 0.268893446046861 
2035	 0.269501182085032 
2036	 0.26984543220973 
2037	 0.269776232108984 
2038	 0.269943334586386 
2039	 0.270008434947847 
2040	 0.269948989593576 
2041	 0.270409817053372 
2042	 0.270976227983667 
2043	 0.271267639757403 
2044	 0.271328974054311 
2045	 0.271528340795358 
2046	 0.271616441763567 
2047	 0.271727202916434 
2048	 0.271855000404847 
2049	 0.272111812063745 
2050	 0.272454255652775 
2051	 0.272563725774206 
2052	 0.272693821822676 
2053	 0.273492217488291 
2054	 0.274172865344144 
2055	 0.274348858747911 
2056	 0.274458702129227 
2057	 0.274445621295002 
2058	 0.274387904849901 
2059	 0.27463182095543 
2060	 0.27522144699291 
2061	 0.275724679349281 
2062	 0.276169131304458 
2063	 0.276694863522474 
2064	 0.276526960643861 
2065	 0.276854129187804 
2066	 0.277138228810704 
2067	 0.277048189611262 
2068	 0.27730609452981 
2069	 0.277463823088257 
2070	 0.277686154045779 
2071	 0.277575243555113 
2072	 0.277471215988339 
2073	 0.277170175076715 
2074	 0.277151267754636 
2075	 0.277625563316089 
2076	 0.278331500413961 
2077	 0.279001967087412 
2078	 0.279535192160778 
2079	 0.279601928236689 
2080	 0.279679813076183 
2081	 0.279851262638226 
2082	 0.280290926446061 
2083	 0.280610212076568 
2084	 0.28085511983719 
2085	 0.281315526112934 
2086	 0.281263734727 
2087	 0.281616024282908 
2088	 0.282110270087106 
2089	 0.282810166369574 
2090	 0.283203463341012 
2091	 0.283819288542178 
2092	 0.284209462687782 
2093	 0.283930589068111 
2094	 0.283707465624436 
2095	 0.284213275620385 
2096	 0.284800021428862 
2097	 0.285571659894897 
2098	 0.286773768132181 
2099	 0.28770014693204 
2100	 0.288577743857639 
2101	 0.289409329936309 
2102	 0.29005893674695 
2103	 0.2906067327409 
2104	 0.291114962098346 
2105	 0.291199543397834 
2106	 0.291359379123023 
2107	 0.291638014526927 
2108	 0.291656649461624 
2109	 0.291883217553462 
2110	 0.292075052151409 
2111	 0.292310693040544 
2112	 0.293010667858299 
2113	 0.293948011715727 
2114	 0.294884664607831 
2115	 0.295513002510612 
2116	 0.296065713103249 
2117	 0.296568773664729 
2118	 0.296758433373659 
2119	 0.296940435236201 
2120	 0.297141206943963 
2121	 0.297363002109275 
2122	 0.297447136132659 
2123	 0.298326093005897 
2124	 0.299362548673265 
2125	 0.300294238993885 
2126	 0.301069957988908 
2127	 0.301210167323981 
2128	 0.301312375541808 
2129	 0.301411066041285 
2130	 0.301548133713062 
2131	 0.301805541386494 
2132	 0.301923481140023 
2133	 0.302067337973014 
2134	 0.302747941059854 
2135	 0.303731552645064 
2136	 0.304993101390783 
2137	 0.306038130569636 
2138	 0.307024413873112 
2139	 0.307255565032158 
2140	 0.306781576807354 
2141	 0.306414429474258 
2142	 0.306212391096133 
2143	 0.306525443444701 
2144	 0.306953425021727 
2145	 0.30752466409796 
2146	 0.308118180997806 
2147	 0.30842106308731 
2148	 0.308682814502933 
2149	 0.308892725317512 
2150	 0.309357731519647 
2151	 0.309667042377613 
2152	 0.309743146293281 
2153	 0.310046747432112 
2154	 0.310519656161334 
2155	 0.310681378473206 
2156	 0.311184000722857 
2157	 0.311231065752701 
2158	 0.311178845195399 
2159	 0.311117490668161 
2160	 0.311120244811775 
2161	 0.311469131926532 
2162	 0.311311489313914 
2163	 0.311653978320848 
2164	 0.312214555163461 
2165	 0.312221104051601 
2166	 0.31252256993813 
2167	 0.313202973339537 
2168	 0.313439642281938 
2169	 0.313130624078067 
2170	 0.313110330618331 
2171	 0.313262315715333 
2172	 0.312833343031672 
2173	 0.312727046763536 
2174	 0.313223965195712 
2175	 0.313572741782851 
2176	 0.314017739802113 
2177	 0.314228065281639 
2178	 0.314199150945238 
2179	 0.314444989951838 
2180	 0.314971738425503 
2181	 0.315382556971133 
2182	 0.315872813442129 
2183	 0.316409112966978 
2184	 0.316623811631516 
2185	 0.316886427159755 
2186	 0.317022980399158 
2187	 0.316893664959824 
2188	 0.316100580954889 
2189	 0.316005428758393 
2190	 0.315994157020958 
2191	 0.31623467580217 
2192	 0.317083710356725 
2193	 0.317510636621452 
2194	 0.317830556348492 
2195	 0.317996772352233 
2196	 0.317146073622326 
2197	 0.317061468368853 
2198	 0.31695030577072 
2199	 0.316202646968463 
2200	 0.316891018838637 
2201	 0.317595208511525 
2202	 0.317149445992183 
2203	 0.317520611109474 
2204	 0.317670982260638 
2205	 0.317365700025387 
2206	 0.317766802603081 
2207	 0.318075014867279 
2208	 0.318177579261927 
2209	 0.317530555410883 
2210	 0.317613183567575 
2211	 0.317989777085903 
2212	 0.31871596846396 
2213	 0.318993624659592 
2214	 0.31969260309647 
2215	 0.319755139653187 
2216	 0.319445266220229 
2217	 0.319243566812933 
2218	 0.319077462847295 
2219	 0.319125176568924 
2220	 0.319288868501183 
2221	 0.319421932408612 
2222	 0.31945406592457 
2223	 0.319351533943238 
2224	 0.318916071063723 
2225	 0.318587306880704 
2226	 0.318766560281203 
2227	 0.318862271435 
2228	 0.318627488939187 
2229	 0.318565361511289 
2230	 0.318049850231347 
2231	 0.317408585924531 
2232	 0.316447818821707 
2233	 0.315862106626855 
2234	 0.31516842440624 
2235	 0.314876552952387 
2236	 0.314645773739749 
2237	 0.314027656531138 
2238	 0.31281723235877 
2239	 0.311539557087836 
2240	 0.310364077310077 
2241	 0.309288443048278 
2242	 0.308832023735877 
2243	 0.308262563815239 
2244	 0.307489417456235 
2245	 0.307160977456355 
2246	 0.306409002420623 
2247	 0.304872319983856 
2248	 0.304068491099231 
2249	 0.303369954147795 
2250	 0.302175383028957 
2251	 0.30180234826163 
2252	 0.301051371412153 
2253	 0.299668038872288 
2254	 0.299086975522517 
2255	 0.298858336294487 
2256	 0.298030859809105 
2257	 0.296878199340371 
2258	 0.29599169319384 
2259	 0.294919427007456 
2260	 0.293718999979549 
2261	 0.292990390000739 
2262	 0.291750095773874 
2263	 0.291302166257127 
2264	 0.290760426880072 
2265	 0.290233651888952 
2266	 0.290465091138154 
2267	 0.289375585148885 
2268	 0.288308545167155 
2269	 0.287890257459761 
2270	 0.287690302247799 
2271	 0.287384002013892 
2272	 0.28640777773209 
2273	 0.285382771920547 
2274	 0.284338427866785 
2275	 0.284004053630975 
2276	 0.283858038010561 
2277	 0.282881227160607 
2278	 0.281759941968837 
2279	 0.280758779052467 
2280	 0.279694489808295 
2281	 0.279593188861545 
2282	 0.280536898323738 
2283	 0.280325484332677 
2284	 0.280328712930019 
2285	 0.281236754027586 
2286	 0.281176958315978 
2287	 0.280174926412089 
2288	 0.279573771572793 
2289	 0.278943224879371 
2290	 0.277156059242238 
2291	 0.276020039111979 
2292	 0.27590347226639 
2293	 0.275571525018995 
2294	 0.275450993502474 
2295	 0.274465217391246 
2296	 0.27272549396464 
2297	 0.272161956729864 
2298	 0.271183894747336 
2299	 0.270889426470354 
2300	 0.270975316417713 
2301	 0.269368495037159 
2302	 0.26791569984702 
2303	 0.267015907835645 
2304	 0.265707132021387 
2305	 0.265161571685291 
2306	 0.26592325783177 
2307	 0.265170661165929 
2308	 0.264603205962884 
2309	 0.264605782205173 
2310	 0.263247424863472 
2311	 0.263115714793237 
2312	 0.263166154004281 
2313	 0.263291944727092 
2314	 0.263934400759413 
2315	 0.263011616592993 
2316	 0.261942942469448 
2317	 0.261448377510067 
2318	 0.261053946869169 
2319	 0.26196993227205 
2320	 0.262463766344715 
2321	 0.262452799999703 
2322	 0.261937255682939 
2323	 0.261755828090718 
2324	 0.261056575377405 
2325	 0.260900303193641 
2326	 0.26089715467504 
2327	 0.259798891801394 
2328	 0.25975540347837 
2329	 0.260846830785674 
2330	 0.262712445508518 
2331	 0.264559064240424 
2332	 0.26437862088082 
2333	 0.263037058966734 
2334	 0.262311809503824 
2335	 0.261680983402163 
2336	 0.261798527726622 
2337	 0.261569768311428 
2338	 0.258978199690469 
2339	 0.256276930939883 
2340	 0.254974055732841 
2341	 0.255678862881343 
2342	 0.257334635891072 
2343	 0.257889152406468 
2344	 0.257566205475131 
2345	 0.256253582315067 
2346	 0.254574925966807 
2347	 0.254409697149547 
2348	 0.253974202079446 
2349	 0.252564864579741 
2350	 0.252612803953923 
2351	 0.25250755328937 
2352	 0.252562737765269 
2353	 0.253593448493762 
2354	 0.253538342482759 
2355	 0.252578599133103 
2356	 0.251140973159444 
2357	 0.249797200791636 
2358	 0.24910403364876 
2359	 0.249534309625473 
2360	 0.249916761112012 
2361	 0.249892104170516 
2362	 0.251160248392182 
2363	 0.250511195052255 
2364	 0.248431374644136 
2365	 0.249325190218977 
2366	 0.248800440384807 
2367	 0.247469011680733 
2368	 0.248174266464064 
2369	 0.246861755809153 
2370	 0.247435671270312 
2371	 0.248232070875901 
2372	 0.247902261053606 
2373	 0.248855728494232 
2374	 0.24858564886786 
2375	 0.245007549529655 
2376	 0.244348773390096 
2377	 0.244475728635914 
2378	 0.244711438239112 
2379	 0.246344635339587 
2380	 0.247632698346585 
2381	 0.250747610017011 
2382	 0.250185571175324 
2383	 0.247717208893595 
2384	 0.244427500316616 
2385	 0.235989597335892 
2386	 0.233767416793538 
2387	 0.234557925649074 
2388	 0.235284322997779 
2389	 0.24054917305031 
2390	 0.242190112075396 
2391	 0.241874201176985 
2392	 0.241556342112079 
2393	 0.239526130539183 
2394	 0.239138417608314 
2395	 0.239040470325019 
2396	 0.238701334603862 
2397	 0.239671762302017 
2398	 0.239840471436604 
2399	 0.239180063845147 
2400	 0.238393983740603 
2401	 0.238291274620117 
2402	 0.235783006143652 
2403	 0.231475459400354 
2404	 0.230657851591092 
2405	 0.229896291704393 
2406	 0.227362319294098 
2407	 0.225986971344215 
2408	 0.222001177915331 
2409	 0.21959043967843 
2410	 0.221539779509857 
2411	 0.223814409279252 
2412	 0.227651141546672 
2413	 0.229301456026271 
2414	 0.226792947190357 
2415	 0.223672019544005 
2416	 0.221439174405689 
2417	 0.219437412713532 
2418	 0.218890732336143 
2419	 0.218965736973969 
2420	 0.219507135559497 
2421	 0.219102822719073 
2422	 0.214917989823373 
2423	 0.212005997280925 
2424	 0.212487485105827 
2425	 0.215225283169053 
2426	 0.220365552565144 
2427	 0.222696291585408 
2428	 0.219762753276231 
2429	 0.214467377142961 
2430	 0.209143624628882 
2431	 0.207915468400658 
2432	 0.211665338725858 
2433	 0.210681818909368 
2434	 0.210651779408276 
2435	 0.211050424563999 
2436	 0.210194375499671 
2437	 0.209430331086273 
2438	 0.212506152612341 
2439	 0.216487104578237 
2440	 0.217043853190143 
2441	 0.221758398224941 
2442	 0.2227052653173 
2443	 0.217085774595957 
2444	 0.212176638287536 
2445	 0.201723061766373 
2446	 0.199200491089522 
2447	 0.20134897691244 
2448	 0.203785996778359 
2449	 0.217114978596514 
2450	 0.22147757136948 
2451	 0.21717921889348 
2452	 0.21562158784171 
2453	 0.214431524209434 
2454	 0.211280123128471 
2455	 0.207504124681153 
2456	 0.20274002475998 
2457	 0.19430130503952 
2458	 0.191110352701025 
2459	 0.19007664436398 
2460	 0.190304036084305 
2461	 0.193527624549007 
2462	 0.195261581965625 
2463	 0.198242424458647 
2464	 0.196261391695766 
2465	 0.191879845185253 
2466	 0.19030772454497 
2467	 0.183888027180195 
2468	 0.181779657969615 
2469	 0.185464559260284 
2470	 0.188106914742686 
2471	 0.188440121725965 
2472	 0.194703227991022 
2473	 0.212989672858699 
2474	 0.213987405323207 
2475	 0.210925478076851 
2476	 0.206167876928085 
2477	 0.178002538718515 
2478	 0.175920156839241 
2479	 0.189778573226043 
2480	 0.196632536733565 
2481	 0.223746682380886 
2482	 0.225732358308124 
2483	 0.194967014303634 
2484	 0.201230608965534 
2485	 0.220480818691427 
2486	 0.269712428268494 
2487	 0.338878466025347 
2488	 0.357540745045088 
2489	 0.294737940915432 
2490	 0.235906552239515 
2491	 0.20701850266624 
2492	 0.188019883088109 
2493	 0.195673738516709 
2494	 0.210465653120997 
2495	 0.202696388986657 
2496	 0.221527027977583 
2497	 0.235862352822109 
2498	 0.249360383659501 
2499	 0.266289551183127 
2500	 0.275097289991573 
