Wavelength	ref00137.asd
350	 2.1933816175249 
351	 2.17881087525045 
352	 2.20070780979179 
353	 2.14377920262926 
354	 2.18261599407569 
355	 2.22162110202227 
356	 2.18210246070888 
357	 2.1218368199723 
358	 2.14361226942334 
359	 2.15678276187604 
360	 2.06941401316527 
361	 2.04578053100206 
362	 2.04272665805546 
363	 2.0385641826665 
364	 2.02973575148469 
365	 2.0216604607627 
366	 2.0170656083207 
367	 2.01320495562918 
368	 2.00059473988676 
369	 1.98396281251094 
370	 1.96725638477718 
371	 1.95011236753026 
372	 1.9214500313054 
373	 1.90734215162529 
374	 1.9030836721863 
375	 1.89139759740419 
376	 1.88311268701765 
377	 1.8626125205498 
378	 1.8361585921813 
379	 1.83573247362031 
380	 1.81476480051775 
381	 1.78753251213066 
382	 1.77420466209258 
383	 1.77810112337914 
384	 1.77430725637947 
385	 1.75687508709409 
386	 1.73127158342238 
387	 1.71043398691675 
388	 1.68415851390083 
389	 1.66212329344697 
390	 1.66944892882267 
391	 1.64875056657194 
392	 1.63523905185265 
393	 1.64482878722298 
394	 1.61734923650969 
395	 1.59167008712701 
396	 1.57617210625991 
397	 1.56541168497454 
398	 1.54086376266459 
399	 1.52524182988007 
400	 1.51639935853844 
401	 1.4943534724573 
402	 1.48012017849915 
403	 1.47080521335385 
404	 1.46192657956784 
405	 1.45223084901457 
406	 1.43447092661825 
407	 1.41655230380666 
408	 1.40756087835338 
409	 1.39548548699168 
410	 1.38468004026088 
411	 1.37296291368863 
412	 1.35349423344575 
413	 1.33733481058003 
414	 1.33150680099187 
415	 1.33141293522971 
416	 1.30986102393421 
417	 1.29685657723592 
418	 1.28978518632273 
419	 1.27787764018673 
420	 1.26584279437648 
421	 1.25806154241035 
422	 1.25051954070717 
423	 1.23372495457777 
424	 1.2257697884807 
425	 1.21930803069019 
426	 1.20918257666456 
427	 1.20411986656561 
428	 1.19623235079181 
429	 1.18679970661148 
430	 1.17887623110775 
431	 1.16798027587865 
432	 1.15818580805946 
433	 1.15013694715977 
434	 1.14147767041619 
435	 1.13445817156806 
436	 1.12955362300303 
437	 1.1251352377277 
438	 1.11568276352436 
439	 1.10817137226465 
440	 1.10084030646837 
441	 1.09063389226511 
442	 1.08340616476216 
443	 1.07603095825988 
444	 1.06854434925503 
445	 1.06394551734153 
446	 1.05821700382956 
447	 1.05214735266548 
448	 1.04653630223128 
449	 1.04022597458843 
450	 1.03352996860618 
451	 1.02771663418409 
452	 1.0235821683983 
453	 1.01643751773421 
454	 1.01023449855917 
455	 1.00584684258727 
456	 1.00003386981499 
457	 0.994569418897444 
458	 0.98846847842489 
459	 0.981577192020645 
460	 0.977985763474711 
461	 0.974015537024146 
462	 0.968937051522218 
463	 0.963886273865963 
464	 0.961239342424225 
465	 0.957146192601299 
466	 0.95089926632978 
467	 0.9472495666974 
468	 0.94256645149848 
469	 0.937283000231814 
470	 0.93266215658484 
471	 0.928989145402332 
472	 0.923875099521738 
473	 0.918316029919779 
474	 0.915274999570624 
475	 0.911773652665522 
476	 0.907249423058407 
477	 0.902245044200821 
478	 0.89876026718395 
479	 0.895367415808496 
480	 0.891643135561004 
481	 0.887688725540851 
482	 0.884400554213129 
483	 0.881814501146009 
484	 0.879712560114386 
485	 0.877608970785999 
486	 0.873818830168906 
487	 0.868917690814538 
488	 0.863999627000461 
489	 0.860028069736474 
490	 0.856013542203739 
491	 0.852127687295951 
492	 0.848895980249989 
493	 0.846353790325625 
494	 0.843389880058503 
495	 0.83957509097149 
496	 0.835398538488625 
497	 0.831624119920898 
498	 0.828274774596607 
499	 0.825160655463522 
500	 0.822235232554472 
501	 0.818272865553592 
502	 0.813585892797283 
503	 0.809382440547487 
504	 0.805970589200282 
505	 0.801016643682301 
506	 0.795104120699125 
507	 0.793966190936081 
508	 0.790668330706422 
509	 0.785991419406147 
510	 0.782390429850511 
511	 0.778744438741462 
512	 0.775283740389878 
513	 0.77182881038362 
514	 0.767907437536871 
515	 0.76519468359637 
516	 0.762212416421094 
517	 0.758197943013556 
518	 0.755583760325836 
519	 0.751147332388327 
520	 0.745678878062407 
521	 0.741303177588526 
522	 0.738019567990993 
523	 0.735519994587353 
524	 0.733251743794313 
525	 0.730504449416308 
526	 0.727452861814838 
527	 0.724407722266279 
528	 0.721633271615653 
529	 0.719124283817253 
530	 0.717130778963719 
531	 0.715407107661763 
532	 0.713521791855619 
533	 0.712080078233634 
534	 0.711620677628109 
535	 0.711386835658269 
536	 0.708519995153258 
537	 0.706504593108359 
538	 0.706059272341342 
539	 0.706688579667385 
540	 0.706835349741536 
541	 0.70637820766284 
542	 0.705627871416205 
543	 0.705230869387686 
544	 0.706060822363524 
545	 0.706777973248434 
546	 0.706860634124817 
547	 0.708410941306947 
548	 0.710908818271822 
549	 0.713549009019612 
550	 0.715574290817384 
551	 0.717596359396754 
552	 0.720523576532508 
553	 0.724134505561894 
554	 0.726890167355988 
555	 0.730162106285515 
556	 0.734291826492243 
557	 0.739189792754384 
558	 0.744006713888004 
559	 0.749616684617905 
560	 0.755975627036545 
561	 0.762616091017188 
562	 0.771062425602254 
563	 0.779182566542937 
564	 0.786851850584225 
565	 0.798302516569801 
566	 0.809958089685577 
567	 0.821378325964443 
568	 0.833208360784776 
569	 0.846130324288486 
570	 0.858877768979123 
571	 0.871387253124617 
572	 0.88478418982137 
573	 0.898292401519135 
574	 0.912167021581876 
575	 0.926387600327329 
576	 0.939425524521009 
577	 0.952926107679362 
578	 0.967235545831447 
579	 0.982026581860664 
580	 0.996711402853267 
581	 1.01109745152402 
582	 1.0254848492382 
583	 1.04077403721385 
584	 1.05631955989028 
585	 1.07137294865121 
586	 1.08552569124247 
587	 1.09987517221584 
588	 1.11446629324029 
589	 1.12915149234348 
590	 1.14341334659822 
591	 1.15736677009631 
592	 1.17147022734418 
593	 1.18574894489812 
594	 1.19842330208235 
595	 1.2107864003679 
596	 1.22314618056482 
597	 1.23511470015975 
598	 1.24435156168388 
599	 1.25283968009066 
600	 1.2614854766988 
601	 1.26986413113316 
602	 1.27747293168596 
603	 1.28453078663726 
604	 1.29145102965339 
605	 1.29890900895252 
606	 1.30506546597308 
607	 1.31047466654835 
608	 1.31658656381255 
609	 1.32177532138058 
610	 1.32598893906494 
611	 1.32953034553565 
612	 1.33295848685899 
613	 1.3371403574577 
614	 1.34131092394064 
615	 1.34461963093181 
616	 1.34794517289781 
617	 1.35028244021996 
618	 1.35182328532769 
619	 1.35353254262232 
620	 1.35423492322261 
621	 1.35516349993905 
622	 1.35668489228522 
623	 1.35691776916835 
624	 1.35704952819458 
625	 1.35673992307672 
626	 1.35558652366669 
627	 1.35551289820712 
628	 1.35482695931304 
629	 1.35350530861125 
630	 1.35319866860576 
631	 1.3528345351626 
632	 1.35186658952856 
633	 1.35046482296628 
634	 1.35033330443712 
635	 1.35020411665561 
636	 1.34998768380108 
637	 1.35007015037196 
638	 1.35029184952448 
639	 1.35074727817574 
640	 1.35144498645344 
641	 1.35224747700359 
642	 1.35302455738239 
643	 1.35401530070763 
644	 1.35517624347688 
645	 1.35521740501231 
646	 1.35499582717692 
647	 1.3549430597398 
648	 1.35526758650441 
649	 1.35671341325992 
650	 1.35789531181887 
651	 1.35821470834656 
652	 1.3587614063724 
653	 1.3595702200037 
654	 1.36055518581851 
655	 1.36178539799895 
656	 1.36426984110189 
657	 1.36623727908464 
658	 1.36763367857023 
659	 1.37006825946089 
660	 1.37308294276959 
661	 1.37587027290201 
662	 1.37839097330069 
663	 1.38248762897267 
664	 1.38590409699217 
665	 1.38836087610673 
666	 1.39062813621884 
667	 1.39461991873748 
668	 1.39853651145795 
669	 1.40154794892126 
670	 1.40397500172724 
671	 1.40614429987531 
672	 1.40836674002684 
673	 1.41071447548893 
674	 1.41293937401725 
675	 1.41448736757461 
676	 1.41521657856831 
677	 1.4154126194084 
678	 1.41642900064125 
679	 1.41766826100461 
680	 1.41823806712334 
681	 1.41720379227912 
682	 1.41647773976514 
683	 1.41478400110517 
684	 1.41115953016182 
685	 1.40691447138375 
686	 1.40269172553946 
687	 1.39713291217315 
688	 1.38918205195584 
689	 1.38367045743339 
690	 1.37664360866414 
691	 1.36712787559021 
692	 1.35816058413585 
693	 1.34733048614148 
694	 1.33674216204578 
695	 1.32847937654048 
696	 1.32230515733482 
697	 1.31622027334341 
698	 1.30879713715272 
699	 1.29968526850935 
700	 1.29272322500192 
701	 1.28557210766907 
702	 1.27773578386819 
703	 1.27134905729619 
704	 1.26566492606853 
705	 1.26017366170492 
706	 1.25458209630706 
707	 1.24914626229461 
708	 1.2444982165343 
709	 1.23981285253595 
710	 1.23397197276667 
711	 1.22842119488679 
712	 1.22317238011655 
713	 1.2179578641373 
714	 1.21229415479403 
715	 1.20527674667598 
716	 1.19648701680724 
717	 1.18616447007896 
718	 1.17668586281891 
719	 1.17009942546887 
720	 1.16712012250926 
721	 1.16643031512283 
722	 1.16476031916662 
723	 1.16032552229296 
724	 1.153436573082 
725	 1.14714139454684 
726	 1.14266994115335 
727	 1.13945169351148 
728	 1.13664362658991 
729	 1.134279932355 
730	 1.13160931340605 
731	 1.12952311702875 
732	 1.12909171900978 
733	 1.12918731186317 
734	 1.12835732067055 
735	 1.12646776417252 
736	 1.12455677681197 
737	 1.12294202820581 
738	 1.12099146896464 
739	 1.11869377089981 
740	 1.11780087160172 
741	 1.11685650397483 
742	 1.11546451904672 
743	 1.1137663006258 
744	 1.11256734014688 
745	 1.11053085711577 
746	 1.10806828161106 
747	 1.10674449500353 
748	 1.10493771465474 
749	 1.10260435898669 
750	 1.10016175610492 
751	 1.09842011557011 
752	 1.09621772959428 
753	 1.09392522421895 
754	 1.09195476397349 
755	 1.08930605140403 
756	 1.08655705719622 
757	 1.08365286950213 
758	 1.0803230260384 
759	 1.0786496323182 
760	 1.07578499136428 
761	 1.06996027418814 
762	 1.06608003593821 
763	 1.06429579503445 
764	 1.06213679105843 
765	 1.0590209500556 
766	 1.05788669917243 
767	 1.05530026531144 
768	 1.05232717392717 
769	 1.05045948833452 
770	 1.04709292874824 
771	 1.0436867203768 
772	 1.04074003633617 
773	 1.03776597140108 
774	 1.03452715453078 
775	 1.03136797187302 
776	 1.02825179476954 
777	 1.02434713535161 
778	 1.02069629229254 
779	 1.01732541120574 
780	 1.01405702953004 
781	 1.01098698865673 
782	 1.00803505773452 
783	 1.00537711726243 
784	 1.00300144167533 
785	 0.998757617704256 
786	 0.99446924694174 
787	 0.990938700816483 
788	 0.987521657618935 
789	 0.98386917408932 
790	 0.980616228259572 
791	 0.978058091057125 
792	 0.975404282970963 
793	 0.97328409758704 
794	 0.971146791856907 
795	 0.968236836655243 
796	 0.96438562617748 
797	 0.961213404980876 
798	 0.958876593940387 
799	 0.956594781978021 
800	 0.954031308772663 
801	 0.950709407101319 
802	 0.947276233702639 
803	 0.945413538174189 
804	 0.943388116534397 
805	 0.941042958530965 
806	 0.938576429333486 
807	 0.936275116878898 
808	 0.933077898589626 
809	 0.929813203604993 
810	 0.927224338849312 
811	 0.923338640193342 
812	 0.918483765728166 
813	 0.913535093389488 
814	 0.909461967650367 
815	 0.904928332189454 
816	 0.901529737623705 
817	 0.899398441775821 
818	 0.896927714694144 
819	 0.895991596234605 
820	 0.895328976269409 
821	 0.893809443523914 
822	 0.891375885238642 
823	 0.88871613497434 
824	 0.886405046401805 
825	 0.884847030427357 
826	 0.884056333125491 
827	 0.882438414428937 
828	 0.880348939243538 
829	 0.878729921885857 
830	 0.876276614182033 
831	 0.874438844658758 
832	 0.873451495671745 
833	 0.872540814120265 
834	 0.871426422921598 
835	 0.87009159411624 
836	 0.86876147269879 
837	 0.867827679762419 
838	 0.866717378644023 
839	 0.865419630334752 
840	 0.863870863149684 
841	 0.861624322629343 
842	 0.860230470385035 
843	 0.859027280879236 
844	 0.857246821560746 
845	 0.856088312172042 
846	 0.854580478446264 
847	 0.852589318049391 
848	 0.850580928946143 
849	 0.849987201625083 
850	 0.848577096607816 
851	 0.846629328158482 
852	 0.846106825517528 
853	 0.845289261783519 
854	 0.843928473281119 
855	 0.842038940001683 
856	 0.839834204243515 
857	 0.837997937150734 
858	 0.836752277276127 
859	 0.835918075618474 
860	 0.834939107763097 
861	 0.833695693384951 
862	 0.832596149676134 
863	 0.831851077813753 
864	 0.830815766293243 
865	 0.829956658319982 
866	 0.829392251471666 
867	 0.828849834094057 
868	 0.827217706216172 
869	 0.82479756956998 
870	 0.823237331367717 
871	 0.823815594365103 
872	 0.823196053329978 
873	 0.822772703197406 
874	 0.82244249261637 
875	 0.821129394771639 
876	 0.819901344056671 
877	 0.818954294108772 
878	 0.818158166328712 
879	 0.817228638202359 
880	 0.8171039027904 
881	 0.816322110457112 
882	 0.814939883016732 
883	 0.815310253192151 
884	 0.814922255251054 
885	 0.814280387983382 
886	 0.813812844761837 
887	 0.812708930622538 
888	 0.811909688208443 
889	 0.811358418610782 
890	 0.81053276764578 
891	 0.808449328507867 
892	 0.806445384600726 
893	 0.804885890677052 
894	 0.80361992917439 
895	 0.801952484677569 
896	 0.800823706347059 
897	 0.799902868541437 
898	 0.798662144216532 
899	 0.798336379228841 
900	 0.798325410917825 
901	 0.79780557479099 
902	 0.796657302800678 
903	 0.79856894871432 
904	 0.798591622118995 
905	 0.797069416327554 
906	 0.797424509502391 
907	 0.798308947896826 
908	 0.79665272021587 
909	 0.794097310425381 
910	 0.795313285933211 
911	 0.794884021647576 
912	 0.794285929683621 
913	 0.793733078259458 
914	 0.792115224168273 
915	 0.794706847187509 
916	 0.796182269729793 
917	 0.795942089954538 
918	 0.799393636069301 
919	 0.799330500944395 
920	 0.798445288083593 
921	 0.798847881398519 
922	 0.79982750050121 
923	 0.80058464336826 
924	 0.800358749139777 
925	 0.799132871415999 
926	 0.797923860982044 
927	 0.79617407753204 
928	 0.794811554417468 
929	 0.792904178233455 
930	 0.785804584133257 
931	 0.786681426105252 
932	 0.787188568176342 
933	 0.781360303806008 
934	 0.782648260742717 
935	 0.782891825364809 
936	 0.78044617120497 
937	 0.777813286088913 
938	 0.78090531674226 
939	 0.78178256060315 
940	 0.783881037995664 
941	 0.788672166656652 
942	 0.789113394170382 
943	 0.792340854811621 
944	 0.795528109073183 
945	 0.794846705606337 
946	 0.789972490073778 
947	 0.792608604231917 
948	 0.794981152674875 
949	 0.792081619633276 
950	 0.795520312507473 
951	 0.800610071450166 
952	 0.802989492179016 
953	 0.802278422500661 
954	 0.805745588384744 
955	 0.807570679454851 
956	 0.809665987587754 
957	 0.81341170389901 
958	 0.815536011091333 
959	 0.815687111504201 
960	 0.818034396102309 
961	 0.823699533465458 
962	 0.826627937314972 
963	 0.832930084189802 
964	 0.836315807032875 
965	 0.834999598377843 
966	 0.838747904671696 
967	 0.841239016269625 
968	 0.842251268484781 
969	 0.842877709708502 
970	 0.844178887746565 
971	 0.848842817911847 
972	 0.851294137336121 
973	 0.849885579178774 
974	 0.850724871868335 
975	 0.851153968496636 
976	 0.853404064470969 
977	 0.857198286814663 
978	 0.858437699069945 
979	 0.857089469339873 
980	 0.857940012188677 
981	 0.861746067540646 
982	 0.86398828873998 
983	 0.861023333491055 
984	 0.863022302951123 
985	 0.867438026872 
986	 0.861938190684558 
987	 0.865273364099594 
988	 0.869036221960301 
989	 0.869966442691311 
990	 0.870961887935141 
991	 0.871402107702667 
992	 0.872484781168599 
993	 0.873559307584386 
994	 0.873594451349767 
995	 0.87681192330069 
996	 0.874034284370354 
997	 0.870622033578054 
998	 0.874854788264575 
999	 0.874764567517573 
1000	 0.875260376354995 
1001	 0.89069185540993 
1002	 0.891378128337333 
1003	 0.891618404645226 
1004	 0.892364299108671 
1005	 0.892661677173895 
1006	 0.892309569695192 
1007	 0.892380326997278 
1008	 0.892708430704238 
1009	 0.892768932927047 
1010	 0.892995245739987 
1011	 0.892822373280424 
1012	 0.891776496262478 
1013	 0.891318832661715 
1014	 0.891218865277306 
1015	 0.890696297288823 
1016	 0.890302545800246 
1017	 0.890224823508295 
1018	 0.890138934836625 
1019	 0.889964487054295 
1020	 0.889782479411908 
1021	 0.889820705906812 
1022	 0.889544669771454 
1023	 0.889089232209886 
1024	 0.888273286516454 
1025	 0.887527668138847 
1026	 0.887130929178652 
1027	 0.886646151131561 
1028	 0.886635300090527 
1029	 0.886383681467871 
1030	 0.885881920105159 
1031	 0.885413260033696 
1032	 0.884620840404714 
1033	 0.884113122442188 
1034	 0.883831060550931 
1035	 0.883375026827344 
1036	 0.883119555094652 
1037	 0.882487464735946 
1038	 0.881388162300882 
1039	 0.880930907924782 
1040	 0.880105372965342 
1041	 0.878977829818721 
1042	 0.878384682348429 
1043	 0.877902163262737 
1044	 0.877766050408692 
1045	 0.87747489591962 
1046	 0.877109374934959 
1047	 0.876598030959001 
1048	 0.87552804203925 
1049	 0.875163521121878 
1050	 0.874980529720739 
1051	 0.87513131178925 
1052	 0.874716356727972 
1053	 0.874894767288183 
1054	 0.875066965738443 
1055	 0.874475492786486 
1056	 0.874414144867502 
1057	 0.874435691733159 
1058	 0.874296894918295 
1059	 0.874362350467935 
1060	 0.87414863134513 
1061	 0.873990009529277 
1062	 0.873611683304764 
1063	 0.873217629612424 
1064	 0.873097013142194 
1065	 0.872826266172705 
1066	 0.872438978832389 
1067	 0.87236014337779 
1068	 0.872407875427594 
1069	 0.872041229967588 
1070	 0.87212365601755 
1071	 0.872331588229155 
1072	 0.872020991700209 
1073	 0.871959379712136 
1074	 0.872113761203094 
1075	 0.871876510602787 
1076	 0.87124719299911 
1077	 0.871202358404463 
1078	 0.871145792577528 
1079	 0.870498019672136 
1080	 0.870455314761904 
1081	 0.870182053563819 
1082	 0.869704598672782 
1083	 0.868952963275699 
1084	 0.868889629312808 
1085	 0.868743161358999 
1086	 0.868498248084663 
1087	 0.86847234279484 
1088	 0.868310877253203 
1089	 0.867421954336094 
1090	 0.866237516361784 
1091	 0.865431932599269 
1092	 0.864555529231237 
1093	 0.863811997781442 
1094	 0.863309396517323 
1095	 0.862489708250382 
1096	 0.861696832829751 
1097	 0.861023976763063 
1098	 0.859959306085381 
1099	 0.858674053977899 
1100	 0.857171271436577 
1101	 0.856205395250047 
1102	 0.854929247983716 
1103	 0.853801460590843 
1104	 0.852935526997289 
1105	 0.851304886653946 
1106	 0.849374178266857 
1107	 0.847428452099152 
1108	 0.845753599377589 
1109	 0.844054226038942 
1110	 0.841674787700967 
1111	 0.838987733248313 
1112	 0.835635084273726 
1113	 0.832376184203546 
1114	 0.828641163206629 
1115	 0.824744859632188 
1116	 0.820496284737281 
1117	 0.816581293395648 
1118	 0.812393439235254 
1119	 0.807752897979602 
1120	 0.804172789736225 
1121	 0.801127595637668 
1122	 0.79866976817245 
1123	 0.797549023279479 
1124	 0.796345025041514 
1125	 0.795319838770817 
1126	 0.795417677404047 
1127	 0.795823848938038 
1128	 0.796906443165239 
1129	 0.799619474161929 
1130	 0.801548867417041 
1131	 0.803376474124326 
1132	 0.805317449821642 
1133	 0.807142459023175 
1134	 0.809143544116767 
1135	 0.811816266260105 
1136	 0.813314933854946 
1137	 0.814899381000971 
1138	 0.816636547328163 
1139	 0.817402869303079 
1140	 0.818379378911471 
1141	 0.818887809110485 
1142	 0.819084220816503 
1143	 0.819490838461389 
1144	 0.819338180606651 
1145	 0.820055815888995 
1146	 0.821186800300548 
1147	 0.822504189598381 
1148	 0.823828963448708 
1149	 0.826053485627427 
1150	 0.829210553277555 
1151	 0.831858113739357 
1152	 0.834572030503857 
1153	 0.837424664985742 
1154	 0.840137909511739 
1155	 0.842388817992357 
1156	 0.84475948684246 
1157	 0.847262166149298 
1158	 0.849682982688262 
1159	 0.851544214955945 
1160	 0.853460984568266 
1161	 0.855654991276806 
1162	 0.857334143468674 
1163	 0.858815654798735 
1164	 0.859920610425843 
1165	 0.860755040797019 
1166	 0.861367484661733 
1167	 0.861609165433276 
1168	 0.861869760444174 
1169	 0.862029583145625 
1170	 0.862105256868199 
1171	 0.862134021267665 
1172	 0.86218773820942 
1173	 0.862378570484136 
1174	 0.862624041892343 
1175	 0.862405669926492 
1176	 0.861824162827037 
1177	 0.8614030605204 
1178	 0.860648917750661 
1179	 0.860088033917419 
1180	 0.859773981244191 
1181	 0.859363138810442 
1182	 0.858701249560891 
1183	 0.858322520553143 
1184	 0.858052749416816 
1185	 0.857896072026963 
1186	 0.858021821264335 
1187	 0.857982994557662 
1188	 0.858024762303705 
1189	 0.85799925331183 
1190	 0.857634766936117 
1191	 0.857372160673842 
1192	 0.857211648918339 
1193	 0.856955866448136 
1194	 0.856769930400919 
1195	 0.856762268800045 
1196	 0.856508986156547 
1197	 0.856068756112006 
1198	 0.855773476109108 
1199	 0.855469891584753 
1200	 0.855121913943881 
1201	 0.854849893324114 
1202	 0.854516819778111 
1203	 0.853978278599706 
1204	 0.853638858268403 
1205	 0.853349240089602 
1206	 0.853177918896458 
1207	 0.853377181742471 
1208	 0.853237512719675 
1209	 0.852985598947545 
1210	 0.852644741378677 
1211	 0.852419054702249 
1212	 0.852089627241934 
1213	 0.851820195490626 
1214	 0.851725598461711 
1215	 0.851582047865702 
1216	 0.851291521476262 
1217	 0.851169502210019 
1218	 0.85127007102032 
1219	 0.851170560761557 
1220	 0.851083367014729 
1221	 0.850831547373822 
1222	 0.85035984552051 
1223	 0.85006459535813 
1224	 0.849813399983196 
1225	 0.84943522047218 
1226	 0.849129435815712 
1227	 0.848725308506541 
1228	 0.848155698217229 
1229	 0.847480379101687 
1230	 0.847094863883555 
1231	 0.84675943492804 
1232	 0.846490243073155 
1233	 0.846594389376531 
1234	 0.845982937041747 
1235	 0.8449705983035 
1236	 0.844315374815625 
1237	 0.843309512086511 
1238	 0.842663992055321 
1239	 0.842512931068374 
1240	 0.842093449645484 
1241	 0.841672848379642 
1242	 0.841061943035949 
1243	 0.840324247423007 
1244	 0.839620604068713 
1245	 0.838632281777204 
1246	 0.837922296517701 
1247	 0.83749799986487 
1248	 0.836918432469452 
1249	 0.836423005278317 
1250	 0.835787966005048 
1251	 0.834953476097922 
1252	 0.834131319468681 
1253	 0.833454321172623 
1254	 0.832806610207049 
1255	 0.832158045835566 
1256	 0.831721283591007 
1257	 0.830961695511861 
1258	 0.829954539926881 
1259	 0.829113722267881 
1260	 0.828089240856284 
1261	 0.827336308497546 
1262	 0.826856790817746 
1263	 0.826223680932835 
1264	 0.825637632689635 
1265	 0.825056617513973 
1266	 0.824409956749209 
1267	 0.823831072760209 
1268	 0.823290535575436 
1269	 0.82283850623941 
1270	 0.822422505622462 
1271	 0.822086802743074 
1272	 0.821896205805465 
1273	 0.821749087303072 
1274	 0.82149605144316 
1275	 0.821252450854697 
1276	 0.820969988689985 
1277	 0.820516192131811 
1278	 0.820371709945794 
1279	 0.820357236910839 
1280	 0.820332742547379 
1281	 0.820513502505611 
1282	 0.820532126051118 
1283	 0.820563312016619 
1284	 0.820417190453105 
1285	 0.820039454179519 
1286	 0.819891526107303 
1287	 0.819777471038607 
1288	 0.819586739117637 
1289	 0.819457614581143 
1290	 0.819374786638827 
1291	 0.819149961182121 
1292	 0.819048042218993 
1293	 0.819284428875736 
1294	 0.819261110604421 
1295	 0.81929157726001 
1296	 0.818927122046993 
1297	 0.818633454821809 
1298	 0.818192911889322 
1299	 0.817743709520654 
1300	 0.817137776698298 
1301	 0.816790355881782 
1302	 0.816544801998987 
1303	 0.816147279629232 
1304	 0.815756845414125 
1305	 0.815511455311539 
1306	 0.815183196233301 
1307	 0.814952603144567 
1308	 0.815101575250318 
1309	 0.81490597620931 
1310	 0.814369475602811 
1311	 0.81407960256504 
1312	 0.813851059064631 
1313	 0.813583599715618 
1314	 0.813478930260869 
1315	 0.813231949340595 
1316	 0.812711150451983 
1317	 0.812406635474418 
1318	 0.812373724872491 
1319	 0.812065811458316 
1320	 0.811703187553978 
1321	 0.811341954374083 
1322	 0.810790641527349 
1323	 0.809914102555154 
1324	 0.809176900863431 
1325	 0.808500235962785 
1326	 0.807603215737562 
1327	 0.806476876834187 
1328	 0.805488337606818 
1329	 0.80426033132576 
1330	 0.803466279908571 
1331	 0.803030636743764 
1332	 0.802400463390993 
1333	 0.801868192658247 
1334	 0.801441758513982 
1335	 0.801096243916663 
1336	 0.800611184383775 
1337	 0.800486130200544 
1338	 0.799806339226148 
1339	 0.79870605076476 
1340	 0.797353391233396 
1341	 0.795474163409683 
1342	 0.793356075526313 
1343	 0.79036951433139 
1344	 0.787312036840682 
1345	 0.783847083582977 
1346	 0.779058720216617 
1347	 0.77416348285515 
1348	 0.768425381403951 
1349	 0.762217693086308 
1350	 0.754678933783639 
1351	 0.746634897713242 
1352	 0.737865388643436 
1353	 0.727247908560941 
1354	 0.7162434476472 
1355	 0.701950825798897 
1356	 0.689533806701059 
1357	 0.669561709248207 
1358	 0.652832285168512 
1359	 0.626091543340497 
1360	 0.603493351425549 
1361	 0.57876432385281 
1362	 0.605561541870264 
1363	 0.602207400951171 
1364	 0.619556240670201 
1365	 0.613524902739928 
1366	 0.560991661692584 
1367	 0.54574925409631 
1368	 0.542862354133975 
1369	 0.548433103772186 
1370	 0.572860941179319 
1371	 0.580292366560754 
1372	 0.582032933220959 
1373	 0.585602825480882 
1374	 0.59056350128515 
1375	 0.58759699846392 
1376	 0.581158689783732 
1377	 0.576332549457915 
1378	 0.574910258540959 
1379	 0.567260034502664 
1380	 0.569148188839452 
1381	 0.582643044584021 
1382	 0.588030630638477 
1383	 0.588036222529234 
1384	 0.597804607956791 
1385	 0.61477543968057 
1386	 0.617664233119087 
1387	 0.617260831142123 
1388	 0.619856222563612 
1389	 0.611085424963124 
1390	 0.617686458418224 
1391	 0.63807041716002 
1392	 0.646513118692023 
1393	 0.654222681213998 
1394	 0.661934414652784 
1395	 0.663976502513348 
1396	 0.669614535209826 
1397	 0.678099743382566 
1398	 0.686260999646895 
1399	 0.693999162837305 
1400	 0.703136523611916 
1401	 0.714588321129323 
1402	 0.723468181201408 
1403	 0.728685797628557 
1404	 0.737368129125892 
1405	 0.747052901447882 
1406	 0.755816199393667 
1407	 0.763573984488255 
1408	 0.771993206579134 
1409	 0.777004562741179 
1410	 0.785291838886338 
1411	 0.794894654121843 
1412	 0.806653696003292 
1413	 0.815507743251591 
1414	 0.824480846604954 
1415	 0.832133397944903 
1416	 0.838737492942983 
1417	 0.844685541049676 
1418	 0.849672871913578 
1419	 0.855704942905177 
1420	 0.861198299574877 
1421	 0.867413421549647 
1422	 0.875259236621891 
1423	 0.880818187056081 
1424	 0.885604086490015 
1425	 0.890416371054226 
1426	 0.895146673788321 
1427	 0.898977168937881 
1428	 0.903115055282794 
1429	 0.905862298883228 
1430	 0.907249966117352 
1431	 0.908964789416042 
1432	 0.910195899880535 
1433	 0.911475086827369 
1434	 0.912406318246326 
1435	 0.913862095819178 
1436	 0.915283022945355 
1437	 0.917096423531593 
1438	 0.919654852986347 
1439	 0.921749646551537 
1440	 0.923301995068317 
1441	 0.925525138396071 
1442	 0.928284997992324 
1443	 0.930267284446964 
1444	 0.932498787107769 
1445	 0.935532117193148 
1446	 0.939183062093852 
1447	 0.943088677220968 
1448	 0.946270343074384 
1449	 0.949832396357271 
1450	 0.952715129133632 
1451	 0.954509900680652 
1452	 0.957128141813532 
1453	 0.96026411808928 
1454	 0.962718418394338 
1455	 0.965560523187521 
1456	 0.966973558720423 
1457	 0.96801436863987 
1458	 0.968125054294128 
1459	 0.967182466558233 
1460	 0.966231159148927 
1461	 0.964388516589959 
1462	 0.963065189711827 
1463	 0.96159589915929 
1464	 0.959997007779045 
1465	 0.958873037940146 
1466	 0.956841630771585 
1467	 0.953458231469879 
1468	 0.951468990475954 
1469	 0.949506760617835 
1470	 0.948142760773327 
1471	 0.948311670821154 
1472	 0.947825297496156 
1473	 0.946941983060693 
1474	 0.946788196390068 
1475	 0.947031333223289 
1476	 0.94726157985537 
1477	 0.947823216060776 
1478	 0.948400659775283 
1479	 0.948987765429036 
1480	 0.94958379181825 
1481	 0.950379375474194 
1482	 0.951109913110764 
1483	 0.951613420414748 
1484	 0.952325896105984 
1485	 0.953116105016411 
1486	 0.953969232638291 
1487	 0.95496238534021 
1488	 0.955946397768191 
1489	 0.956658526670858 
1490	 0.957437152546769 
1491	 0.958735899409493 
1492	 0.959879183951057 
1493	 0.960778956738659 
1494	 0.961157670748305 
1495	 0.961282916124625 
1496	 0.96066698207738 
1497	 0.960460262953452 
1498	 0.960362805350595 
1499	 0.960143404731723 
1500	 0.959914649745111 
1501	 0.959294577781684 
1502	 0.958437126519728 
1503	 0.957691218943919 
1504	 0.95684103090205 
1505	 0.955756368915591 
1506	 0.954619986651144 
1507	 0.953569278065877 
1508	 0.952218660648534 
1509	 0.951065708021954 
1510	 0.950218201429814 
1511	 0.949180874617281 
1512	 0.947922864682048 
1513	 0.946851071480627 
1514	 0.945982380676367 
1515	 0.944865296685249 
1516	 0.943584896428521 
1517	 0.942467673885065 
1518	 0.941267442529089 
1519	 0.940179752749986 
1520	 0.939362201623432 
1521	 0.938243884357819 
1522	 0.936939000078423 
1523	 0.935762920801247 
1524	 0.934460375979574 
1525	 0.933314544597965 
1526	 0.932395527851434 
1527	 0.931283867975125 
1528	 0.929977132079319 
1529	 0.928926903271755 
1530	 0.927991692058851 
1531	 0.926956315244851 
1532	 0.926206841077522 
1533	 0.925120617618532 
1534	 0.923540897571873 
1535	 0.922363419511392 
1536	 0.921338010449041 
1537	 0.920177415105621 
1538	 0.919267499664547 
1539	 0.91811278980554 
1540	 0.916551231476639 
1541	 0.915242626932609 
1542	 0.914067331665437 
1543	 0.912778340373653 
1544	 0.911451970040001 
1545	 0.91024869715482 
1546	 0.90906545252709 
1547	 0.9078380692382 
1548	 0.906647063276984 
1549	 0.905537741202669 
1550	 0.90431701406426 
1551	 0.903242508558691 
1552	 0.902596578925915 
1553	 0.901589421710072 
1554	 0.900252612142832 
1555	 0.899158042318924 
1556	 0.898024251554253 
1557	 0.896867885290135 
1558	 0.8959283180528 
1559	 0.89492620316655 
1560	 0.893810284835354 
1561	 0.892653073260825 
1562	 0.891354793287189 
1563	 0.890272520890954 
1564	 0.889188664493073 
1565	 0.888281537083106 
1566	 0.887370004040556 
1567	 0.886322764778507 
1568	 0.885261505407669 
1569	 0.883862312486689 
1570	 0.883100804851471 
1571	 0.882694702328905 
1572	 0.882007970521358 
1573	 0.881593249438177 
1574	 0.880735099456843 
1575	 0.879603679913069 
1576	 0.8783907666315 
1577	 0.876947590448532 
1578	 0.875840750588404 
1579	 0.874601661236523 
1580	 0.873811455395502 
1581	 0.873525381478097 
1582	 0.872752493181041 
1583	 0.871915797827313 
1584	 0.871199028353887 
1585	 0.870412292094872 
1586	 0.869504156980105 
1587	 0.868744708037134 
1588	 0.867706799261893 
1589	 0.866225986517593 
1590	 0.865226089643113 
1591	 0.86445020222484 
1592	 0.863425810207416 
1593	 0.862514221430357 
1594	 0.861354392925145 
1595	 0.859843015148782 
1596	 0.858710553249913 
1597	 0.857605776709816 
1598	 0.856659623716058 
1599	 0.856055160877062 
1600	 0.855008448685074 
1601	 0.85383596634656 
1602	 0.852702612929763 
1603	 0.851245072719619 
1604	 0.85025981911137 
1605	 0.84954792830447 
1606	 0.848791409931181 
1607	 0.84831771774831 
1608	 0.847436760859052 
1609	 0.846396956187227 
1610	 0.845429796436435 
1611	 0.844181812426331 
1612	 0.843384938264071 
1613	 0.843057661498638 
1614	 0.842023010451988 
1615	 0.840734001522592 
1616	 0.839805926866072 
1617	 0.838653555561581 
1618	 0.837586847249382 
1619	 0.83687223874969 
1620	 0.836055497191156 
1621	 0.834886970413453 
1622	 0.834153713073851 
1623	 0.834026671576877 
1624	 0.833137818702634 
1625	 0.831799845152007 
1626	 0.831031424006269 
1627	 0.830209702773707 
1628	 0.829490299371464 
1629	 0.829318479522428 
1630	 0.828485954076246 
1631	 0.827105550875575 
1632	 0.826196433751081 
1633	 0.825279828826082 
1634	 0.824518703258867 
1635	 0.824134721462443 
1636	 0.823258149815771 
1637	 0.821984288716108 
1638	 0.821373027316771 
1639	 0.820966472639733 
1640	 0.820303225832422 
1641	 0.819945097300801 
1642	 0.819499177011798 
1643	 0.818727656304852 
1644	 0.817997940670961 
1645	 0.817454670766342 
1646	 0.817015756311823 
1647	 0.816422517796498 
1648	 0.815810430613656 
1649	 0.815541662550489 
1650	 0.814968072834732 
1651	 0.813972155342564 
1652	 0.813329138800176 
1653	 0.812923070783242 
1654	 0.812306664680232 
1655	 0.811742945070536 
1656	 0.810707043415148 
1657	 0.809396599695894 
1658	 0.808267769210601 
1659	 0.806827719895766 
1660	 0.806056405387614 
1661	 0.805526521894775 
1662	 0.804543881937401 
1663	 0.803591087717095 
1664	 0.802733333037478 
1665	 0.801801632549031 
1666	 0.800564688402448 
1667	 0.799452378266567 
1668	 0.79825370219494 
1669	 0.796666722125658 
1670	 0.795957820465943 
1671	 0.795004875052805 
1672	 0.793413093499889 
1673	 0.792681106333822 
1674	 0.791687737286399 
1675	 0.790607194190685 
1676	 0.790427904201899 
1677	 0.790009112520963 
1678	 0.789314260022969 
1679	 0.788757779106613 
1680	 0.787690343920927 
1681	 0.786549133429694 
1682	 0.785733727189217 
1683	 0.785231870549352 
1684	 0.785276604617638 
1685	 0.785207630471516 
1686	 0.784913884096817 
1687	 0.784555763886736 
1688	 0.784095613616935 
1689	 0.783758591151309 
1690	 0.783216680848031 
1691	 0.782984633297471 
1692	 0.783045304877398 
1693	 0.782768669813139 
1694	 0.782511059725877 
1695	 0.782240744679042 
1696	 0.781556416200616 
1697	 0.781140854794365 
1698	 0.780789418303221 
1699	 0.780895034161697 
1700	 0.781564663113366 
1701	 0.7819185269471 
1702	 0.782404024824852 
1703	 0.782797481220942 
1704	 0.782956468876966 
1705	 0.78304580149765 
1706	 0.783266532314946 
1707	 0.783410542913767 
1708	 0.783072982243896 
1709	 0.783210180527042 
1710	 0.783746778005939 
1711	 0.784052563150941 
1712	 0.784625160035106 
1713	 0.784844104383535 
1714	 0.784649161489475 
1715	 0.784748048278996 
1716	 0.784717734820353 
1717	 0.785017876317675 
1718	 0.785615004503798 
1719	 0.786081726312967 
1720	 0.786797205936893 
1721	 0.78713836174237 
1722	 0.787209171582078 
1723	 0.787622468130977 
1724	 0.788011010051777 
1725	 0.78834948460864 
1726	 0.788930613424026 
1727	 0.789131526603472 
1728	 0.788854726503528 
1729	 0.789342779946424 
1730	 0.790360756198946 
1731	 0.790892720037221 
1732	 0.790834744903046 
1733	 0.790332317632786 
1734	 0.789648125835436 
1735	 0.78907857196387 
1736	 0.789143500085201 
1737	 0.789046462737754 
1738	 0.789002049716647 
1739	 0.789458843916237 
1740	 0.789428721660182 
1741	 0.788858418905333 
1742	 0.788674561346628 
1743	 0.788792925988245 
1744	 0.788750051836132 
1745	 0.789131468102319 
1746	 0.789392920624143 
1747	 0.789084292811569 
1748	 0.789696260809852 
1749	 0.790635297904484 
1750	 0.791220154712561 
1751	 0.792124623265026 
1752	 0.792115433197062 
1753	 0.792319080328757 
1754	 0.793374318459544 
1755	 0.793515091444774 
1756	 0.794116974242395 
1757	 0.7943151028439 
1758	 0.794301388900141 
1759	 0.794717517745322 
1760	 0.794776492084105 
1761	 0.794075157589307 
1762	 0.794156616656796 
1763	 0.794711149884451 
1764	 0.794396089296322 
1765	 0.794084585532329 
1766	 0.793845463712536 
1767	 0.792930015896106 
1768	 0.792801027528699 
1769	 0.793160409892038 
1770	 0.793182288780127 
1771	 0.793451379841712 
1772	 0.792931205721602 
1773	 0.792310242734733 
1774	 0.790685841856343 
1775	 0.789137692921659 
1776	 0.788536396216555 
1777	 0.787427274641843 
1778	 0.787138154342036 
1779	 0.787789236540128 
1780	 0.787830045160753 
1781	 0.787478436962277 
1782	 0.786559071959642 
1783	 0.784972122043565 
1784	 0.78292313189139 
1785	 0.781992429588521 
1786	 0.781924646641468 
1787	 0.780289298390583 
1788	 0.77860828287634 
1789	 0.776714168598564 
1790	 0.773533156485412 
1791	 0.771349876676764 
1792	 0.769080114046798 
1793	 0.7657389585351 
1794	 0.763138234247082 
1795	 0.75971177912165 
1796	 0.756529093464387 
1797	 0.755091167216162 
1798	 0.750646750936395 
1799	 0.746084641333504 
1800	 0.741665820722931 
1801	 0.740281802970229 
1802	 0.737331011899697 
1803	 0.732653677525851 
1804	 0.725757484586867 
1805	 0.721223504262874 
1806	 0.71638294526524 
1807	 0.712189545206666 
1808	 0.711949045413109 
1809	 0.709829127449084 
1810	 0.705731081238779 
1811	 0.699050734133747 
1812	 0.692883294886252 
1813	 0.683856914829304 
1814	 0.677267624711494 
1815	 0.670833872660768 
1816	 0.665754732573753 
1817	 0.663963011999789 
1818	 0.661364079328224 
1819	 0.659424072613902 
1820	 0.65977879862625 
1821	 0.658353457419384 
1822	 0.6555067450841 
1823	 0.655192401690968 
1824	 0.656794084056618 
1825	 0.657694279251322 
1826	 0.667399274913448 
1827	 0.666845431079322 
1828	 0.65991158267031 
1829	 0.631876014721113 
1830	 0.633452469746591 
1831	 0.651323925074291 
1832	 0.655464084751252 
1833	 0.736996651963342 
1834	 0.739328857968891 
1835	 0.533880607966223 
1836	 0.467697493945249 
1837	 0.489371691783169 
1838	 0.47282536326222 
1839	 0.483506063756465 
1840	 0.642477567465653 
1841	 0.676406154084884 
1842	 0.623625163796002 
1843	 0.586528428642599 
1844	 0.514722261463179 
1845	 0.495545262928272 
1846	 0.454990157614188 
1847	 0.442513102281357 
1848	 0.454188540053304 
1849	 0.511970401683934 
1850	 0.566836273796966 
1851	 0.692218763482316 
1852	 0.694073707122729 
1853	 0.635564452631882 
1854	 0.619122267026684 
1855	 0.513894455786975 
1856	 0.492398314831448 
1857	 0.556980898433155 
1858	 0.595027171434875 
1859	 0.600587692133582 
1860	 0.596901511216536 
1861	 0.577401913618138 
1862	 0.51951362220642 
1863	 0.510681040706828 
1864	 0.499541634848225 
1865	 0.518858820290654 
1866	 0.662028597334962 
1867	 0.664861554117697 
1868	 0.673583765583636 
1869	 0.674661516477905 
1870	 0.669311729088547 
1871	 0.580842631522927 
1872	 0.608430643538952 
1873	 0.750936821837609 
1874	 0.749123147929145 
1875	 0.698759579208973 
1876	 0.672888672375595 
1877	 0.576576876833264 
1878	 0.57311937523656 
1879	 0.60834601352715 
1880	 0.663048535649739 
1881	 0.673473124653778 
1882	 0.680562825328187 
1883	 0.673735172663508 
1884	 0.6315848986618 
1885	 0.626900929312866 
1886	 0.632499250846584 
1887	 0.649260585064443 
1888	 0.667794692233984 
1889	 0.67214065098974 
1890	 0.695755929846616 
1891	 0.742337486777857 
1892	 0.754630486059948 
1893	 0.769195770815184 
1894	 0.77119845831246 
1895	 0.711925403839866 
1896	 0.694528044062233 
1897	 0.694094881128335 
1898	 0.72792823526228 
1899	 0.7231184538258 
1900	 0.708909003321391 
1901	 0.716868878745088 
1902	 0.687720137144132 
1903	 0.700062234736435 
1904	 0.818638692040267 
1905	 0.832664919718528 
1906	 0.744947170700713 
1907	 0.793975969346884 
1908	 0.762860559022677 
1909	 0.768051270786126 
1910	 0.818764647799717 
1911	 0.81451128491205 
1912	 0.823316852086059 
1913	 0.806929040747702 
1914	 0.821496516193815 
1915	 0.857435581100405 
1916	 0.873868944801382 
1917	 0.878805468177541 
1918	 0.906217932894763 
1919	 0.938603631442475 
1920	 0.925272615163991 
1921	 0.919421005420652 
1922	 0.929433804135547 
1923	 0.931133012595592 
1924	 0.91787838523198 
1925	 0.929330256526481 
1926	 0.956884103710814 
1927	 0.974748200998538 
1928	 1.00175398967526 
1929	 1.01826473154275 
1930	 1.02171698833895 
1931	 1.01832410950741 
1932	 1.0157713014382 
1933	 1.01803873109632 
1934	 1.02398338886874 
1935	 1.03649458490691 
1936	 1.04440027547992 
1937	 1.05683311823075 
1938	 1.06015366216811 
1939	 1.06066429881064 
1940	 1.05501898259696 
1941	 1.05310851167766 
1942	 1.0552569016209 
1943	 1.06120016450539 
1944	 1.0657363799332 
1945	 1.06915406693782 
1946	 1.0681803215657 
1947	 1.07072132149753 
1948	 1.07727979450581 
1949	 1.08120086392171 
1950	 1.08574291130959 
1951	 1.08859342525227 
1952	 1.08615350399539 
1953	 1.08014914204995 
1954	 1.07869654510615 
1955	 1.08378996355217 
1956	 1.09060435217891 
1957	 1.09264603391349 
1958	 1.09552038457063 
1959	 1.09823569457562 
1960	 1.09817154170099 
1961	 1.09562744117273 
1962	 1.09677587570251 
1963	 1.09770321923954 
1964	 1.0959909625524 
1965	 1.09518358719994 
1966	 1.09313753831371 
1967	 1.09041512585671 
1968	 1.08732721371129 
1969	 1.08632075297045 
1970	 1.08792135987702 
1971	 1.08773110884935 
1972	 1.0870275527094 
1973	 1.08751565647528 
1974	 1.08933525347677 
1975	 1.0876976970801 
1976	 1.08673083054816 
1977	 1.08402967495081 
1978	 1.07643304186984 
1979	 1.07296850710902 
1980	 1.0721511664135 
1981	 1.07010832250588 
1982	 1.06902954120626 
1983	 1.0703685535478 
1984	 1.06862272056824 
1985	 1.0652169007696 
1986	 1.06476630414859 
1987	 1.06257837284868 
1988	 1.05895239419745 
1989	 1.05677398256134 
1990	 1.05439887295909 
1991	 1.05138486748624 
1992	 1.04927914666558 
1993	 1.04775137733069 
1994	 1.04575601149156 
1995	 1.04429611303312 
1996	 1.04306778352876 
1997	 1.04379090302072 
1998	 1.04497120179718 
1999	 1.04343254926254 
2000	 1.04193366315216 
2001	 1.04163883009426 
2002	 1.037710551753 
2003	 1.03476582580245 
2004	 1.03554454610952 
2005	 1.03443544544191 
2006	 1.03184275912815 
2007	 1.02854423997098 
2008	 1.02841550831798 
2009	 1.02648091748408 
2010	 1.02409069512885 
2011	 1.02503640017845 
2012	 1.0219868546876 
2013	 1.01611207088558 
2014	 1.01310955416161 
2015	 1.01198833510938 
2016	 1.01128777437583 
2017	 1.01299026938454 
2018	 1.01200503967487 
2019	 1.01048877900569 
2020	 1.00695836946879 
2021	 1.00681488210618 
2022	 1.00777469348752 
2023	 1.00819893295999 
2024	 1.01017429706968 
2025	 1.01245754726357 
2026	 1.01225049035154 
2027	 1.01364581643578 
2028	 1.01585392363381 
2029	 1.0170857659964 
2030	 1.01719001874783 
2031	 1.01633240362972 
2032	 1.01596385687976 
2033	 1.01520492054059 
2034	 1.01283280308966 
2035	 1.01330366892993 
2036	 1.01609717195728 
2037	 1.01646594121713 
2038	 1.01811000343466 
2039	 1.01942544634135 
2040	 1.01901638208187 
2041	 1.01989830902511 
2042	 1.02000725042056 
2043	 1.01939671062754 
2044	 1.02030737230802 
2045	 1.02064303610586 
2046	 1.02052312747285 
2047	 1.02041845119732 
2048	 1.02188378780654 
2049	 1.02200172514416 
2050	 1.02100217176375 
2051	 1.02297988498178 
2052	 1.02504364399042 
2053	 1.0249489749032 
2054	 1.02556739015921 
2055	 1.02537320638993 
2056	 1.02508622263717 
2057	 1.02431377356589 
2058	 1.02388397730607 
2059	 1.02468669600256 
2060	 1.02677377895089 
2061	 1.02729772123912 
2062	 1.02851977618819 
2063	 1.02829260502232 
2064	 1.0266941210147 
2065	 1.02626383392645 
2066	 1.02468319596201 
2067	 1.0239375495072 
2068	 1.02263261119587 
2069	 1.0196566059528 
2070	 1.01910321348494 
2071	 1.01953878780587 
2072	 1.02022709413521 
2073	 1.02185953291566 
2074	 1.02489024516359 
2075	 1.02490461862603 
2076	 1.02360236531539 
2077	 1.02419224465187 
2078	 1.02424026238121 
2079	 1.02493134918608 
2080	 1.02669448054786 
2081	 1.02690556337924 
2082	 1.02476044151822 
2083	 1.02097569606307 
2084	 1.01819380165616 
2085	 1.01683113177903 
2086	 1.01710085865024 
2087	 1.01729553640494 
2088	 1.01945124865649 
2089	 1.02022220500836 
2090	 1.01892943951446 
2091	 1.01669276517601 
2092	 1.01604385196174 
2093	 1.01505028580975 
2094	 1.01244761936052 
2095	 1.01159398840266 
2096	 1.01021357917325 
2097	 1.00776235250234 
2098	 1.0073359190594 
2099	 1.0076756243646 
2100	 1.00693651622288 
2101	 1.00657949918931 
2102	 1.00622353998248 
2103	 1.00684816391127 
2104	 1.00582155213862 
2105	 1.004175400094 
2106	 1.00193779299936 
2107	 1.00100638925636 
2108	 1.00108489520164 
2109	 0.999095097850088 
2110	 0.998921822890731 
2111	 0.997980629921937 
2112	 0.993378948245778 
2113	 0.990293675123047 
2114	 0.989414633871043 
2115	 0.988331251662191 
2116	 0.987807128745946 
2117	 0.986723153423438 
2118	 0.985569486668334 
2119	 0.983786001520934 
2120	 0.981365714535813 
2121	 0.978774798748271 
2122	 0.976343466442301 
2123	 0.974439772786873 
2124	 0.971033991588794 
2125	 0.969332278699345 
2126	 0.969870910645631 
2127	 0.969242990450205 
2128	 0.968051319338163 
2129	 0.966847210380152 
2130	 0.964255874925627 
2131	 0.962299206012637 
2132	 0.961019507672147 
2133	 0.959491497258907 
2134	 0.957961504666072 
2135	 0.956837920957188 
2136	 0.953434419227366 
2137	 0.95047601013599 
2138	 0.949101313301515 
2139	 0.945704552479115 
2140	 0.944237166253308 
2141	 0.94464535781006 
2142	 0.942417157285543 
2143	 0.941290685406924 
2144	 0.941697060975271 
2145	 0.939516589041159 
2146	 0.938987492157975 
2147	 0.940939729449 
2148	 0.938600721983782 
2149	 0.934607482702749 
2150	 0.933714914221562 
2151	 0.933472205227665 
2152	 0.933643357363225 
2153	 0.933938285084659 
2154	 0.93766571739983 
2155	 0.936530196150811 
2156	 0.930945937003576 
2157	 0.927130591857069 
2158	 0.9245167006561 
2159	 0.922149604009338 
2160	 0.922867380341004 
2161	 0.922338365248662 
2162	 0.921133046454388 
2163	 0.921091024209133 
2164	 0.919752729140586 
2165	 0.920576133614865 
2166	 0.920527711341827 
2167	 0.919009604571192 
2168	 0.918959978850949 
2169	 0.920002616445708 
2170	 0.919601379604346 
2171	 0.918914638207129 
2172	 0.919407608561822 
2173	 0.91803742467577 
2174	 0.917344839089533 
2175	 0.917861371213382 
2176	 0.918068225642407 
2177	 0.91727252505783 
2178	 0.915591886410191 
2179	 0.913479690987431 
2180	 0.911226458090429 
2181	 0.910366463767494 
2182	 0.908746899743808 
2183	 0.907361205788298 
2184	 0.90667635184336 
2185	 0.904321950366247 
2186	 0.903615690730954 
2187	 0.904012806779674 
2188	 0.906060286956665 
2189	 0.906046334938239 
2190	 0.906606792148106 
2191	 0.905786179053266 
2192	 0.903227310264596 
2193	 0.900692072040092 
2194	 0.899025320901079 
2195	 0.900024614923032 
2196	 0.900572609642142 
2197	 0.898474953742724 
2198	 0.898151829495642 
2199	 0.897879007279752 
2200	 0.897688025605874 
2201	 0.900131775145474 
2202	 0.900392730769258 
2203	 0.896767117402342 
2204	 0.894014282473347 
2205	 0.892843715103833 
2206	 0.891410121439657 
2207	 0.891656361338853 
2208	 0.892489504835488 
2209	 0.894665767155938 
2210	 0.893646321146315 
2211	 0.89150800970169 
2212	 0.891598297437582 
2213	 0.888094368936434 
2214	 0.885716464103927 
2215	 0.886036860067879 
2216	 0.884760631360704 
2217	 0.884525678378811 
2218	 0.883454953086709 
2219	 0.88242413647774 
2220	 0.882812166758163 
2221	 0.885109904585915 
2222	 0.88764302140186 
2223	 0.886959768413123 
2224	 0.886788829436468 
2225	 0.883996334607291 
2226	 0.879352936981332 
2227	 0.879452246406794 
2228	 0.879914630038792 
2229	 0.879614712832124 
2230	 0.881196854409568 
2231	 0.881646586273921 
2232	 0.880128038933049 
2233	 0.879877638757114 
2234	 0.880062292482286 
2235	 0.880942086767665 
2236	 0.880594375376267 
2237	 0.881066466588172 
2238	 0.881205654344483 
2239	 0.879571869009385 
2240	 0.880557756892576 
2241	 0.880603568702627 
2242	 0.880151795036679 
2243	 0.880448808752387 
2244	 0.876289627134438 
2245	 0.873388337065464 
2246	 0.871960635160293 
2247	 0.868592894479154 
2248	 0.868626005033799 
2249	 0.868493449262276 
2250	 0.86532340454696 
2251	 0.863995115866644 
2252	 0.86307802246425 
2253	 0.861616809545757 
2254	 0.862307056301325 
2255	 0.863504012937432 
2256	 0.863224430633642 
2257	 0.861904188342668 
2258	 0.860958718740068 
2259	 0.859326552224387 
2260	 0.855659979951006 
2261	 0.851984545026163 
2262	 0.849782672489318 
2263	 0.848545166308321 
2264	 0.848337722235076 
2265	 0.847394186009935 
2266	 0.846205882409769 
2267	 0.845528637842913 
2268	 0.842804476623181 
2269	 0.840601232615786 
2270	 0.837796924096163 
2271	 0.834435894155701 
2272	 0.83598226858843 
2273	 0.839728727695926 
2274	 0.841158085733709 
2275	 0.840083012174515 
2276	 0.836169271300349 
2277	 0.832028269265577 
2278	 0.829091936111484 
2279	 0.827407975403797 
2280	 0.824085471910023 
2281	 0.816044410466783 
2282	 0.812896467626813 
2283	 0.813734793277129 
2284	 0.811092941183553 
2285	 0.811832115545595 
2286	 0.813556431815734 
2287	 0.816071623162058 
2288	 0.813620923356446 
2289	 0.813267295083143 
2290	 0.814630796266197 
2291	 0.810094183461878 
2292	 0.805035999192565 
2293	 0.807172202585057 
2294	 0.80595654068206 
2295	 0.802830814427079 
2296	 0.808322388409688 
2297	 0.808704949922946 
2298	 0.805161797966403 
2299	 0.808813797022362 
2300	 0.810690993560206 
2301	 0.811909388275767 
2302	 0.817897527117702 
2303	 0.822562791324475 
2304	 0.821430917316749 
2305	 0.818798796079048 
2306	 0.818523703900002 
2307	 0.821568003397164 
2308	 0.830064203000336 
2309	 0.841172794280611 
2310	 0.849414811733993 
2311	 0.855711464439551 
2312	 0.857587647132275 
2313	 0.854899009470623 
2314	 0.855204460019709 
2315	 0.847803002678159 
2316	 0.839238226894833 
2317	 0.842410062792728 
2318	 0.844245077668141 
2319	 0.849205526811003 
2320	 0.855601945074539 
2321	 0.85949104583267 
2322	 0.858191810056136 
2323	 0.858788004578166 
2324	 0.859145882096729 
2325	 0.862179186304925 
2326	 0.863488319757881 
2327	 0.860287134755706 
2328	 0.864178708244456 
2329	 0.866799719656964 
2330	 0.863759623159763 
2331	 0.863657492092961 
2332	 0.858750291344796 
2333	 0.853792371762231 
2334	 0.855342305604644 
2335	 0.85400292084319 
2336	 0.855522167195631 
2337	 0.856788774902172 
2338	 0.852999592041792 
2339	 0.851544079726785 
2340	 0.847220847171944 
2341	 0.845397562444394 
2342	 0.841768104670167 
2343	 0.834981427442435 
2344	 0.834975901798751 
2345	 0.829856969170996 
2346	 0.827016133561543 
2347	 0.83033396384593 
2348	 0.833628089390223 
2349	 0.840061254246132 
2350	 0.848382891153221 
2351	 0.858903923404507 
2352	 0.866659851250099 
2353	 0.872808144679236 
2354	 0.872057669415358 
2355	 0.867935092243989 
2356	 0.871374383039602 
2357	 0.869309328693205 
2358	 0.860925669319081 
2359	 0.858806251355652 
2360	 0.854657237355343 
2361	 0.85767715869575 
2362	 0.874695540638808 
2363	 0.877407909246267 
2364	 0.873835084984982 
2365	 0.872978137909184 
2366	 0.861777310941323 
2367	 0.860482962182865 
2368	 0.872614017249331 
2369	 0.880532167627668 
2370	 0.891826768465508 
2371	 0.898475845160233 
2372	 0.900403126656527 
2373	 0.892026185126576 
2374	 0.891326453293645 
2375	 0.893875731739996 
2376	 0.894868759867988 
2377	 0.894441329517063 
2378	 0.888156862564147 
2379	 0.87356416828902 
2380	 0.869046309331608 
2381	 0.872180212800308 
2382	 0.875475353956519 
2383	 0.883334204991935 
2384	 0.88651410689396 
2385	 0.881991306034753 
2386	 0.884480578665289 
2387	 0.895077007112672 
2388	 0.897623700969608 
2389	 0.899223809795522 
2390	 0.900520088371367 
2391	 0.893905084417056 
2392	 0.893194527875541 
2393	 0.896601790292727 
2394	 0.90196562398779 
2395	 0.911458033524424 
2396	 0.916526700610152 
2397	 0.924015236726592 
2398	 0.922869512690752 
2399	 0.918219262045069 
2400	 0.913040928619196 
2401	 0.898441502209406 
2402	 0.89095950756169 
2403	 0.898922167599366 
2404	 0.886486887025361 
2405	 0.891284515343856 
2406	 0.909264737375499 
2407	 0.904973812141914 
2408	 0.908307386269339 
2409	 0.914102629839245 
2410	 0.912758865499434 
2411	 0.913159669028566 
2412	 0.916880632303898 
2413	 0.929512148791251 
2414	 0.910343278185176 
2415	 0.89868544963844 
2416	 0.917760010152393 
2417	 0.909714968065788 
2418	 0.920313385593787 
2419	 0.930002034386392 
2420	 0.91911402218817 
2421	 0.925380895305294 
2422	 0.939254893619983 
2423	 0.960082189068973 
2424	 0.952579292564371 
2425	 0.921552758767868 
2426	 0.908439926374212 
2427	 0.907553838490047 
2428	 0.926279272275349 
2429	 0.979872173714336 
2430	 1.00990925016174 
2431	 1.01131913725421 
2432	 1.01745979172937 
2433	 0.988370838033374 
2434	 0.969550304257739 
2435	 0.950745707476622 
2436	 0.940720180591857 
2437	 0.925430342738442 
2438	 0.926230943984905 
2439	 0.944340224425613 
2440	 0.954991751783558 
2441	 0.988709069454393 
2442	 1.00719632393687 
2443	 1.01169699780379 
2444	 1.01662749953653 
2445	 1.00835443729442 
2446	 0.994794179146369 
2447	 0.979450923554166 
2448	 0.964535053816422 
2449	 0.931411952575745 
2450	 0.931475455653089 
2451	 0.944855209417064 
2452	 0.961629426061429 
2453	 1.01692371124822 
2454	 1.02660076148861 
2455	 1.02697149544652 
2456	 1.01236720483375 
2457	 0.96325807224218 
2458	 0.94091610533641 
2459	 0.917163543689472 
2460	 0.911707201841163 
2461	 0.922903096301939 
2462	 0.910038125731458 
2463	 0.887381973584766 
2464	 0.880520874838002 
2465	 0.863895044776074 
2466	 0.873429005776999 
2467	 0.918162092513133 
2468	 0.948578659635676 
2469	 1.00039591158684 
2470	 1.03691147165007 
2471	 1.07272214987325 
2472	 1.08419351031669 
2473	 1.02995852348464 
2474	 1.02356275107543 
2475	 1.03930728959506 
2476	 1.06195502811626 
2477	 1.18312809880432 
2478	 1.18140960071092 
2479	 1.02772375480314 
2480	 0.954307545584091 
2481	 0.82809844888028 
2482	 0.815137523948641 
2483	 0.963531003643107 
2484	 1.07950593460471 
2485	 1.29475580082457 
2486	 1.21203573855952 
2487	 1.06004788021321 
2488	 0.90266080010412 
2489	 0.838979892301957 
2490	 0.891687910792508 
2491	 1.04767997712665 
2492	 0.834488302591234 
2493	 0.592886761760436 
2494	 0.568199386176305 
2495	 0.54089899397661 
2496	 0.840564640412981 
2497	 1.4283358739505 
2498	 1.37655881768925 
2499	 1.45642809117521 
2500	 1.35010064075231 
