Wavelength	ref00080.asd
350	 1.19972462090413E-02 
351	 1.20135149485818E-02 
352	 1.15463718395888E-02 
353	 1.24923334023345E-02 
354	 1.20980142316196E-02 
355	 1.13465461638136E-02 
356	 1.12441097927576E-02 
357	 1.14417836100625E-02 
358	 0.011689864982758 
359	 1.21057943575032E-02 
360	 1.27133285461482E-02 
361	 1.27243274956436E-02 
362	 1.19024445708967E-02 
363	 1.11053955129337E-02 
364	 1.15794840165369E-02 
365	 1.13456517062011E-02 
366	 1.11846960910458E-02 
367	 1.14243380676819E-02 
368	 1.13041077685293E-02 
369	 1.13503477853861E-02 
370	 1.10424817942738E-02 
371	 1.02451786210962E-02 
372	 1.07464537185028E-02 
373	 1.10724023284628E-02 
374	 1.10075644306881E-02 
375	 1.09829358880208E-02 
376	 1.08602619292442E-02 
377	 1.07396511727915E-02 
378	 1.07535089318393E-02 
379	 1.10362257497019E-02 
380	 1.09406032437614E-02 
381	 1.08311772193715E-02 
382	 0.010991929324037 
383	 1.08485954526647E-02 
384	 1.08875778809935E-02 
385	 1.11403518575242E-02 
386	 0.011352992021426 
387	 1.08388387969265E-02 
388	 1.09410661401223E-02 
389	 1.15675563476208E-02 
390	 0.011105372584416 
391	 1.09004175367231E-02 
392	 1.09968171105263E-02 
393	 1.12066998326299E-02 
394	 0.011412993821753 
395	 1.14807495744917E-02 
396	 1.15340908382106E-02 
397	 1.16966787662476E-02 
398	 1.15903226404006E-02 
399	 1.12576229707037E-02 
400	 1.10501072321089E-02 
401	 1.14583674761128E-02 
402	 1.17445876448591E-02 
403	 1.15930443473909E-02 
404	 1.12525724281452E-02 
405	 1.20335654360713E-02 
406	 1.21383427547566E-02 
407	 1.18847490420855E-02 
408	 1.20903413896588E-02 
409	 1.20681892661383E-02 
410	 1.21369719147817E-02 
411	 1.23975744289673E-02 
412	 0.012700749158508 
413	 1.26866548106132E-02 
414	 1.26421505514308E-02 
415	 1.27687831296319E-02 
416	 0.012846812404982 
417	 1.32238387127498E-02 
418	 1.34419067367499E-02 
419	 1.30964787600439E-02 
420	 1.34728445309595E-02 
421	 1.38135700688545E-02 
422	 1.38286221608262E-02 
423	 1.37460966923007E-02 
424	 1.38516653709717E-02 
425	 1.40791638747371E-02 
426	 1.42511019424036E-02 
427	 1.40402736873117E-02 
428	 1.44007176786185E-02 
429	 1.47939965146566E-02 
430	 1.44863009185021E-02 
431	 1.46989810033644E-02 
432	 1.49081405706579E-02 
433	 1.48846039091493E-02 
434	 1.47593191272843E-02 
435	 1.49029878039574E-02 
436	 1.50999554967999E-02 
437	 1.51718806970526E-02 
438	 1.52098314869306E-02 
439	 1.53481376906574E-02 
440	 1.54856066563774E-02 
441	 0.015491187915139 
442	 1.55858551068968E-02 
443	 1.56356198457788E-02 
444	 1.56483554533514E-02 
445	 1.57738526904011E-02 
446	 1.58622825006217E-02 
447	 1.59310400536971E-02 
448	 1.59950618827832E-02 
449	 1.59679319856804E-02 
450	 0.016054096558538 
451	 1.61887095856213E-02 
452	 1.62285226225345E-02 
453	 0.016354248792268 
454	 1.64567043804733E-02 
455	 1.65218854512108E-02 
456	 1.66686265526182E-02 
457	 1.67416047695849E-02 
458	 1.67314289062592E-02 
459	 1.66984436872169E-02 
460	 1.68027405214993E-02 
461	 0.016878338556538 
462	 1.69019241934685E-02 
463	 1.69354697014798E-02 
464	 1.70345698615755E-02 
465	 1.71263926044139E-02 
466	 1.71669549922606E-02 
467	 1.71742393324739E-02 
468	 1.72536057506282E-02 
469	 1.73493752356084E-02 
470	 1.73925374418704E-02 
471	 1.74573752497829E-02 
472	 1.75248089898778E-02 
473	 1.76203256973939E-02 
474	 1.77805741956488E-02 
475	 1.77924886684521E-02 
476	 1.78058931636868E-02 
477	 1.79054351198283E-02 
478	 1.79539985526382E-02 
479	 1.80607607621868E-02 
480	 1.81672793484422E-02 
481	 1.81945935500641E-02 
482	 1.82587885079288E-02 
483	 1.82950036308605E-02 
484	 1.83543272874946E-02 
485	 1.85909291006419E-02 
486	 1.87030776841888E-02 
487	 1.88162024908682E-02 
488	 1.89987669294048E-02 
489	 1.89297384819114E-02 
490	 1.89512411324047E-02 
491	 1.90730324893074E-02 
492	 1.91737916457595E-02 
493	 1.93024914851081E-02 
494	 1.94162118935284E-02 
495	 1.95426533950743E-02 
496	 1.97981926755057E-02 
497	 1.98679004681022E-02 
498	 1.98790163985526E-02 
499	 2.00197826943066E-02 
500	 2.02970193784282E-02 
501	 2.05950804318763E-02 
502	 2.08301115071493E-02 
503	 2.09590858619137E-02 
504	 2.10671238784394E-02 
505	 2.11367500043103E-02 
506	 2.12259245425767E-02 
507	 2.15377807867813E-02 
508	 0.021883004625016 
509	 2.21508091137762E-02 
510	 2.23165728517259E-02 
511	 0.022610438852059 
512	 2.29114136025836E-02 
513	 2.31587462937971E-02 
514	 2.33669336985338E-02 
515	 2.37343289889053E-02 
516	 2.41481978386136E-02 
517	 2.44963233249942E-02 
518	 2.48219483921791E-02 
519	 2.51100999347925E-02 
520	 2.53356264382964E-02 
521	 0.025501598282862 
522	 2.57610914661083E-02 
523	 2.61366740858636E-02 
524	 2.64933789043117E-02 
525	 2.65396972702123E-02 
526	 2.68942909670723E-02 
527	 2.73401895376917E-02 
528	 2.75986513953944E-02 
529	 2.78314229840746E-02 
530	 2.80427238863064E-02 
531	 2.82549713842231E-02 
532	 2.84974090783293E-02 
533	 2.87786689323907E-02 
534	 2.90771663630106E-02 
535	 2.93416111463977E-02 
536	 2.94748515402633E-02 
537	 2.96902486974202E-02 
538	 2.99506515270386E-02 
539	 3.01757515730045E-02 
540	 3.04777156347683E-02 
541	 3.08137984628381E-02 
542	 3.10810801164471E-02 
543	 0.031159788190348 
544	 3.13979092772958E-02 
545	 3.16873672120859E-02 
546	 3.19191732286174E-02 
547	 0.032165441602313 
548	 0.032434891838985 
549	 0.032691069816659 
550	 3.28898762855028E-02 
551	 3.30872130191987E-02 
552	 3.32590471216526E-02 
553	 3.33656784093001E-02 
554	 3.33573175657032E-02 
555	 3.34521904154279E-02 
556	 3.35996953401517E-02 
557	 3.37163172771148E-02 
558	 3.38462930412647E-02 
559	 3.40539132006085E-02 
560	 3.42152180315341E-02 
561	 3.41497018507873E-02 
562	 3.44190586101735E-02 
563	 3.45818777127727E-02 
564	 3.45047617430883E-02 
565	 3.48340763195984E-02 
566	 3.50673715037319E-02 
567	 3.51961783998876E-02 
568	 3.53323698937245E-02 
569	 0.035333990477104 
570	 3.54247156531715E-02 
571	 3.55549368900189E-02 
572	 3.54297180673929E-02 
573	 3.53262863163043E-02 
574	 3.52982761663098E-02 
575	 3.53139116294132E-02 
576	 3.52415938103059E-02 
577	 3.51265040469411E-02 
578	 3.50256220753189E-02 
579	 3.50027936620773E-02 
580	 3.50940180718763E-02 
581	 3.52063491452796E-02 
582	 3.52809454509462E-02 
583	 3.53202470271472E-02 
584	 3.54251505987922E-02 
585	 3.56025625205468E-02 
586	 3.58174486777402E-02 
587	 3.60046832923437E-02 
588	 3.61471374983686E-02 
589	 3.62543683433867E-02 
590	 3.63449775691709E-02 
591	 3.62875778084134E-02 
592	 3.63127018014092E-02 
593	 3.65068161020423E-02 
594	 3.66133605608308E-02 
595	 3.68289282953191E-02 
596	 3.69825447699914E-02 
597	 3.68754538165568E-02 
598	 3.67792051274234E-02 
599	 3.67595209839475E-02 
600	 0.036819566985882 
601	 3.69075256423667E-02 
602	 3.69680070083441E-02 
603	 3.70042106074282E-02 
604	 3.70354955040848E-02 
605	 3.70764309223047E-02 
606	 3.71750180103755E-02 
607	 3.72526950737848E-02 
608	 3.72122922121536E-02 
609	 3.73293672886231E-02 
610	 3.75575280930481E-02 
611	 0.037776883994378 
612	 3.78172210870723E-02 
613	 3.79491514068461E-02 
614	 3.80985652131744E-02 
615	 3.81607667322505E-02 
616	 3.82989246894996E-02 
617	 3.83527789444799E-02 
618	 3.83574065668309E-02 
619	 3.84696986225689E-02 
620	 3.85314142495096E-02 
621	 3.86041503383324E-02 
622	 3.87044580604791E-02 
623	 3.86924833886901E-02 
624	 3.88279395870359E-02 
625	 3.90229178180508E-02 
626	 3.91144663367099E-02 
627	 3.92621668986727E-02 
628	 3.94863502734197E-02 
629	 3.96979998594104E-02 
630	 3.97241337102662E-02 
631	 3.98433155974743E-02 
632	 3.99362586723975E-02 
633	 0.039931809023312 
634	 0.040095657509618 
635	 0.040197342843486 
636	 0.040173287603972 
637	 4.00716560754882E-02 
638	 4.01506793897841E-02 
639	 4.00494540137155E-02 
640	 3.97740075812685E-02 
641	 0.039855743741624 
642	 3.98114214225541E-02 
643	 3.96893510627129E-02 
644	 3.96228957319842E-02 
645	 3.95840913095144E-02 
646	 3.94785098667711E-02 
647	 3.94090029349659E-02 
648	 3.95511547568357E-02 
649	 3.95289569949114E-02 
650	 3.94744059444327E-02 
651	 3.95095020000773E-02 
652	 0.039640256723723 
653	 3.96435429546924E-02 
654	 3.96139344257453E-02 
655	 3.97178213095579E-02 
656	 4.00003904086392E-02 
657	 4.00706381870647E-02 
658	 3.99184565212907E-02 
659	 3.98529405977715E-02 
660	 3.98893734069933E-02 
661	 3.98894083059468E-02 
662	 3.98243479329247E-02 
663	 3.99334689471206E-02 
664	 3.99400439914152E-02 
665	 3.98551624977646E-02 
666	 3.98018363077868E-02 
667	 0.039906700951503 
668	 3.99663717370384E-02 
669	 3.99458580919102E-02 
670	 3.99770971003407E-02 
671	 4.00253634739301E-02 
672	 4.02001108719302E-02 
673	 4.04712679411702E-02 
674	 4.04195503599491E-02 
675	 4.04925057016983E-02 
676	 4.07046055135031E-02 
677	 4.09127646135231E-02 
678	 4.11309908953133E-02 
679	 4.14033973287659E-02 
680	 4.16957234104001E-02 
681	 0.041902690733763 
682	 4.23064182774818E-02 
683	 4.27570752752123E-02 
684	 4.31371780046979E-02 
685	 4.36361639089646E-02 
686	 4.42794911513157E-02 
687	 4.50912488947219E-02 
688	 4.59964443499652E-02 
689	 4.69231315025018E-02 
690	 4.78986721037761E-02 
691	 4.89866369165685E-02 
692	 0.050193131770318 
693	 5.16444989766379E-02 
694	 5.32115286538604E-02 
695	 5.47272095294845E-02 
696	 5.61030084944633E-02 
697	 5.76375241047204E-02 
698	 5.94187593073011E-02 
699	 6.13609425580893E-02 
700	 6.30370860949539E-02 
701	 6.48287525148388E-02 
702	 6.67809830318435E-02 
703	 6.84650981394578E-02 
704	 7.02030490185222E-02 
705	 7.18815173980346E-02 
706	 7.34637161902624E-02 
707	 7.53249204117766E-02 
708	 7.71685883778149E-02 
709	 7.89304916726301E-02 
710	 8.06412862200851E-02 
711	 8.22656816242809E-02 
712	 8.39448063144584E-02 
713	 8.56935329784302E-02 
714	 8.73744921002278E-02 
715	 8.92131658957852E-02 
716	 9.11021603787191E-02 
717	 9.30308052489924E-02 
718	 9.53696220665115E-02 
719	 9.73631142934602E-02 
720	 0.098860072504797 
721	 0.100153204002459 
722	 0.101306151399309 
723	 0.102792980631649 
724	 0.104643186086165 
725	 0.106195939622708 
726	 0.107600455660112 
727	 0.108913397295815 
728	 0.110218231271486 
729	 0.111571619712372 
730	 0.11282257554772 
731	 0.113910821435467 
732	 0.114841154991248 
733	 0.115641029147976 
734	 0.116469786260468 
735	 0.117360164754937 
736	 0.118212737700573 
737	 0.119152523346725 
738	 0.120045919472965 
739	 0.120809941548228 
740	 0.121510831371182 
741	 0.122229527865437 
742	 0.122945432708192 
743	 0.12361248954531 
744	 0.124288475012513 
745	 0.125000334577301 
746	 0.125646688478373 
747	 0.126067604032053 
748	 0.1265567171767 
749	 0.127141663520338 
750	 0.127758888358244 
751	 0.128261072356384 
752	 0.128811305212378 
753	 0.129314057972414 
754	 0.129675572040867 
755	 0.130079583919341 
756	 0.13031339604102 
757	 0.130329803328074 
758	 0.130307566494877 
759	 0.131475968074804 
760	 0.133469165807349 
761	 0.135119266498641 
762	 0.134330370811632 
763	 0.13454121304766 
764	 0.13501792701122 
765	 0.13490936211042 
766	 0.134743809243251 
767	 0.134711002275744 
768	 0.134825219232736 
769	 0.135041797277088 
770	 0.135332810182699 
771	 0.135601336180081 
772	 0.13586758719065 
773	 0.136238872113994 
774	 0.136588566956485 
775	 0.136874523900374 
776	 0.137120415999464 
777	 0.137437219407484 
778	 0.13775800740853 
779	 0.138033779897053 
780	 0.138257891985276 
781	 0.138557702760916 
782	 0.138838299997285 
783	 0.139121216797431 
784	 0.139475502574978 
785	 0.139834408703465 
786	 0.140138825019168 
787	 0.14038740442967 
788	 0.140638448081041 
789	 0.140932887188426 
790	 0.141296812768213 
791	 0.141698826985288 
792	 0.142003043169951 
793	 0.142323789400542 
794	 0.142617673676577 
795	 0.142846698513831 
796	 0.143205952052617 
797	 0.143490019690247 
798	 0.143658759584251 
799	 0.143804386103426 
800	 0.144145490127611 
801	 0.144488784797869 
802	 0.144747277578358 
803	 0.145010799135758 
804	 0.145320241081692 
805	 0.145607376400518 
806	 0.145797147097883 
807	 0.145824434244608 
808	 0.146233418794781 
809	 0.146710822786213 
810	 0.146887397361685 
811	 0.147359876919511 
812	 0.147844171648045 
813	 0.148410366121027 
814	 0.149271159945287 
815	 0.150048528388223 
816	 0.150611611275664 
817	 0.150936648342432 
818	 0.151086677429603 
819	 0.150702717871518 
820	 0.150233356125042 
821	 0.150239111532787 
822	 0.151258245110122 
823	 0.152018369395335 
824	 0.151791458842384 
825	 0.150760682747514 
826	 0.150942749223992 
827	 0.151523043317377 
828	 0.152088253046813 
829	 0.152367791079142 
830	 0.152181379243175 
831	 0.152174712281634 
832	 0.152389215899753 
833	 0.152407269004824 
834	 0.152360804139908 
835	 0.152346994199502 
836	 0.152363965003042 
837	 0.152307883876956 
838	 0.152457689083419 
839	 0.152670092784257 
840	 0.152812671035558 
841	 0.152946552761151 
842	 0.153043934296073 
843	 0.153254401872148 
844	 0.153617240356034 
845	 0.15365904553468 
846	 0.153718136728271 
847	 0.153903496806186 
848	 0.154216649936551 
849	 0.154748164884621 
850	 0.154977685110226 
851	 0.154905389408773 
852	 0.154984787959268 
853	 0.15561039529819 
854	 0.156445750190102 
855	 0.156801028218185 
856	 0.155907400193874 
857	 0.155343398211208 
858	 0.155491077328165 
859	 0.156182975160439 
860	 0.156810600623294 
861	 0.156769597127249 
862	 0.156482055717921 
863	 0.156533295717403 
864	 0.157132720671343 
865	 0.158161096230069 
866	 0.158914838014698 
867	 0.158753391916634 
868	 0.158058289771067 
869	 0.157631664799385 
870	 0.157657008360935 
871	 0.157963955287615 
872	 0.158564545638431 
873	 0.158993220127472 
874	 0.15916128453307 
875	 0.159278020084431 
876	 0.159374408485017 
877	 0.159515466847995 
878	 0.159605933375068 
879	 0.159456611605567 
880	 0.159614226180788 
881	 0.160036111854445 
882	 0.160380488874297 
883	 0.160112724111746 
884	 0.160181412942301 
885	 0.160538029594085 
886	 0.160844707744499 
887	 0.160661235757973 
888	 0.160752038530392 
889	 0.160881029056641 
890	 0.160824296338634 
891	 0.161049514001304 
892	 0.161642235919558 
893	 0.16216450777255 
894	 0.162365608644854 
895	 0.163351908034936 
896	 0.164188616835339 
897	 0.16489253115648 
898	 0.165725069764451 
899	 0.166015701962431 
900	 0.166010467815033 
901	 0.165457793933984 
902	 0.16416440716125 
903	 0.163449293165037 
904	 0.162841293675785 
905	 0.162985535801612 
906	 0.164736743466206 
907	 0.165473112502575 
908	 0.166060630340372 
909	 0.166495327765401 
910	 0.1660575467483 
911	 0.166222613067849 
912	 0.16635615011298 
913	 0.166328913101536 
914	 0.166648683747026 
915	 0.166847130065255 
916	 0.166755150575931 
917	 0.166261193682227 
918	 0.165365190791949 
919	 0.165007136080018 
920	 0.164667124039111 
921	 0.164222297872183 
922	 0.164295716479823 
923	 0.164375602044739 
924	 0.164558198224323 
925	 0.164767242468186 
926	 0.164555155623903 
927	 0.164995145122071 
928	 0.166174961879453 
929	 0.16805529368483 
930	 0.170783350943252 
931	 0.174043674028064 
932	 0.176646275253721 
933	 0.177712875203171 
934	 0.177903821280216 
935	 0.176439779386626 
936	 0.174799333065186 
937	 0.173291942558163 
938	 0.169062972938411 
939	 0.167789984811961 
940	 0.166964178928199 
941	 0.165249909253467 
942	 0.166946066225065 
943	 0.169057205068834 
944	 0.17057045104964 
945	 0.170725557166114 
946	 0.168378912062618 
947	 0.167188814947033 
948	 0.166684522992226 
949	 0.166018208887544 
950	 0.166134413298698 
951	 0.16541477655539 
952	 0.164893828442748 
953	 0.165180455723321 
954	 0.164661137212674 
955	 0.163632986119004 
956	 0.163373599295802 
957	 0.1639784465708 
958	 0.162940454285393 
959	 0.160885193464743 
960	 0.160733907452436 
961	 0.162476401656863 
962	 0.160333020759668 
963	 0.158774072599851 
964	 0.158362971559159 
965	 0.158479925643223 
966	 0.158116379960362 
967	 0.156390696854093 
968	 0.155321706652502 
969	 0.155376816543237 
970	 0.153915789508322 
971	 0.154352921942756 
972	 0.155996268825916 
973	 0.157289386538756 
974	 0.156942214183209 
975	 0.15756574398459 
976	 0.158153493485137 
977	 0.157611158662611 
978	 0.155968336253619 
979	 0.156441820419028 
980	 0.156891318236509 
981	 0.156382496800451 
982	 0.156177108467696 
983	 0.155573777942964 
984	 0.154551960109447 
985	 0.15412730449706 
986	 0.15555843321292 
987	 0.15564100873866 
988	 0.155928628069652 
989	 0.156598518969737 
990	 0.156592983779063 
991	 0.156727768108422 
992	 0.156613861678928 
993	 0.15627996195666 
994	 0.156120532130461 
995	 0.156641318033504 
996	 0.157025118791467 
997	 0.157064067134123 
998	 0.157035690704846 
999	 0.157537078470668 
1000	 0.157893224649751 
1001	 0.174763937140303 
1002	 0.175176684632319 
1003	 0.175548179089522 
1004	 0.176010547244104 
1005	 0.176313491398903 
1006	 0.176488258916174 
1007	 0.17669526168513 
1008	 0.17678831077722 
1009	 0.176963209620501 
1010	 0.177139667889239 
1011	 0.177385787120561 
1012	 0.177748376829123 
1013	 0.178031147184067 
1014	 0.178313433044329 
1015	 0.178758256715885 
1016	 0.179082105149956 
1017	 0.179511022735944 
1018	 0.179890350643375 
1019	 0.180273975369456 
1020	 0.180566264955518 
1021	 0.18082048868437 
1022	 0.181050386018781 
1023	 0.181215032105254 
1024	 0.181378299013288 
1025	 0.181656240350241 
1026	 0.181939565443698 
1027	 0.182087842530464 
1028	 0.182256872862114 
1029	 0.182386384599893 
1030	 0.18251234964439 
1031	 0.18275105697919 
1032	 0.182981177387192 
1033	 0.183115006648511 
1034	 0.183174736657254 
1035	 0.183250657842676 
1036	 0.183242731567723 
1037	 0.183274989847791 
1038	 0.183339553958164 
1039	 0.183376051977032 
1040	 0.183456438906437 
1041	 0.183627062901545 
1042	 0.183781261566106 
1043	 0.18397261176584 
1044	 0.184090984672499 
1045	 0.184138685561822 
1046	 0.184231185058309 
1047	 0.184312780770465 
1048	 0.184401230116132 
1049	 0.18459070683514 
1050	 0.184812124862005 
1051	 0.185108727318243 
1052	 0.185391788083342 
1053	 0.185696028347847 
1054	 0.185963439117338 
1055	 0.186211047119471 
1056	 0.186460747745053 
1057	 0.186660699286377 
1058	 0.186897516318655 
1059	 0.187261834915441 
1060	 0.18761732288738 
1061	 0.187783816390365 
1062	 0.187995141938871 
1063	 0.188251468427746 
1064	 0.188478510863888 
1065	 0.188853112465709 
1066	 0.189458688334622 
1067	 0.190020529251379 
1068	 0.190408808141249 
1069	 0.19077550244456 
1070	 0.191103697630586 
1071	 0.191447610865546 
1072	 0.191780108697177 
1073	 0.192158273492407 
1074	 0.192459703697837 
1075	 0.192696420423865 
1076	 0.192970968812992 
1077	 0.193246541573516 
1078	 0.193593569863804 
1079	 0.194002869108198 
1080	 0.194476973557689 
1081	 0.194851317280098 
1082	 0.19521562395781 
1083	 0.195488297663421 
1084	 0.195695673458051 
1085	 0.195788212214212 
1086	 0.195982056083188 
1087	 0.196226658893214 
1088	 0.196503888779106 
1089	 0.19679693477683 
1090	 0.196961080581236 
1091	 0.197138785653384 
1092	 0.197281216490206 
1093	 0.197483373360849 
1094	 0.197874062305543 
1095	 0.198249310833669 
1096	 0.198532312300777 
1097	 0.198760219077415 
1098	 0.199048405929395 
1099	 0.199286638747568 
1100	 0.199537164867465 
1101	 0.199860026717134 
1102	 0.200192310322984 
1103	 0.200444504257358 
1104	 0.200596941483601 
1105	 0.20082306113837 
1106	 0.201196684985812 
1107	 0.201654463538668 
1108	 0.202258470030534 
1109	 0.202889826599449 
1110	 0.203342620405719 
1111	 0.20390974261464 
1112	 0.20445050868727 
1113	 0.205074688773058 
1114	 0.205947570120929 
1115	 0.206776285256204 
1116	 0.207577698783532 
1117	 0.208462778137553 
1118	 0.209487078632809 
1119	 0.21007364548136 
1120	 0.210809725619802 
1121	 0.211261073191794 
1122	 0.211182432104223 
1123	 0.211254478374232 
1124	 0.211185396772998 
1125	 0.210804054125865 
1126	 0.210319713752416 
1127	 0.209958088630664 
1128	 0.209045793941719 
1129	 0.207712017084656 
1130	 0.206487283515717 
1131	 0.20493940567062 
1132	 0.203697197933599 
1133	 0.202585397779819 
1134	 0.201518399331653 
1135	 0.20042376427959 
1136	 0.199375311542062 
1137	 0.198250772439151 
1138	 0.197084769875681 
1139	 0.19614809000874 
1140	 0.19534531111025 
1141	 0.194623533553676 
1142	 0.194041661249744 
1143	 0.193341593823911 
1144	 0.192661901790822 
1145	 0.191853284423909 
1146	 0.191050188879991 
1147	 0.190013661592913 
1148	 0.188854998601703 
1149	 0.187732710076786 
1150	 0.186468876041664 
1151	 0.18530941339902 
1152	 0.184295502875006 
1153	 0.183216517643328 
1154	 0.182112764860681 
1155	 0.181111856190892 
1156	 0.180279037704038 
1157	 0.179337144165835 
1158	 0.178410738142022 
1159	 0.177597763154377 
1160	 0.176880847562828 
1161	 0.176167067893925 
1162	 0.175600487947459 
1163	 0.175130397662367 
1164	 0.174751674404807 
1165	 0.174484525024905 
1166	 0.174154996073607 
1167	 0.173901783288777 
1168	 0.173605169864784 
1169	 0.173218153401845 
1170	 0.172873297658338 
1171	 0.17262837260806 
1172	 0.172516710812767 
1173	 0.172418870595561 
1174	 0.172307218841328 
1175	 0.17225590745419 
1176	 0.17216156054962 
1177	 0.172100674009458 
1178	 0.172110759834272 
1179	 0.172042667822481 
1180	 0.171951823777283 
1181	 0.171846050866989 
1182	 0.171697050352517 
1183	 0.171555551931107 
1184	 0.171379602360875 
1185	 0.171258810559962 
1186	 0.171183231221632 
1187	 0.171061738088668 
1188	 0.17096857915152 
1189	 0.170818860190451 
1190	 0.170590652037127 
1191	 0.170496358411951 
1192	 0.170515134845397 
1193	 0.170527350379776 
1194	 0.170564154826305 
1195	 0.170670688817508 
1196	 0.170759539006254 
1197	 0.170886537108755 
1198	 0.170930286786206 
1199	 0.170962179169826 
1200	 0.170973543234832 
1201	 0.170845319540632 
1202	 0.170859055368248 
1203	 0.170978963955861 
1204	 0.171041943085567 
1205	 0.171102379887267 
1206	 0.171217170611265 
1207	 0.171373277544383 
1208	 0.171472724314865 
1209	 0.171574876242578 
1210	 0.171702061652781 
1211	 0.171761023353834 
1212	 0.171802167595538 
1213	 0.171983205171517 
1214	 0.172290327278106 
1215	 0.172494782002038 
1216	 0.172733438624317 
1217	 0.172954328998814 
1218	 0.17312942638396 
1219	 0.17333216457005 
1220	 0.17354830614663 
1221	 0.17378589351898 
1222	 0.174049147401691 
1223	 0.174265430954986 
1224	 0.174468064131987 
1225	 0.174700228834826 
1226	 0.174913483702249 
1227	 0.175132404870589 
1228	 0.175371639813693 
1229	 0.175657153858423 
1230	 0.175867223681847 
1231	 0.176036630266366 
1232	 0.176260880247452 
1233	 0.17649690021688 
1234	 0.176724541419341 
1235	 0.177000384583553 
1236	 0.177200798872129 
1237	 0.177337751086479 
1238	 0.177536661724308 
1239	 0.177755949508995 
1240	 0.177920373876924 
1241	 0.178076132270462 
1242	 0.178255552470682 
1243	 0.178369084853991 
1244	 0.178542074407692 
1245	 0.178798232969082 
1246	 0.179020826468512 
1247	 0.179305245321136 
1248	 0.179485465396641 
1249	 0.179575877581715 
1250	 0.179699383610724 
1251	 0.179809072287939 
1252	 0.179824398324706 
1253	 0.179909204703322 
1254	 0.180058402330603 
1255	 0.180145517117517 
1256	 0.180215878400839 
1257	 0.180248019142184 
1258	 0.180247195322864 
1259	 0.180250363162003 
1260	 0.180213193065997 
1261	 0.180186032293925 
1262	 0.180142621539896 
1263	 0.180141007187551 
1264	 0.180148939437775 
1265	 0.180163233383362 
1266	 0.180222129952598 
1267	 0.180267847213119 
1268	 0.180302424711434 
1269	 0.18033630803193 
1270	 0.180320409618609 
1271	 0.180394932517719 
1272	 0.180493484457438 
1273	 0.180635920657394 
1274	 0.180828467338529 
1275	 0.181118025190028 
1276	 0.181368998883148 
1277	 0.181638359728992 
1278	 0.181894074494029 
1279	 0.182153040874333 
1280	 0.182421620026078 
1281	 0.182676788734905 
1282	 0.182965461507103 
1283	 0.183291234660988 
1284	 0.18359589601562 
1285	 0.183932845972794 
1286	 0.18421137724445 
1287	 0.184393881422941 
1288	 0.184691437949746 
1289	 0.185017187954016 
1290	 0.185352111066485 
1291	 0.185822600301061 
1292	 0.186190833570759 
1293	 0.186460346028595 
1294	 0.186784737454802 
1295	 0.187144442666217 
1296	 0.187443057879907 
1297	 0.187742966232719 
1298	 0.188079124586651 
1299	 0.188343413028838 
1300	 0.188538093720713 
1301	 0.188759209081269 
1302	 0.189006366002327 
1303	 0.189156656812976 
1304	 0.189239516306561 
1305	 0.189350587540769 
1306	 0.18940157031938 
1307	 0.189486955999073 
1308	 0.189642458790005 
1309	 0.189707338758608 
1310	 0.189690685835311 
1311	 0.189723119348094 
1312	 0.189819907579978 
1313	 0.189772745620479 
1314	 0.189667177576687 
1315	 0.189548176477203 
1316	 0.189229017617652 
1317	 0.189040279023756 
1318	 0.189017174336997 
1319	 0.188868216231206 
1320	 0.188617559897771 
1321	 0.188459535898084 
1322	 0.188330858265335 
1323	 0.18815112186367 
1324	 0.188042748727038 
1325	 0.188103437707263 
1326	 0.187968289728325 
1327	 0.187732697184224 
1328	 0.187504228803358 
1329	 0.187197164110651 
1330	 0.186937290174724 
1331	 0.18666875148059 
1332	 0.186409219535934 
1333	 0.186227216529099 
1334	 0.185921212921147 
1335	 0.185506607702929 
1336	 0.185175297822375 
1337	 0.184638568107763 
1338	 0.184418737253242 
1339	 0.184382297091856 
1340	 0.184466960172539 
1341	 0.184923026977576 
1342	 0.185312213247758 
1343	 0.185865298053024 
1344	 0.186452863532379 
1345	 0.187118389078046 
1346	 0.187946073803718 
1347	 0.189101057087035 
1348	 0.190478704597991 
1349	 0.191919112751081 
1350	 0.193785888796062 
1351	 0.195805617272477 
1352	 0.197741732398367 
1353	 0.20077322031766 
1354	 0.205137231840314 
1355	 0.209964340665902 
1356	 0.21454099873098 
1357	 0.22199384813572 
1358	 0.22689101212436 
1359	 0.236767503469969 
1360	 0.246755495704148 
1361	 0.261302544625716 
1362	 0.259066269101856 
1363	 0.271482147617127 
1364	 0.280550930481734 
1365	 0.289567748989182 
1366	 0.306194501461787 
1367	 0.301715295579274 
1368	 0.281015004326586 
1369	 0.270245460227986 
1370	 0.253057442765679 
1371	 0.247304087583232 
1372	 0.251282250474725 
1373	 0.249526131943603 
1374	 0.245011417322601 
1375	 0.245307554374654 
1376	 0.243324134751617 
1377	 0.242630041264922 
1378	 0.241510503420231 
1379	 0.243990397500985 
1380	 0.239978794632204 
1381	 0.230475484193808 
1382	 0.227099138232577 
1383	 0.225208685015774 
1384	 0.220868560603529 
1385	 0.218996539639174 
1386	 0.214947613018718 
1387	 0.207820798213482 
1388	 0.204589639151396 
1389	 0.204498271966211 
1390	 0.201480359795571 
1391	 0.198319585738162 
1392	 0.194099971437266 
1393	 0.187723559774652 
1394	 0.183639317324228 
1395	 0.179488939349443 
1396	 0.176836343465967 
1397	 0.177281538486667 
1398	 0.174328822075923 
1399	 0.169172854304605 
1400	 0.166304444275873 
1401	 0.163494331941923 
1402	 0.160275501538628 
1403	 0.159220472236399 
1404	 0.156683467109754 
1405	 0.153193590132343 
1406	 0.149323966539549 
1407	 0.145296031533782 
1408	 0.142301610099409 
1409	 0.139180685662211 
1410	 0.13580375402724 
1411	 0.133129483130933 
1412	 0.130908116014863 
1413	 0.128739677858331 
1414	 0.126611998716686 
1415	 0.125104933913043 
1416	 0.124044519113398 
1417	 0.122589369345915 
1418	 0.121328071920154 
1419	 0.119839355095271 
1420	 0.118083987375187 
1421	 0.116640386602649 
1422	 0.115234803246455 
1423	 0.114024122785637 
1424	 0.112840527142234 
1425	 0.111761797703481 
1426	 0.11070264170611 
1427	 0.109895205844243 
1428	 0.109151286856318 
1429	 0.108555606637773 
1430	 0.108200336248925 
1431	 0.107717368750161 
1432	 0.107121360652192 
1433	 0.106772517238819 
1434	 0.106585190271634 
1435	 0.106301950846796 
1436	 0.106257465500926 
1437	 0.10593318229264 
1438	 0.105330953842436 
1439	 0.104852591246361 
1440	 0.104308571959593 
1441	 0.103872848740786 
1442	 0.103590519106605 
1443	 0.103194175782478 
1444	 0.102994193154705 
1445	 0.102596658938323 
1446	 0.102083477557324 
1447	 0.101697480548969 
1448	 0.10135799543745 
1449	 0.101025657848194 
1450	 0.100712512621054 
1451	 0.100515667424012 
1452	 0.100190099005567 
1453	 9.97197330130676E-02 
1454	 9.94988381692249E-02 
1455	 9.93226410355715E-02 
1456	 9.92138077709937E-02 
1457	 9.93079600375924E-02 
1458	 0.099158510748339 
1459	 9.87861968517146E-02 
1460	 9.87580578162829E-02 
1461	 9.86687279899603E-02 
1462	 9.88953223454039E-02 
1463	 9.96249062089157E-02 
1464	 0.100094993242169 
1465	 0.100725525935674 
1466	 0.10110396270689 
1467	 0.101179583615463 
1468	 0.101468689198136 
1469	 0.101791281740589 
1470	 0.102015471352104 
1471	 0.102281847525281 
1472	 0.102499472147034 
1473	 0.102530785167971 
1474	 0.102604771327288 
1475	 0.102736632015714 
1476	 0.102847251700483 
1477	 0.102929234616081 
1478	 0.102977666602868 
1479	 0.103048751412298 
1480	 0.103074859705569 
1481	 0.102943941526897 
1482	 0.102963787777133 
1483	 0.103085520527241 
1484	 0.103155154253856 
1485	 0.103355987625536 
1486	 0.103406429292593 
1487	 0.1033455992724 
1488	 0.103233828026738 
1489	 0.103163685927778 
1490	 0.103153524607069 
1491	 0.103220106488788 
1492	 0.10332645768751 
1493	 0.10342347157606 
1494	 0.103443251176576 
1495	 0.103447361480412 
1496	 0.103374683600592 
1497	 0.10346279041542 
1498	 0.103565556489045 
1499	 0.103728346724773 
1500	 0.104039674630186 
1501	 0.104220382276421 
1502	 0.104347690999693 
1503	 0.104534195530682 
1504	 0.104699926000339 
1505	 0.104926296752658 
1506	 0.105201090709247 
1507	 0.105467843594556 
1508	 0.105767593600684 
1509	 0.106033057897917 
1510	 0.106275527265596 
1511	 0.106568951795818 
1512	 0.106859840817309 
1513	 0.107184225646495 
1514	 0.107620666178458 
1515	 0.107903929804103 
1516	 0.108113420604414 
1517	 0.108356974721981 
1518	 0.108489535905689 
1519	 0.108753793830299 
1520	 0.109153804336517 
1521	 0.109450943641995 
1522	 0.109764952927677 
1523	 0.110029193061329 
1524	 0.110193288107569 
1525	 0.110425647794235 
1526	 0.110652901137525 
1527	 0.110929699300671 
1528	 0.111280953130569 
1529	 0.11158314185509 
1530	 0.11189503163273 
1531	 0.112203138802911 
1532	 0.112498867837153 
1533	 0.112768336486453 
1534	 0.113045147803347 
1535	 0.113291415512885 
1536	 0.113463346017013 
1537	 0.113688662725764 
1538	 0.113909447107675 
1539	 0.114173270075301 
1540	 0.114527956334986 
1541	 0.11480346881028 
1542	 0.115062604728545 
1543	 0.11531953965667 
1544	 0.115497493784565 
1545	 0.115731800713228 
1546	 0.116006630705564 
1547	 0.116281341229169 
1548	 0.116614048965374 
1549	 0.11688152831497 
1550	 0.117113869777958 
1551	 0.117353492880204 
1552	 0.117551069268242 
1553	 0.117756897719053 
1554	 0.117948989852143 
1555	 0.118185035818584 
1556	 0.118472406299815 
1557	 0.1187083232268 
1558	 0.118942914408222 
1559	 0.119188497037535 
1560	 0.119371956515145 
1561	 0.119596200038329 
1562	 0.119931690569866 
1563	 0.120176197096292 
1564	 0.120345025071851 
1565	 0.120561397365658 
1566	 0.120687949637264 
1567	 0.120829574183508 
1568	 0.121022177604592 
1569	 0.121249438284527 
1570	 0.121497743382993 
1571	 0.121807287611787 
1572	 0.122014799608849 
1573	 0.122178244457851 
1574	 0.122438328211455 
1575	 0.122691642730526 
1576	 0.122918676812414 
1577	 0.123233039454698 
1578	 0.123424056216793 
1579	 0.123465166286682 
1580	 0.123673090959083 
1581	 0.123949264550286 
1582	 0.124156410667065 
1583	 0.124420003616498 
1584	 0.124554760469728 
1585	 0.124548268403496 
1586	 0.124726119354013 
1587	 0.124911891516638 
1588	 0.125169594244129 
1589	 0.125580077761076 
1590	 0.125855565599584 
1591	 0.126109419925884 
1592	 0.12632332448031 
1593	 0.126497220573002 
1594	 0.126652696370832 
1595	 0.126735392771272 
1596	 0.12693151265926 
1597	 0.127132477892826 
1598	 0.127410681436187 
1599	 0.127848397311482 
1600	 0.128068677882694 
1601	 0.128207940850582 
1602	 0.128414675253709 
1603	 0.128537614431998 
1604	 0.128723391002596 
1605	 0.128980659184259 
1606	 0.129240037863039 
1607	 0.129491190420031 
1608	 0.129713824687461 
1609	 0.129998212451795 
1610	 0.130202866191034 
1611	 0.13028910367058 
1612	 0.130477777298287 
1613	 0.130718691558546 
1614	 0.130919270087286 
1615	 0.131155218780343 
1616	 0.131291517322181 
1617	 0.131334582172364 
1618	 0.131467520742124 
1619	 0.131573247722545 
1620	 0.131747242376406 
1621	 0.132042789683095 
1622	 0.132193752525555 
1623	 0.132256055797523 
1624	 0.132421003042244 
1625	 0.132614622049919 
1626	 0.132723253150661 
1627	 0.132861602475074 
1628	 0.1329717451564 
1629	 0.132935158094001 
1630	 0.133068315204394 
1631	 0.133350820642429 
1632	 0.133485393886038 
1633	 0.133597467445256 
1634	 0.133714510759745 
1635	 0.133751588636673 
1636	 0.133874950829737 
1637	 0.13409495199106 
1638	 0.134185652391997 
1639	 0.134218520761656 
1640	 0.134314979860264 
1641	 0.134361667388215 
1642	 0.134454178800051 
1643	 0.134669810420818 
1644	 0.134702704873451 
1645	 0.134631783370453 
1646	 0.134610042526605 
1647	 0.134513182950741 
1648	 0.13447879593248 
1649	 0.134485272465571 
1650	 0.134509883093746 
1651	 0.134595477252373 
1652	 0.134519692017596 
1653	 0.134410880982942 
1654	 0.134279221779706 
1655	 0.133978168368336 
1656	 0.133874197622678 
1657	 0.133889769462739 
1658	 0.13384856606798 
1659	 0.133795739458785 
1660	 0.133509514641348 
1661	 0.133250621717059 
1662	 0.133204090380295 
1663	 0.133129267448686 
1664	 0.133130338433223 
1665	 0.133080893643256 
1666	 0.132947639859691 
1667	 0.132902860838028 
1668	 0.132731183418637 
1669	 0.13263374532983 
1670	 0.132477075500543 
1671	 0.132097880520321 
1672	 0.131966815998478 
1673	 0.131853875930921 
1674	 0.131769308143497 
1675	 0.131690045151856 
1676	 0.131385574480959 
1677	 0.131309631821618 
1678	 0.131261529475457 
1679	 0.131007406506247 
1680	 0.130773103540919 
1681	 0.13041591066662 
1682	 0.130082674090953 
1683	 0.129926672094988 
1684	 0.129726641530545 
1685	 0.129652263750464 
1686	 0.129493278825029 
1687	 0.129113570674046 
1688	 0.128978821098622 
1689	 0.128813127260223 
1690	 0.128627403654215 
1691	 0.12836107534844 
1692	 0.128001121975046 
1693	 0.127707351916141 
1694	 0.127403854867782 
1695	 0.127054031322607 
1696	 0.126604229918421 
1697	 0.126341461054418 
1698	 0.126143904417607 
1699	 0.125943640278842 
1700	 0.126037421232459 
1701	 0.125865220920478 
1702	 0.125465367580309 
1703	 0.125116404771982 
1704	 0.124637272433924 
1705	 0.124275408502734 
1706	 0.124031828588062 
1707	 0.12367748798064 
1708	 0.123249858140234 
1709	 0.122945649227731 
1710	 0.122676927822512 
1711	 0.122311938855879 
1712	 0.122036357838177 
1713	 0.121686805722199 
1714	 0.121156400568483 
1715	 0.120765111417044 
1716	 0.120405681160052 
1717	 0.120114974052416 
1718	 0.119931156324358 
1719	 0.119648087136654 
1720	 0.11944823836782 
1721	 0.119131790015261 
1722	 0.118565394697507 
1723	 0.118236475592556 
1724	 0.117994040917414 
1725	 0.117733872967229 
1726	 0.117568968763145 
1727	 0.11749201435847 
1728	 0.117436693610982 
1729	 0.117421611889553 
1730	 0.117535125234964 
1731	 0.117562073254958 
1732	 0.117606493532762 
1733	 0.117640862338599 
1734	 0.117567456943531 
1735	 0.117627906932315 
1736	 0.117720449080101 
1737	 0.117872180717177 
1738	 0.118095478960802 
1739	 0.118186861096754 
1740	 0.118313575444736 
1741	 0.118492439087505 
1742	 0.118762926588244 
1743	 0.118863164728729 
1744	 0.118796837916903 
1745	 0.118663205816134 
1746	 0.118407375028427 
1747	 0.118387028946245 
1748	 0.118440251949185 
1749	 0.118408441435075 
1750	 0.118302659427538 
1751	 0.118092473961645 
1752	 0.117984404882227 
1753	 0.117822640085219 
1754	 0.11756894083618 
1755	 0.117341373474181 
1756	 0.117050936305922 
1757	 0.116792415917659 
1758	 0.116788706505118 
1759	 0.117106176663422 
1760	 0.117172605248495 
1761	 0.117214910064661 
1762	 0.117327573602143 
1763	 0.117360090066871 
1764	 0.117335127233182 
1765	 0.117353299018564 
1766	 0.117452680995167 
1767	 0.117595907739683 
1768	 0.117515488860909 
1769	 0.117350669584748 
1770	 0.117383520830531 
1771	 0.117152596577727 
1772	 0.117243101501417 
1773	 0.117892311529315 
1774	 0.118063438941123 
1775	 0.118172544466115 
1776	 0.118643070825539 
1777	 0.118884106168886 
1778	 0.119171983000859 
1779	 0.11965295757734 
1780	 0.119670713865518 
1781	 0.119834114078859 
1782	 0.120180359993049 
1783	 0.120109774849477 
1784	 0.120034789163436 
1785	 0.120056481654992 
1786	 0.120064981179642 
1787	 0.120195651334334 
1788	 0.120271525570912 
1789	 0.120522059960557 
1790	 0.120856662881517 
1791	 0.121021103287213 
1792	 0.121441044394665 
1793	 0.121870655347881 
1794	 0.121865548930232 
1795	 0.121880923897605 
1796	 0.122158665244999 
1797	 0.122495796309733 
1798	 0.123005198171544 
1799	 0.124079904808162 
1800	 0.125271830501211 
1801	 0.129820533334222 
1802	 0.130736050139401 
1803	 0.131027476004398 
1804	 0.130718326177808 
1805	 0.131541379870352 
1806	 0.13269892836693 
1807	 0.1338287616165 
1808	 0.136836639806297 
1809	 0.138629780939123 
1810	 0.139675334484405 
1811	 0.13857265203589 
1812	 0.139382054563707 
1813	 0.140463020328373 
1814	 0.141694879400251 
1815	 0.143817746913227 
1816	 0.146182709563144 
1817	 0.149232845603172 
1818	 0.151364746284331 
1819	 0.1533698406954 
1820	 0.156586949230558 
1821	 0.157547635232189 
1822	 0.154109920708061 
1823	 0.154748739030274 
1824	 0.156287964937903 
1825	 0.158183786939752 
1826	 0.163773536142365 
1827	 0.169642997561117 
1828	 0.176812914637043 
1829	 0.185856638588802 
1830	 0.195168926132717 
1831	 0.209928280403401 
1832	 0.219694060919865 
1833	 0.212272154517521 
1834	 0.221503394432317 
1835	 0.245776594139929 
1836	 0.253792382698495 
1837	 0.243392588006034 
1838	 0.249555669934901 
1839	 0.251907903519181 
1840	 0.227270500679197 
1841	 0.215149624826714 
1842	 0.234882470584178 
1843	 0.224165645942201 
1844	 0.171938393462364 
1845	 0.161562679116523 
1846	 0.171717584577094 
1847	 0.170532029422436 
1848	 0.172473110066234 
1849	 0.190976341166587 
1850	 0.195010186434106 
1851	 0.177833187485078 
1852	 0.18354286462743 
1853	 0.204688022029443 
1854	 0.22603034280438 
1855	 0.278714466609252 
1856	 0.284680211513857 
1857	 0.280796406403965 
1858	 0.241548622012543 
1859	 0.225803136882567 
1860	 0.195338246429591 
1861	 0.181670750456488 
1862	 0.172011346635015 
1863	 0.171437357872272 
1864	 0.184151971806043 
1865	 0.182290261749983 
1866	 0.17504800865651 
1867	 0.181664072931922 
1868	 0.182199685282579 
1869	 0.167677915301781 
1870	 0.157836392697631 
1871	 0.158399479914423 
1872	 0.152228181661297 
1873	 0.124415789015752 
1874	 0.126334162513911 
1875	 0.152257074392391 
1876	 0.159128788882136 
1877	 0.173786244044609 
1878	 0.167735385759797 
1879	 0.158559267763328 
1880	 0.152368204821477 
1881	 0.145467339950166 
1882	 0.13786467615555 
1883	 0.132865224697901 
1884	 0.122898904102772 
1885	 0.119754615240945 
1886	 0.120991090116616 
1887	 0.121044443648773 
1888	 0.121930982912991 
1889	 0.131065109027229 
1890	 0.131148163177591 
1891	 0.129880634865024 
1892	 0.125227347515613 
1893	 0.108825252768671 
1894	 0.102343387650652 
1895	 9.88358528379251E-02 
1896	 9.29487641001096E-02 
1897	 8.91724557187753E-02 
1898	 9.23087073344786E-02 
1899	 7.46308780545009E-02 
1900	 6.71443256260489E-02 
1901	 7.13303073761174E-02 
1902	 9.12654140588665E-02 
1903	 9.85385174221762E-02 
1904	 0.124535159827686 
1905	 0.134280535776893 
1906	 0.108647422127236 
1907	 0.119279474163654 
1908	 0.129395482504486 
1909	 0.115312932029695 
1910	 0.115844913653938 
1911	 0.117684319841503 
1912	 0.10902050212704 
1913	 9.65950144001007E-02 
1914	 9.33162061156949E-02 
1915	 8.75542190484748E-02 
1916	 8.42210009825376E-02 
1917	 8.23307551612296E-02 
1918	 0.089972738205958 
1919	 8.48544166286675E-02 
1920	 7.86383727480777E-02 
1921	 7.91417340621433E-02 
1922	 7.34590306586117E-02 
1923	 0.069164906218805 
1924	 6.52579623603189E-02 
1925	 6.33105840132038E-02 
1926	 5.98467072514542E-02 
1927	 5.83869386330639E-02 
1928	 5.94548243456446E-02 
1929	 6.05947137065692E-02 
1930	 5.87202882469811E-02 
1931	 6.03545145253411E-02 
1932	 6.27157947233742E-02 
1933	 6.54790681790644E-02 
1934	 6.53943854470499E-02 
1935	 6.35703728964304E-02 
1936	 6.31797898476702E-02 
1937	 6.20261450664829E-02 
1938	 6.11389905454151E-02 
1939	 6.16048880167846E-02 
1940	 6.10182678100737E-02 
1941	 5.98960406413981E-02 
1942	 5.97047776651833E-02 
1943	 5.87410266912489E-02 
1944	 5.96973994835268E-02 
1945	 6.09553842296806E-02 
1946	 6.08453417828978E-02 
1947	 6.09705819018266E-02 
1948	 6.15900782456622E-02 
1949	 6.16322341515958E-02 
1950	 6.13297615973883E-02 
1951	 6.05824947294323E-02 
1952	 6.00554410621191E-02 
1953	 5.90980439594421E-02 
1954	 5.86176256326391E-02 
1955	 5.97560022482821E-02 
1956	 6.07395869232386E-02 
1957	 6.10728939559837E-02 
1958	 6.08765581657257E-02 
1959	 5.95950550814823E-02 
1960	 5.91950014342703E-02 
1961	 5.85995711060803E-02 
1962	 5.87951077683238E-02 
1963	 5.93115445661704E-02 
1964	 5.94303616311136E-02 
1965	 5.90336385907634E-02 
1966	 5.86655833228482E-02 
1967	 5.85517805995722E-02 
1968	 5.89130971810161E-02 
1969	 5.92053789904072E-02 
1970	 5.98911141787703E-02 
1971	 5.99631798009029E-02 
1972	 5.97283115930173E-02 
1973	 0.059708616568287 
1974	 5.98084264929677E-02 
1975	 6.02411191964098E-02 
1976	 6.10113614185476E-02 
1977	 6.15955733393863E-02 
1978	 6.19224128030944E-02 
1979	 6.18934241055831E-02 
1980	 6.21587350727355E-02 
1981	 6.23649859584878E-02 
1982	 6.24314119362566E-02 
1983	 6.21877431055608E-02 
1984	 6.27111165999365E-02 
1985	 0.063178070814436 
1986	 6.32527044175571E-02 
1987	 6.38356433098245E-02 
1988	 6.42765141018758E-02 
1989	 6.41823434768622E-02 
1990	 6.43206795751163E-02 
1991	 6.46907811073634E-02 
1992	 6.48957979389203E-02 
1993	 6.51898314029447E-02 
1994	 6.57343177806022E-02 
1995	 6.61611549915207E-02 
1996	 0.066493857147825 
1997	 6.67860676575243E-02 
1998	 6.73249475225721E-02 
1999	 6.77103473897561E-02 
2000	 0.0683012005211 
2001	 6.87013022557785E-02 
2002	 6.85891200757403E-02 
2003	 6.83051201620112E-02 
2004	 6.75116416546663E-02 
2005	 0.067697817491367 
2006	 6.79682038602675E-02 
2007	 6.87392311024896E-02 
2008	 6.90166211708875E-02 
2009	 6.93023032355656E-02 
2010	 6.83393741355869E-02 
2011	 6.67032014228917E-02 
2012	 6.61225605348395E-02 
2013	 6.59300183824081E-02 
2014	 6.59379093287747E-02 
2015	 6.69883230313928E-02 
2016	 6.79572682746061E-02 
2017	 6.83981087770763E-02 
2018	 6.89083909211886E-02 
2019	 6.89008490625714E-02 
2020	 6.83711785477983E-02 
2021	 6.76430833467073E-02 
2022	 0.067382287735128 
2023	 0.067484753104033 
2024	 0.067902107508002 
2025	 6.82582063198278E-02 
2026	 0.068651500397237 
2027	 6.87097583353897E-02 
2028	 6.81567572861375E-02 
2029	 6.76073212206838E-02 
2030	 6.73055940468025E-02 
2031	 6.72265217983874E-02 
2032	 6.71518004882432E-02 
2033	 6.73529813608663E-02 
2034	 6.74672828647694E-02 
2035	 6.74263147723359E-02 
2036	 6.71456451354704E-02 
2037	 6.68675948355013E-02 
2038	 6.70252191892174E-02 
2039	 0.066968647942768 
2040	 6.68170252784208E-02 
2041	 6.68541754498653E-02 
2042	 6.68034413647471E-02 
2043	 6.68651659274313E-02 
2044	 6.69642691012412E-02 
2045	 6.68831112468964E-02 
2046	 6.67316002968763E-02 
2047	 6.62141977398243E-02 
2048	 6.55560956175166E-02 
2049	 6.54518990602995E-02 
2050	 6.54525645507499E-02 
2051	 6.56371113630956E-02 
2052	 6.59944410422444E-02 
2053	 6.58419959810975E-02 
2054	 6.55184721526891E-02 
2055	 6.51214348659169E-02 
2056	 6.47808387204307E-02 
2057	 6.47662526959312E-02 
2058	 6.49088474688539E-02 
2059	 6.49542235976192E-02 
2060	 6.51166099198965E-02 
2061	 6.54905371012476E-02 
2062	 6.51405963008118E-02 
2063	 6.44985178235086E-02 
2064	 6.46817534111799E-02 
2065	 6.46906866519928E-02 
2066	 0.065051801361452 
2067	 6.56614162076638E-02 
2068	 6.53518998893241E-02 
2069	 6.48861205314957E-02 
2070	 6.44527496186977E-02 
2071	 6.37883800702728E-02 
2072	 6.36323022168587E-02 
2073	 6.37934597969508E-02 
2074	 6.41044339780706E-02 
2075	 6.41567989704378E-02 
2076	 0.064497695265067 
2077	 6.44450900011888E-02 
2078	 6.40150744908689E-02 
2079	 6.40877169846055E-02 
2080	 6.42616822882681E-02 
2081	 6.41964390075921E-02 
2082	 6.41845149837975E-02 
2083	 6.41818794028563E-02 
2084	 6.40458415773187E-02 
2085	 6.39198383505842E-02 
2086	 6.39814599962385E-02 
2087	 6.40713530958868E-02 
2088	 6.42860826542817E-02 
2089	 6.40294351433594E-02 
2090	 0.063827454750811 
2091	 6.39294352836418E-02 
2092	 6.35402444883436E-02 
2093	 6.34010571611227E-02 
2094	 6.36150347721985E-02 
2095	 6.37319688648148E-02 
2096	 6.41848830623871E-02 
2097	 6.45648515563334E-02 
2098	 6.47793395586374E-02 
2099	 6.51046760644365E-02 
2100	 6.49776067203034E-02 
2101	 6.48296995843522E-02 
2102	 6.47914123891263E-02 
2103	 6.48962486217027E-02 
2104	 6.45279315158766E-02 
2105	 6.45648893702344E-02 
2106	 0.064937811106809 
2107	 6.51524423322295E-02 
2108	 6.58564431380233E-02 
2109	 6.64565308731692E-02 
2110	 6.64101521866062E-02 
2111	 6.61878352462819E-02 
2112	 6.57191639236802E-02 
2113	 6.50492839484566E-02 
2114	 0.064717430304188 
2115	 6.48210202494343E-02 
2116	 6.50636214005424E-02 
2117	 6.50373308297849E-02 
2118	 6.50050707874935E-02 
2119	 6.47968864580238E-02 
2120	 6.42402327737615E-02 
2121	 6.38702227900209E-02 
2122	 6.40671177490419E-02 
2123	 6.42982399933723E-02 
2124	 6.45021656781247E-02 
2125	 6.47048531859193E-02 
2126	 6.47779202222154E-02 
2127	 6.50207425411856E-02 
2128	 6.55454814629638E-02 
2129	 6.59904393922145E-02 
2130	 6.57908869535162E-02 
2131	 6.57104188579798E-02 
2132	 6.56182926008614E-02 
2133	 6.54148635216231E-02 
2134	 6.55711307542431E-02 
2135	 6.62497802051566E-02 
2136	 6.63726334335947E-02 
2137	 6.62852760781798E-02 
2138	 6.60379067573898E-02 
2139	 6.53873069043712E-02 
2140	 6.53108569499054E-02 
2141	 0.06537605190201 
2142	 6.53268969027093E-02 
2143	 0.065601277098309 
2144	 6.59285693765353E-02 
2145	 6.57424835879356E-02 
2146	 6.59529363125174E-02 
2147	 6.65087289313542E-02 
2148	 6.67669779333679E-02 
2149	 6.70989471707584E-02 
2150	 6.69816158559551E-02 
2151	 6.68513616276281E-02 
2152	 6.60594812083211E-02 
2153	 6.58551014644469E-02 
2154	 6.57548699585475E-02 
2155	 6.62361538710777E-02 
2156	 0.066705866757908 
2157	 6.67081757898079E-02 
2158	 6.64331559297586E-02 
2159	 6.64791707007555E-02 
2160	 6.66421749427627E-02 
2161	 6.71300409236884E-02 
2162	 0.067416659746162 
2163	 6.72981171713816E-02 
2164	 6.73725939274789E-02 
2165	 6.72649794927076E-02 
2166	 6.76182038046877E-02 
2167	 6.81395399448779E-02 
2168	 6.81066452568188E-02 
2169	 6.74933227731378E-02 
2170	 0.067357226071291 
2171	 6.71246018957851E-02 
2172	 6.67540101373498E-02 
2173	 0.067036233524473 
2174	 6.77133714078712E-02 
2175	 6.76493027804631E-02 
2176	 6.80787116310731E-02 
2177	 6.85638867349027E-02 
2178	 6.82915207042907E-02 
2179	 6.84796620194796E-02 
2180	 6.83550786929574E-02 
2181	 6.80130244385008E-02 
2182	 0.068412233083425 
2183	 6.87269371986591E-02 
2184	 6.86668892090396E-02 
2185	 6.89430754490394E-02 
2186	 6.91356619200606E-02 
2187	 6.94450700292408E-02 
2188	 7.02322870816407E-02 
2189	 7.04801035045577E-02 
2190	 7.05490623754529E-02 
2191	 0.070517586477754 
2192	 7.01273774989527E-02 
2193	 6.93291171732322E-02 
2194	 6.94113498426451E-02 
2195	 6.96283827590787E-02 
2196	 6.95829573945525E-02 
2197	 7.01384825781782E-02 
2198	 7.08240819525948E-02 
2199	 7.09435494039518E-02 
2200	 7.12544718871953E-02 
2201	 7.17625162490719E-02 
2202	 7.13539662996287E-02 
2203	 7.10584883979231E-02 
2204	 0.071462515366822 
2205	 7.16634897518094E-02 
2206	 0.071860744844559 
2207	 0.071865498989051 
2208	 7.18128651378732E-02 
2209	 7.12945493976085E-02 
2210	 7.08688178206561E-02 
2211	 0.070290880533633 
2212	 7.05297054503158E-02 
2213	 7.06645182943735E-02 
2214	 7.05911092687419E-02 
2215	 7.12613815483742E-02 
2216	 7.15100235557496E-02 
2217	 7.12221654402241E-02 
2218	 0.071564324782188 
2219	 7.17105157161775E-02 
2220	 7.12173273686135E-02 
2221	 7.10785482122466E-02 
2222	 7.06387192354949E-02 
2223	 7.01222885315562E-02 
2224	 7.08215558838618E-02 
2225	 7.13108904866746E-02 
2226	 7.13053609394887E-02 
2227	 7.15074749597876E-02 
2228	 7.12781194508648E-02 
2229	 7.10067118433221E-02 
2230	 0.070733837044592 
2231	 0.070355652626232 
2232	 6.96776769381043E-02 
2233	 6.95070608293333E-02 
2234	 6.94065361949124E-02 
2235	 6.94724580474518E-02 
2236	 7.01551405841582E-02 
2237	 6.99489971101309E-02 
2238	 6.91208745059394E-02 
2239	 6.84537105384542E-02 
2240	 6.76575873657674E-02 
2241	 6.71927045679332E-02 
2242	 0.066864393783567 
2243	 6.68443749382576E-02 
2244	 6.70702696251001E-02 
2245	 6.68039671882733E-02 
2246	 6.64801619072591E-02 
2247	 6.67317173095412E-02 
2248	 6.64868226027603E-02 
2249	 6.61077658388261E-02 
2250	 0.065817723600052 
2251	 6.41860277538097E-02 
2252	 6.26786899115421E-02 
2253	 6.20257627469779E-02 
2254	 6.14747573689685E-02 
2255	 0.062051670249117 
2256	 6.23113882578106E-02 
2257	 6.29408217102252E-02 
2258	 6.23023149586336E-02 
2259	 6.19730553245836E-02 
2260	 6.11032448774578E-02 
2261	 5.98119689546256E-02 
2262	 5.94319067228809E-02 
2263	 5.88919670586499E-02 
2264	 5.96335882025959E-02 
2265	 6.09334463872746E-02 
2266	 0.061309681100481 
2267	 6.19744073708462E-02 
2268	 6.11925228556283E-02 
2269	 5.93569994867469E-02 
2270	 5.90302480771628E-02 
2271	 5.89013931850112E-02 
2272	 0.058454576286572 
2273	 5.89560099342417E-02 
2274	 0.058605279769027 
2275	 0.057751979435454 
2276	 0.057705961243051 
2277	 5.72130948148822E-02 
2278	 5.63932741158963E-02 
2279	 5.54090180052461E-02 
2280	 5.42362015515656E-02 
2281	 5.34007922456465E-02 
2282	 5.34541676074368E-02 
2283	 5.38257215071941E-02 
2284	 5.41548381022205E-02 
2285	 5.46514567462241E-02 
2286	 5.48066400515509E-02 
2287	 5.46311304997674E-02 
2288	 0.054219451296386 
2289	 5.39108527975523E-02 
2290	 5.37255135537712E-02 
2291	 5.31074865188167E-02 
2292	 0.052260046921515 
2293	 5.22701591873183E-02 
2294	 5.18141131298916E-02 
2295	 5.14002147430917E-02 
2296	 0.053008523939576 
2297	 5.28320097577902E-02 
2298	 5.14690171475344E-02 
2299	 5.10522013303893E-02 
2300	 4.90620365769386E-02 
2301	 4.83005585361837E-02 
2302	 4.93144443701234E-02 
2303	 4.92965084257912E-02 
2304	 4.95019027642808E-02 
2305	 4.98943330378758E-02 
2306	 4.94464415179215E-02 
2307	 4.92183733566923E-02 
2308	 0.049133611120102 
2309	 4.81041203306982E-02 
2310	 4.69316638461916E-02 
2311	 4.71937638498455E-02 
2312	 4.73416020336137E-02 
2313	 4.72366767456995E-02 
2314	 4.87001091878961E-02 
2315	 4.92349040561719E-02 
2316	 4.97308137094576E-02 
2317	 5.22349551487512E-02 
2318	 5.27039449554169E-02 
2319	 0.051786881808642 
2320	 5.13679491950942E-02 
2321	 5.07736203056564E-02 
2322	 4.88001508093879E-02 
2323	 4.89708308101711E-02 
2324	 5.07237729012539E-02 
2325	 5.11696241380544E-02 
2326	 5.16519236303898E-02 
2327	 5.16107431164681E-02 
2328	 5.11057147839397E-02 
2329	 5.06382630647564E-02 
2330	 0.04993675171706 
2331	 0.050474483239904 
2332	 4.98881980774914E-02 
2333	 4.92541485557066E-02 
2334	 5.02265202121665E-02 
2335	 4.90065599589896E-02 
2336	 0.048717354935961 
2337	 4.87596228335691E-02 
2338	 4.70536820117277E-02 
2339	 4.73938230300265E-02 
2340	 4.82898974924046E-02 
2341	 4.85297600190404E-02 
2342	 4.91824590600578E-02 
2343	 4.93369316720164E-02 
2344	 4.75669892362479E-02 
2345	 4.64692646360983E-02 
2346	 4.57227078432767E-02 
2347	 4.45654813724312E-02 
2348	 4.47164310836913E-02 
2349	 4.44528628505751E-02 
2350	 0.045902671274642 
2351	 4.74451807458324E-02 
2352	 4.72676415031126E-02 
2353	 4.84440532306466E-02 
2354	 0.048355870590237 
2355	 0.047993434996037 
2356	 4.93652912367313E-02 
2357	 4.83796785268079E-02 
2358	 4.81540317166369E-02 
2359	 4.95169307056484E-02 
2360	 4.92340957716638E-02 
2361	 5.08647269559336E-02 
2362	 5.23260853009975E-02 
2363	 5.09641673655173E-02 
2364	 4.97277298256828E-02 
2365	 4.97039864203015E-02 
2366	 5.08106722196959E-02 
2367	 0.052856425775203 
2368	 5.47614440023555E-02 
2369	 0.055611305369929 
2370	 5.47299123494066E-02 
2371	 5.22942719341866E-02 
2372	 5.08431492914139E-02 
2373	 4.96456147812142E-02 
2374	 4.82947237310107E-02 
2375	 4.71411835800561E-02 
2376	 4.65501701036122E-02 
2377	 4.63910177468306E-02 
2378	 4.71304546923516E-02 
2379	 4.85923670993211E-02 
2380	 4.91913214239358E-02 
2381	 4.96336713405388E-02 
2382	 5.02978914548222E-02 
2383	 0.051407331575894 
2384	 0.051204133280028 
2385	 4.98777590948734E-02 
2386	 5.05923928970686E-02 
2387	 5.19120184014948E-02 
2388	 5.15165420928702E-02 
2389	 5.30312372432855E-02 
2390	 5.23486792825215E-02 
2391	 4.73002354488495E-02 
2392	 0.045621455032807 
2393	 4.49785777931686E-02 
2394	 4.32520092530805E-02 
2395	 4.19471361940969E-02 
2396	 4.16217616272527E-02 
2397	 4.08780689816779E-02 
2398	 4.27381077666677E-02 
2399	 4.76700907887983E-02 
2400	 5.07156929629388E-02 
2401	 5.48032145095818E-02 
2402	 0.056905438926671 
2403	 5.59668291462045E-02 
2404	 5.14791130703869E-02 
2405	 4.47954519733433E-02 
2406	 4.23313691558614E-02 
2407	 4.47831333773846E-02 
2408	 4.76226948487082E-02 
2409	 5.12586321747881E-02 
2410	 5.35952783405578E-02 
2411	 5.14185646206851E-02 
2412	 0.049127809143474 
2413	 4.73450045021107E-02 
2414	 4.47265351105091E-02 
2415	 4.30563702403594E-02 
2416	 4.17482060467199E-02 
2417	 4.25668351369968E-02 
2418	 4.68685070056211E-02 
2419	 0.049829165275822 
2420	 5.17456477130441E-02 
2421	 5.10345131844401E-02 
2422	 4.36085154022882E-02 
2423	 4.04746506977594E-02 
2424	 3.96103734227129E-02 
2425	 3.83735675762784E-02 
2426	 4.41998464725112E-02 
2427	 4.50377832519584E-02 
2428	 4.26308698681077E-02 
2429	 4.18129809822191E-02 
2430	 3.68061940558375E-02 
2431	 3.43504441455973E-02 
2432	 3.30201233441252E-02 
2433	 2.92423644909995E-02 
2434	 3.00866205683774E-02 
2435	 3.45613231091548E-02 
2436	 3.71070185418423E-02 
2437	 4.40538183719862E-02 
2438	 4.62762258577984E-02 
2439	 4.19195215481004E-02 
2440	 4.12381552908762E-02 
2441	 4.09421431220675E-02 
2442	 4.14165323894865E-02 
2443	 4.45724957650256E-02 
2444	 4.41917072198941E-02 
2445	 4.51373965558658E-02 
2446	 4.10324275443388E-02 
2447	 2.64016638453366E-02 
2448	 2.33585055704264E-02 
2449	 2.22088033870137E-02 
2450	 0.021236180426623 
2451	 3.44891242444118E-02 
2452	 3.68633082476807E-02 
2453	 2.79412940263767E-02 
2454	 2.73986466394087E-02 
2455	 2.77281923787871E-02 
2456	 2.82160059160784E-02 
2457	 3.42456455894517E-02 
2458	 3.43532051760182E-02 
2459	 3.10259281376259E-02 
2460	 2.89166388664053E-02 
2461	 2.16587787691915E-02 
2462	 2.35367141565328E-02 
2463	 3.16250840484385E-02 
2464	 3.35632309043186E-02 
2465	 4.05176828624563E-02 
2466	 3.96146517141849E-02 
2467	 0.029336381100322 
2468	 2.77776434158844E-02 
2469	 2.56228255199868E-02 
2470	 2.82546047193734E-02 
2471	 3.64451095340047E-02 
2472	 4.22679272231735E-02 
2473	 5.30150942167282E-02 
2474	 5.64142343975824E-02 
2475	 5.45071675456736E-02 
2476	 5.66305918690347E-02 
2477	 0.059056374328616 
2478	 5.76535134897478E-02 
2479	 5.52278505308914E-02 
2480	 5.70207081533824E-02 
2481	 5.02441934192917E-02 
2482	 5.31694164232054E-02 
2483	 7.74157916414614E-02 
2484	 8.30959787563207E-02 
2485	 7.24886759396483E-02 
2486	 5.47913986330601E-02 
2487	 0.055424030600805 
2488	 7.03527018123159E-02 
2489	 0.106656001731265 
2490	 0.14777234745076 
2491	 0.173570216498985 
2492	 0.152449019568471 
2493	 0.121547696993599 
2494	 7.39981458870818E-02 
2495	 5.5538504904567E-03 
2496	-1.13979857674991E-02 
2497	-2.20739415233445E-02 
2498	 8.55833886997982E-03 
2499	 9.02366431379364E-02 
2500	 0.109892298436004 
