Wavelength	ref00075.asd
350	 9.97504907131026E-02 
351	 9.97887005787043E-02 
352	 9.89791709987028E-02 
353	 0.100636419340904 
354	 9.98706577154659E-02 
355	 9.96477289483878E-02 
356	 0.101417917655739 
357	 0.100583212249311 
358	 0.100510888456833 
359	 0.101117297897125 
360	 0.101398013242342 
361	 0.101156840501865 
362	 0.101664610385337 
363	 0.102709693726763 
364	 0.103091970099466 
365	 0.10224987152681 
366	 0.102085190187962 
367	 0.103001894532125 
368	 0.102969868402906 
369	 0.103404779156155 
370	 0.103848003546947 
371	 0.103847749666765 
372	 0.104357265078785 
373	 0.104492934323612 
374	 0.104389692194579 
375	 0.104622406068081 
376	 0.104746234457292 
377	 0.104871716661043 
378	 0.105217293606883 
379	 0.106040857059173 
380	 0.106048704443164 
381	 0.105825714207314 
382	 0.106048041727429 
383	 0.106489655872977 
384	 0.106871644477194 
385	 0.107131224870627 
386	 0.107341279625628 
387	 0.107617960960051 
388	 0.108275470123483 
389	 0.10900138760208 
390	 0.108911514996075 
391	 0.108822292465663 
392	 0.109106861330631 
393	 0.109682619733167 
394	 0.109634851997658 
395	 0.109977722796899 
396	 0.110553619531954 
397	 0.11090848321226 
398	 0.111408566636959 
399	 0.111639776815387 
400	 0.111682751312057 
401	 0.112015378844534 
402	 0.112455824845628 
403	 0.112639730765964 
404	 0.11252156584275 
405	 0.112707407805026 
406	 0.113153567390235 
407	 0.11362061738308 
408	 0.113856259866472 
409	 0.114038010901661 
410	 0.114175959935016 
411	 0.114417471335518 
412	 0.114968680248285 
413	 0.115031601997529 
414	 0.115057036075391 
415	 0.115426034055866 
416	 0.115979950717189 
417	 0.116397803643743 
418	 0.116621148347233 
419	 0.116747841256442 
420	 0.117033182413602 
421	 0.117379710859955 
422	 0.117729147683399 
423	 0.118071457701211 
424	 0.118301775116382 
425	 0.118583505775581 
426	 0.11892292950935 
427	 0.118841365834685 
428	 0.119147232179047 
429	 0.119553016343351 
430	 0.119589009997957 
431	 0.120033778901623 
432	 0.120435371342373 
433	 0.120625558772783 
434	 0.120760173154029 
435	 0.121204908206394 
436	 0.121714730834113 
437	 0.122082247993527 
438	 0.122389087858993 
439	 0.122660179612478 
440	 0.122866137460469 
441	 0.123032998956587 
442	 0.123608606715625 
443	 0.124048230810455 
444	 0.124264793107367 
445	 0.124643353662528 
446	 0.125026164990681 
447	 0.125422364199745 
448	 0.125821932680029 
449	 0.126090639411622 
450	 0.12641662124201 
451	 0.126716315423282 
452	 0.126855848102589 
453	 0.127175459533285 
454	 0.127506826592664 
455	 0.127782937554773 
456	 0.128101362688053 
457	 0.128457287146765 
458	 0.128749088695798 
459	 0.12894207305177 
460	 0.129275985336807 
461	 0.129477968331032 
462	 0.129601708027604 
463	 0.129851439954187 
464	 0.130034892054705 
465	 0.130305627051008 
466	 0.130655190150921 
467	 0.130783028511253 
468	 0.130999607164976 
469	 0.131297241214348 
470	 0.13158531101297 
471	 0.131822799948125 
472	 0.132106542511036 
473	 0.132401759729075 
474	 0.13260026295019 
475	 0.132918388781664 
476	 0.133172290951193 
477	 0.133289945794705 
478	 0.133506390184923 
479	 0.133739912935685 
480	 0.134053494691516 
481	 0.134483295605908 
482	 0.134724992208851 
483	 0.134892476005501 
484	 0.135134016282253 
485	 0.135589222669407 
486	 0.135891000905087 
487	 0.136218830432745 
488	 0.136721215475877 
489	 0.137176646006935 
490	 0.137703237341085 
491	 0.138183354799774 
492	 0.138480611599648 
493	 0.138958214387665 
494	 0.139461598736128 
495	 0.139990742984101 
496	 0.140777105335838 
497	 0.14130142675069 
498	 0.141762696512561 
499	 0.142418820760452 
500	 0.143089799036203 
501	 0.14386347389059 
502	 0.144712295493143 
503	 0.145546289523732 
504	 0.146418930554315 
505	 0.14726094785842 
506	 0.148078516564151 
507	 0.14902310909027 
508	 0.149907419596098 
509	 0.150739524560654 
510	 0.151608149581726 
511	 0.152670865437096 
512	 0.153719022296885 
513	 0.154667310710997 
514	 0.155562346221341 
515	 0.15658239469044 
516	 0.157620547100539 
517	 0.158586666411714 
518	 0.159570155613895 
519	 0.160645381802244 
520	 0.161703253611554 
521	 0.162597995716247 
522	 0.163426080822441 
523	 0.16425491735611 
524	 0.165107407452992 
525	 0.165948581325845 
526	 0.166712208585301 
527	 0.167531034275557 
528	 0.168455361281141 
529	 0.169136747998704 
530	 0.169821435832693 
531	 0.17048965401648 
532	 0.171002464032189 
533	 0.171554023484498 
534	 0.172204627498383 
535	 0.17290918033945 
536	 0.173488136113191 
537	 0.174058571174205 
538	 0.174598685740536 
539	 0.175096794706104 
540	 0.175774272427877 
541	 0.176456040445052 
542	 0.177052253647473 
543	 0.177573854901453 
544	 0.178219872092914 
545	 0.17883145215596 
546	 0.179304305057634 
547	 0.179778744239341 
548	 0.180366013286838 
549	 0.180965015029036 
550	 0.181418787622607 
551	 0.181871666199119 
552	 0.182407132850141 
553	 0.182994000726243 
554	 0.183473521284161 
555	 0.184004050231491 
556	 0.184503683214283 
557	 0.184915891047168 
558	 0.185458085222795 
559	 0.18605828006435 
560	 0.186607748851984 
561	 0.187006311475807 
562	 0.187444031254693 
563	 0.187854625097052 
564	 0.188198207971439 
565	 0.188534508199369 
566	 0.188871946295198 
567	 0.189240107449291 
568	 0.189636982023201 
569	 0.189893596493697 
570	 0.190148362202516 
571	 0.190473060674326 
572	 0.190855609844693 
573	 0.191163047066534 
574	 0.191429079193213 
575	 0.191729156596077 
576	 0.192175701972179 
577	 0.192466690394344 
578	 0.192677946888534 
579	 0.193025566491375 
580	 0.19327809317534 
581	 0.19341287228824 
582	 0.19349559557514 
583	 0.193678368231952 
584	 0.193800121892929 
585	 0.193961981060297 
586	 0.194264494886643 
587	 0.194557484219679 
588	 0.194834838397466 
589	 0.195080751171974 
590	 0.195281707560473 
591	 0.19557760446076 
592	 0.195828074804029 
593	 0.195962307693353 
594	 0.196082141816261 
595	 0.196200175832303 
596	 0.196282393571981 
597	 0.196316725060851 
598	 0.19648803382517 
599	 0.19670336606028 
600	 0.196903682099998 
601	 0.197076325318283 
602	 0.197169584060606 
603	 0.197304241113976 
604	 0.197523833827737 
605	 0.197571197859592 
606	 0.197693208206165 
607	 0.197843917964488 
608	 0.197867140549198 
609	 0.197949328116714 
610	 0.198091087567037 
611	 0.198210236129912 
612	 0.198138904090862 
613	 0.198146295169988 
614	 0.198192173367812 
615	 0.198184475150377 
616	 0.198173053785776 
617	 0.19818507237544 
618	 0.198228047534213 
619	 0.198292336362516 
620	 0.198354270349284 
621	 0.198456002644197 
622	 0.198618164080836 
623	 0.198809121590247 
624	 0.19893429350563 
625	 0.199081430150176 
626	 0.199350772073925 
627	 0.199527257033527 
628	 0.199791315572325 
629	 0.200093285434831 
630	 0.200163097527007 
631	 0.200320096648802 
632	 0.200568679072576 
633	 0.200810285697548 
634	 0.200840409739067 
635	 0.200936171185728 
636	 0.201065717790633 
637	 0.201064150677978 
638	 0.200931578732679 
639	 0.200712726694882 
640	 0.200443139532481 
641	 0.200145546532829 
642	 0.199768547791783 
643	 0.199339398952777 
644	 0.198879745762036 
645	 0.198317054010956 
646	 0.19787816597765 
647	 0.197500437324285 
648	 0.196970999916533 
649	 0.19652039370999 
650	 0.196185282178825 
651	 0.195957298654595 
652	 0.195780522946422 
653	 0.195683855233798 
654	 0.195696724407826 
655	 0.195801322798211 
656	 0.195767284957221 
657	 0.195722422860718 
658	 0.195595071854287 
659	 0.195186855905883 
660	 0.194733272252412 
661	 0.194194386091574 
662	 0.193562115366128 
663	 0.192924510815706 
664	 0.192323613584997 
665	 0.191698245175762 
666	 0.190991585242895 
667	 0.190380601533254 
668	 0.189908285087457 
669	 0.189529252252007 
670	 0.189130516299548 
671	 0.188912102938942 
672	 0.188888739903767 
673	 0.188964102677691 
674	 0.188850148457728 
675	 0.188918791029913 
676	 0.189143055686466 
677	 0.189349728358121 
678	 0.189527701911048 
679	 0.189733068477467 
680	 0.189998267670696 
681	 0.190332181435884 
682	 0.190960707395093 
683	 0.191897251082016 
684	 0.193100249699076 
685	 0.19450273476532 
686	 0.196322714793453 
687	 0.198614943092704 
688	 0.201119308499334 
689	 0.203772707459419 
690	 0.206681957560928 
691	 0.209874649432679 
692	 0.213049073764017 
693	 0.216582632221714 
694	 0.220078453540465 
695	 0.223103455530153 
696	 0.225663734280521 
697	 0.228159993417671 
698	 0.230723156179878 
699	 0.23327401528601 
700	 0.235498710257282 
701	 0.237564217854615 
702	 0.23954564540891 
703	 0.241352720373829 
704	 0.24294717280751 
705	 0.244511582737617 
706	 0.246113684465085 
707	 0.247319300340149 
708	 0.248545868757725 
709	 0.249803977406488 
710	 0.250921922138217 
711	 0.251980496020192 
712	 0.252997116169024 
713	 0.254015286297702 
714	 0.255111466637114 
715	 0.25627497812018 
716	 0.257717664728037 
717	 0.259573874172876 
718	 0.26154311275928 
719	 0.262730484768151 
720	 0.263074139779435 
721	 0.263151254793957 
722	 0.26325033160625 
723	 0.263861164881661 
724	 0.265019849509354 
725	 0.266154404314843 
726	 0.266807867366084 
727	 0.267288337418491 
728	 0.267864800947923 
729	 0.268195641870191 
730	 0.268715645251904 
731	 0.269146883713666 
732	 0.269095861970844 
733	 0.269018719267755 
734	 0.269226011269946 
735	 0.269700692896406 
736	 0.270150259488131 
737	 0.270644368845461 
738	 0.271079329452136 
739	 0.2714197918925 
740	 0.271796989964718 
741	 0.272156382038776 
742	 0.272565508275255 
743	 0.273069071468425 
744	 0.27346863862794 
745	 0.273822932867727 
746	 0.274256093382541 
747	 0.274890235359144 
748	 0.275370268497382 
749	 0.27572882167867 
750	 0.276087800291558 
751	 0.276616785399124 
752	 0.277088139217086 
753	 0.277524380326374 
754	 0.277986644358346 
755	 0.278395845682887 
756	 0.27884286617422 
757	 0.27934155048981 
758	 0.279842145597234 
759	 0.280080460114258 
760	 0.280248228277945 
761	 0.280668102185049 
762	 0.28152647765309 
763	 0.282120801258993 
764	 0.282520650081629 
765	 0.282843642187336 
766	 0.283082230896519 
767	 0.283469227674438 
768	 0.283921090347683 
769	 0.284295796067623 
770	 0.284616898599845 
771	 0.285056014827432 
772	 0.285574870704029 
773	 0.285974952837216 
774	 0.286437803360511 
775	 0.28685100573885 
776	 0.287180889638489 
777	 0.2875999773253 
778	 0.288053044856972 
779	 0.288466727649991 
780	 0.288816071802847 
781	 0.289291716640597 
782	 0.28962997045652 
783	 0.289931798922248 
784	 0.290438299780481 
785	 0.290847454777639 
786	 0.291386922322321 
787	 0.292055325382395 
788	 0.292581603393483 
789	 0.293329236350216 
790	 0.293839411003999 
791	 0.29395729112459 
792	 0.294477051895026 
793	 0.294816136042872 
794	 0.295139503001855 
795	 0.295714427904739 
796	 0.296255125926134 
797	 0.296758433724372 
798	 0.297250038343931 
799	 0.29775530818523 
800	 0.298149058959747 
801	 0.298592518626877 
802	 0.299048305259082 
803	 0.299258739641615 
804	 0.29967471326917 
805	 0.300143690474286 
806	 0.300499726902332 
807	 0.300783480681353 
808	 0.301410473766874 
809	 0.302128872950576 
810	 0.302666294332907 
811	 0.303603756311671 
812	 0.30465324362931 
813	 0.305781528141881 
814	 0.307041574540817 
815	 0.307988399102621 
816	 0.308638635753361 
817	 0.309107778758187 
818	 0.309540461602129 
819	 0.309525344574565 
820	 0.309476543948242 
821	 0.309748285897126 
822	 0.310373435952949 
823	 0.31094737155213 
824	 0.311437677853558 
825	 0.311822988458374 
826	 0.311759527227776 
827	 0.311994259859641 
828	 0.312544362158871 
829	 0.313065097858182 
830	 0.313253562418971 
831	 0.313453265985845 
832	 0.313747027161371 
833	 0.313992023578521 
834	 0.31416503426648 
835	 0.31442697306928 
836	 0.314760861186748 
837	 0.314932984644977 
838	 0.315080090726275 
839	 0.315327421445136 
840	 0.315706538373925 
841	 0.316079352038635 
842	 0.316374437724797 
843	 0.316664451809255 
844	 0.317054018156204 
845	 0.317611563167673 
846	 0.317984369096981 
847	 0.318263125281081 
848	 0.318661135700274 
849	 0.318816439099905 
850	 0.319162486362294 
851	 0.319700350833297 
852	 0.320091407564636 
853	 0.320347158615275 
854	 0.320611663447464 
855	 0.32106611182874 
856	 0.321840559042811 
857	 0.322379316664651 
858	 0.32259257701383 
859	 0.322685613010443 
860	 0.323139537748937 
861	 0.323680805986065 
862	 0.3241652572093 
863	 0.324476611031795 
864	 0.324458110412203 
865	 0.324740963511119 
866	 0.325146452902467 
867	 0.325407469108144 
868	 0.326162179760419 
869	 0.326721514747356 
870	 0.327090449336028 
871	 0.327569488931726 
872	 0.327994013392235 
873	 0.328431500611748 
874	 0.328825672075128 
875	 0.329098390569311 
876	 0.329724522209752 
877	 0.330266483157543 
878	 0.33062949501943 
879	 0.331122432130608 
880	 0.33148236616403 
881	 0.332061081257226 
882	 0.332812019423406 
883	 0.333088910263876 
884	 0.333493536851386 
885	 0.333877231563928 
886	 0.334136601533761 
887	 0.334513446741289 
888	 0.335204905999564 
889	 0.3358840822964 
890	 0.336361067485853 
891	 0.337122269169614 
892	 0.338393009294111 
893	 0.33952405409416 
894	 0.340024026855146 
895	 0.341102114406068 
896	 0.341996659802871 
897	 0.342937842737577 
898	 0.344260107059208 
899	 0.344737117393082 
900	 0.345093732328196 
901	 0.345591192851028 
902	 0.346156757754892 
903	 0.346665076350386 
904	 0.346942699793877 
905	 0.347193730773481 
906	 0.347739921347448 
907	 0.347968960755435 
908	 0.348855365010577 
909	 0.350148205072542 
910	 0.350639978117662 
911	 0.35125711676689 
912	 0.352035377863157 
913	 0.352616710112997 
914	 0.352541727473628 
915	 0.35318232761777 
916	 0.353413271668133 
917	 0.353202454290653 
918	 0.353902638238393 
919	 0.353922742487969 
920	 0.353807655451227 
921	 0.354042781539429 
922	 0.354587408786945 
923	 0.355298754864839 
924	 0.355916505176821 
925	 0.356544691576733 
926	 0.357835429518013 
927	 0.359337820436193 
928	 0.360888201374862 
929	 0.36231102110883 
930	 0.363338160061943 
931	 0.365672901277977 
932	 0.36810164878623 
933	 0.369628524413205 
934	 0.371907596372559 
935	 0.374282787184521 
936	 0.37560640322202 
937	 0.375623265382118 
938	 0.375830032396774 
939	 0.37581809811886 
940	 0.375952285228183 
941	 0.375997458489764 
942	 0.374389201142731 
943	 0.374646592445353 
944	 0.375106363970977 
945	 0.374615557207864 
946	 0.376018037212526 
947	 0.377145782996406 
948	 0.377415490653617 
949	 0.377399061010757 
950	 0.37898172935117 
951	 0.378269260228642 
952	 0.377870546637507 
953	 0.379301357967492 
954	 0.378529219068752 
955	 0.378046779154308 
956	 0.378659638201793 
957	 0.379498031679016 
958	 0.377523658448832 
959	 0.377186901746513 
960	 0.377784493842577 
961	 0.377937669950466 
962	 0.377528409963583 
963	 0.377001476261797 
964	 0.376445411240542 
965	 0.375982511898087 
966	 0.375902200130348 
967	 0.376940881576204 
968	 0.376854794223102 
969	 0.375073060544792 
970	 0.374411854809565 
971	 0.374975041322763 
972	 0.374923602722755 
973	 0.373896928637353 
974	 0.374116618748733 
975	 0.374642128921873 
976	 0.375270199278061 
977	 0.375777965595482 
978	 0.375911564417422 
979	 0.376707708418187 
980	 0.376640194415778 
981	 0.375762589096811 
982	 0.376052719622482 
983	 0.377071875719959 
984	 0.377411362514665 
985	 0.376690222650009 
986	 0.375795469202788 
987	 0.376281948581622 
988	 0.376152328513326 
989	 0.375971626871446 
990	 0.377865601086849 
991	 0.37923815138618 
992	 0.37792994872419 
993	 0.376494078783266 
994	 0.37859427352185 
995	 0.378060688331342 
996	 0.378141907112207 
997	 0.378844579054653 
998	 0.378867753782099 
999	 0.379749139153544 
1000	 0.379267098597122 
1001	 0.375264984936677 
1002	 0.375612745743781 
1003	 0.375959159594149 
1004	 0.376252069397755 
1005	 0.376514166554695 
1006	 0.376872644101785 
1007	 0.377162373054804 
1008	 0.377359925665859 
1009	 0.377588340758349 
1010	 0.377820681887342 
1011	 0.378085225042972 
1012	 0.378319381153635 
1013	 0.378628634393124 
1014	 0.379075634489573 
1015	 0.379283527698493 
1016	 0.379451135885819 
1017	 0.379780938606141 
1018	 0.380133600300738 
1019	 0.380593158859319 
1020	 0.380918041078461 
1021	 0.381302610709782 
1022	 0.381602656581373 
1023	 0.381714612315152 
1024	 0.381953589467782 
1025	 0.382458280422354 
1026	 0.382749411487044 
1027	 0.383097315964532 
1028	 0.383441127821441 
1029	 0.383550069228223 
1030	 0.383698872958102 
1031	 0.384063646093985 
1032	 0.384423909773943 
1033	 0.384761138965462 
1034	 0.385271937827449 
1035	 0.385589910719311 
1036	 0.385623179682035 
1037	 0.38598778617251 
1038	 0.386510024311045 
1039	 0.386957989513007 
1040	 0.387402379827597 
1041	 0.387775598571048 
1042	 0.388103968452204 
1043	 0.388348455131653 
1044	 0.388681581730437 
1045	 0.389166040586477 
1046	 0.389529201719313 
1047	 0.389851304579825 
1048	 0.390160402530697 
1049	 0.390333034541106 
1050	 0.390535038142824 
1051	 0.390695445210802 
1052	 0.390850652600436 
1053	 0.390996941957063 
1054	 0.391324951300142 
1055	 0.391638581633974 
1056	 0.391927893753529 
1057	 0.392235585920518 
1058	 0.392409213520208 
1059	 0.392612925445813 
1060	 0.39286863441252 
1061	 0.393088107221813 
1062	 0.393255767138319 
1063	 0.393384140892312 
1064	 0.393483581928492 
1065	 0.393639180118591 
1066	 0.393804419283627 
1067	 0.394128003356709 
1068	 0.394430894143418 
1069	 0.394659785100401 
1070	 0.395005189187748 
1071	 0.395269132394423 
1072	 0.395451051883977 
1073	 0.395739030121748 
1074	 0.395910434627988 
1075	 0.396040455007619 
1076	 0.396277375630679 
1077	 0.396579902645748 
1078	 0.396881905976303 
1079	 0.397088704889851 
1080	 0.397301915586538 
1081	 0.397559658884039 
1082	 0.397763474392658 
1083	 0.398016731920485 
1084	 0.398419175233202 
1085	 0.398857502081152 
1086	 0.399269576824165 
1087	 0.399608347794006 
1088	 0.399978608565798 
1089	 0.400329521434936 
1090	 0.40058319040293 
1091	 0.400989871432906 
1092	 0.401554702616355 
1093	 0.402092985071044 
1094	 0.402662683102244 
1095	 0.403245613332564 
1096	 0.403851164367255 
1097	 0.404400746979412 
1098	 0.405037470054461 
1099	 0.405776113070861 
1100	 0.406509810520551 
1101	 0.407088958625059 
1102	 0.407638106636177 
1103	 0.408334994123608 
1104	 0.409086475523142 
1105	 0.409932871366604 
1106	 0.41089130280871 
1107	 0.411859374790055 
1108	 0.412939907188356 
1109	 0.414106509083879 
1110	 0.415314203288809 
1111	 0.416720268334439 
1112	 0.418344604349387 
1113	 0.419991199490285 
1114	 0.421962621380685 
1115	 0.423964777229004 
1116	 0.426011589108983 
1117	 0.428239435366338 
1118	 0.430756231931121 
1119	 0.433243712578241 
1120	 0.435680413596388 
1121	 0.437851898120319 
1122	 0.439414007827745 
1123	 0.440907884742882 
1124	 0.442251756237993 
1125	 0.443164755248885 
1126	 0.443748059974909 
1127	 0.444024476446812 
1128	 0.443924749993092 
1129	 0.443190948172569 
1130	 0.442764497596052 
1131	 0.442157498832206 
1132	 0.441783345076695 
1133	 0.441577926652117 
1134	 0.441228833868977 
1135	 0.440961773181277 
1136	 0.440872517924917 
1137	 0.440782123881084 
1138	 0.44068276285586 
1139	 0.440683048361175 
1140	 0.440946540125835 
1141	 0.441359308032088 
1142	 0.441868277937663 
1143	 0.442419818864863 
1144	 0.443289732170311 
1145	 0.44367713265002 
1146	 0.443918869218165 
1147	 0.44410371598272 
1148	 0.444226436569957 
1149	 0.444044413945492 
1150	 0.443771640528294 
1151	 0.443242236854602 
1152	 0.442471354884607 
1153	 0.441460550978948 
1154	 0.440462218220801 
1155	 0.439611628973747 
1156	 0.43872181880807 
1157	 0.437878273412604 
1158	 0.437143501507587 
1159	 0.436378078053818 
1160	 0.435665026335512 
1161	 0.434936319021901 
1162	 0.434347969394851 
1163	 0.433721736840413 
1164	 0.433346437625814 
1165	 0.433157056181268 
1166	 0.432964206964605 
1167	 0.432893107497006 
1168	 0.432808940673193 
1169	 0.43275215137258 
1170	 0.432682730146512 
1171	 0.432612710951222 
1172	 0.432710984496213 
1173	 0.432773385532859 
1174	 0.432881942216064 
1175	 0.433105031052813 
1176	 0.433232281786427 
1177	 0.433411706728454 
1178	 0.433600578114504 
1179	 0.433826682805447 
1180	 0.434109811475139 
1181	 0.434362208655889 
1182	 0.434670101694112 
1183	 0.43488706346019 
1184	 0.435003376290323 
1185	 0.435178168765497 
1186	 0.435371058421395 
1187	 0.435510067019496 
1188	 0.435652800062499 
1189	 0.435763507220395 
1190	 0.435844558002546 
1191	 0.435968217276161 
1192	 0.436111454902947 
1193	 0.436245097921326 
1194	 0.436377360826563 
1195	 0.436465707762219 
1196	 0.436607903909392 
1197	 0.436812169569551 
1198	 0.43696007149597 
1199	 0.437066102787851 
1200	 0.437242200610022 
1201	 0.437423058154597 
1202	 0.437628096042384 
1203	 0.437955242803669 
1204	 0.438149282342556 
1205	 0.438257969495023 
1206	 0.438386396804756 
1207	 0.438458861252387 
1208	 0.438552517627325 
1209	 0.43864679895342 
1210	 0.438758421155931 
1211	 0.438982783631161 
1212	 0.439110378016211 
1213	 0.439213658851833 
1214	 0.439335809045816 
1215	 0.439441145678591 
1216	 0.439430203708021 
1217	 0.439555751298244 
1218	 0.43979593689911 
1219	 0.439942030265827 
1220	 0.440095629400417 
1221	 0.440216262288769 
1222	 0.440313809742808 
1223	 0.440372015448259 
1224	 0.440344435998246 
1225	 0.440419292655162 
1226	 0.440512762090013 
1227	 0.440593109773463 
1228	 0.440760320593924 
1229	 0.440888732973836 
1230	 0.440896142475975 
1231	 0.440937787330162 
1232	 0.44096862153614 
1233	 0.440919400100754 
1234	 0.441069766555769 
1235	 0.441330863536864 
1236	 0.441526568593719 
1237	 0.441824199397531 
1238	 0.442061938098547 
1239	 0.442221637781574 
1240	 0.442421104337798 
1241	 0.442668678381264 
1242	 0.442897453258538 
1243	 0.443083336574673 
1244	 0.44330800213413 
1245	 0.443612324665811 
1246	 0.443834851836404 
1247	 0.444005740275817 
1248	 0.444201232929099 
1249	 0.444326772688316 
1250	 0.444517057757713 
1251	 0.444776899655796 
1252	 0.445030281096937 
1253	 0.445282817899282 
1254	 0.445564250844716 
1255	 0.445815122576975 
1256	 0.446048721653643 
1257	 0.446293534383319 
1258	 0.446508357049245 
1259	 0.446805350258574 
1260	 0.447175647456978 
1261	 0.447478435922698 
1262	 0.44777286596308 
1263	 0.448119007741322 
1264	 0.448441133276856 
1265	 0.448784390921784 
1266	 0.449237594673205 
1267	 0.449606833285712 
1268	 0.449917682059422 
1269	 0.450206163226493 
1270	 0.450464271132517 
1271	 0.450693975986465 
1272	 0.450855101150051 
1273	 0.451052187992647 
1274	 0.451191725308683 
1275	 0.451298518209263 
1276	 0.451413809461063 
1277	 0.451506965787048 
1278	 0.451595181320028 
1279	 0.451688042978084 
1280	 0.451759077835218 
1281	 0.4517466886503 
1282	 0.451874378604133 
1283	 0.452085679441051 
1284	 0.452243454469191 
1285	 0.452492774076195 
1286	 0.452645696601449 
1287	 0.452666784442868 
1288	 0.452786530268964 
1289	 0.45289026852101 
1290	 0.453073565237042 
1291	 0.453367867681361 
1292	 0.453616467298048 
1293	 0.453886279536707 
1294	 0.454163341346169 
1295	 0.454354997668877 
1296	 0.454678629643567 
1297	 0.455016720102172 
1298	 0.455424238743371 
1299	 0.455786344050358 
1300	 0.456184608381849 
1301	 0.456551366643966 
1302	 0.456898470116589 
1303	 0.457234258590757 
1304	 0.457539027620269 
1305	 0.45790943294959 
1306	 0.458213900999639 
1307	 0.458698112281489 
1308	 0.459396628605801 
1309	 0.459943088883502 
1310	 0.460558662973374 
1311	 0.461076686523151 
1312	 0.461375523818077 
1313	 0.461855816019693 
1314	 0.462452732269957 
1315	 0.462980535706795 
1316	 0.463532533790347 
1317	 0.464101526166087 
1318	 0.464579442043418 
1319	 0.465143527123631 
1320	 0.465781314608472 
1321	 0.466494630714281 
1322	 0.467201232543416 
1323	 0.46794070244864 
1324	 0.468748868750799 
1325	 0.469581484792697 
1326	 0.470555671391334 
1327	 0.471745931019608 
1328	 0.472747851380429 
1329	 0.47381364659837 
1330	 0.47477619467624 
1331	 0.475562963639994 
1332	 0.476426748575514 
1333	 0.477341375694182 
1334	 0.478115022342356 
1335	 0.478790264542887 
1336	 0.479447882410593 
1337	 0.479810043434938 
1338	 0.480574302666073 
1339	 0.481563209706596 
1340	 0.482622043338437 
1341	 0.484092697825507 
1342	 0.485633819609765 
1343	 0.487519557505987 
1344	 0.489499908211088 
1345	 0.49192183009367 
1346	 0.494795508984301 
1347	 0.498172096610736 
1348	 0.501901697233785 
1349	 0.506161992065017 
1350	 0.511743719587536 
1351	 0.517515030582214 
1352	 0.523749078386827 
1353	 0.531251896875971 
1354	 0.538301751619025 
1355	 0.548613750201734 
1356	 0.557910666358275 
1357	 0.572060868302679 
1358	 0.582815096352802 
1359	 0.603097121480022 
1360	 0.613281136494456 
1361	 0.637282589094855 
1362	 0.647336900843535 
1363	 0.674096391656127 
1364	 0.684696569190012 
1365	 0.698376520664181 
1366	 0.703493559263991 
1367	 0.708009030011765 
1368	 0.703497453588183 
1369	 0.700536525194951 
1370	 0.696268708368777 
1371	 0.695722326133159 
1372	 0.697195061557046 
1373	 0.695304040239487 
1374	 0.693227262880218 
1375	 0.693672396506891 
1376	 0.682374628166449 
1377	 0.67569422515678 
1378	 0.675642609100134 
1379	 0.678303392035629 
1380	 0.679753110761782 
1381	 0.689669480155807 
1382	 0.690223655446543 
1383	 0.683504706603644 
1384	 0.681550841269669 
1385	 0.679830923810243 
1386	 0.678752433774014 
1387	 0.680003727940402 
1388	 0.678131217273629 
1389	 0.676513983505195 
1390	 0.672355478743838 
1391	 0.666457780415115 
1392	 0.660491714722282 
1393	 0.653577618770846 
1394	 0.646836790360174 
1395	 0.639755798807674 
1396	 0.632852245281011 
1397	 0.624877249635521 
1398	 0.619212697842766 
1399	 0.613367916678342 
1400	 0.609736221137237 
1401	 0.610164892687955 
1402	 0.607297542358636 
1403	 0.605215260664923 
1404	 0.601180468936397 
1405	 0.595603712930574 
1406	 0.589404835604931 
1407	 0.583539473108065 
1408	 0.578140932977307 
1409	 0.572604346355102 
1410	 0.566159629958 
1411	 0.561080570994025 
1412	 0.556487442154194 
1413	 0.551772344887317 
1414	 0.547632645707228 
1415	 0.543452634746554 
1416	 0.539009564544971 
1417	 0.535196515384599 
1418	 0.531964219312871 
1419	 0.528292275639507 
1420	 0.524459248761727 
1421	 0.521227684196272 
1422	 0.517870508136625 
1423	 0.515144914787586 
1424	 0.51274275992777 
1425	 0.510659511585905 
1426	 0.50879975434305 
1427	 0.507039546335044 
1428	 0.505218114656549 
1429	 0.503953616425965 
1430	 0.502754090707108 
1431	 0.501923650070791 
1432	 0.501840187318018 
1433	 0.50141569899293 
1434	 0.500927939625376 
1435	 0.500556472399802 
1436	 0.500324826775253 
1437	 0.499836697286529 
1438	 0.499603932513477 
1439	 0.498856812057022 
1440	 0.497662793145206 
1441	 0.496475215404728 
1442	 0.495113101335883 
1443	 0.493680427571192 
1444	 0.49236340942212 
1445	 0.491046993581224 
1446	 0.489420155768245 
1447	 0.487787395283128 
1448	 0.486158978875033 
1449	 0.484412879129033 
1450	 0.482821478161153 
1451	 0.481275373692824 
1452	 0.479970637912595 
1453	 0.478720246352432 
1454	 0.477644079515947 
1455	 0.476666099065345 
1456	 0.475896339412634 
1457	 0.475046250431123 
1458	 0.474667039186493 
1459	 0.474526509199273 
1460	 0.474631598339974 
1461	 0.47509227215102 
1462	 0.475609723264457 
1463	 0.47641685845438 
1464	 0.477232510439826 
1465	 0.478415090226354 
1466	 0.47921579707209 
1467	 0.479963499646612 
1468	 0.480543854248452 
1469	 0.480755787376828 
1470	 0.481013313159325 
1471	 0.481363531187128 
1472	 0.481345421684769 
1473	 0.481064445891248 
1474	 0.480721167402688 
1475	 0.480096604651238 
1476	 0.47953648377666 
1477	 0.478979771495001 
1478	 0.478384104558778 
1479	 0.477724560837553 
1480	 0.477098642398996 
1481	 0.476600874612249 
1482	 0.47590741930518 
1483	 0.475133799487016 
1484	 0.474347496266533 
1485	 0.473472719209161 
1486	 0.47256754006715 
1487	 0.471687832779962 
1488	 0.470761355921062 
1489	 0.469831748864684 
1490	 0.468905726803011 
1491	 0.468088438243102 
1492	 0.467415058941012 
1493	 0.466710134171513 
1494	 0.466041278690887 
1495	 0.465528536361696 
1496	 0.46503442132436 
1497	 0.464722997940481 
1498	 0.464606571396758 
1499	 0.464385114188702 
1500	 0.464170859855983 
1501	 0.464082909513059 
1502	 0.463984336550112 
1503	 0.464029862464218 
1504	 0.464301622292943 
1505	 0.464365580165023 
1506	 0.46442742031904 
1507	 0.464416997737634 
1508	 0.464240447233228 
1509	 0.464259002262761 
1510	 0.464347695613466 
1511	 0.464398311695078 
1512	 0.464528578328642 
1513	 0.464615139180155 
1514	 0.464666201308527 
1515	 0.464698872196403 
1516	 0.464732930917218 
1517	 0.464770587541781 
1518	 0.464768824642855 
1519	 0.464769328210521 
1520	 0.464772751767848 
1521	 0.464817047662985 
1522	 0.464857126861878 
1523	 0.464908298842563 
1524	 0.465021186686224 
1525	 0.46510082375218 
1526	 0.465107842465692 
1527	 0.465214514944245 
1528	 0.465410633402388 
1529	 0.465544920901035 
1530	 0.465710790487255 
1531	 0.465838574186844 
1532	 0.465872531401474 
1533	 0.465992005684611 
1534	 0.466146048195136 
1535	 0.466313343742284 
1536	 0.466521069874958 
1537	 0.466734780517074 
1538	 0.466967586705948 
1539	 0.467198940142534 
1540	 0.467452951476131 
1541	 0.467696806813054 
1542	 0.467965312521719 
1543	 0.468175941618123 
1544	 0.46836506605786 
1545	 0.468528538566439 
1546	 0.468572812443562 
1547	 0.46872435311379 
1548	 0.468895303403276 
1549	 0.469120541444764 
1550	 0.469494368648456 
1551	 0.469783366974529 
1552	 0.470054652359412 
1553	 0.470323694707493 
1554	 0.47055958237344 
1555	 0.470780010454222 
1556	 0.470973274960104 
1557	 0.471201019350068 
1558	 0.471412594797461 
1559	 0.471650226162916 
1560	 0.471994631611598 
1561	 0.472250168979946 
1562	 0.472477998753466 
1563	 0.472658184338021 
1564	 0.472724804642608 
1565	 0.47283118860118 
1566	 0.472901722635769 
1567	 0.473041045994498 
1568	 0.473178146007518 
1569	 0.473340769433832 
1570	 0.473531307882832 
1571	 0.47373937334346 
1572	 0.47397345306038 
1573	 0.474248250030145 
1574	 0.474516798665339 
1575	 0.474852966283713 
1576	 0.474977551809078 
1577	 0.474982804850833 
1578	 0.475139864717268 
1579	 0.475180615283763 
1580	 0.47542669439563 
1581	 0.475916867143949 
1582	 0.476178867361646 
1583	 0.476369476714623 
1584	 0.476633807995913 
1585	 0.476855794156524 
1586	 0.477149955107108 
1587	 0.477551761089125 
1588	 0.477825632084693 
1589	 0.478031936836356 
1590	 0.47833167549816 
1591	 0.478609676658058 
1592	 0.478944945331056 
1593	 0.479390328430545 
1594	 0.479733691269429 
1595	 0.480049703683876 
1596	 0.480356231071923 
1597	 0.480644979369682 
1598	 0.480903340345634 
1599	 0.481140407280764 
1600	 0.481353125011954 
1601	 0.481510565522671 
1602	 0.481728198073259 
1603	 0.481938264757252 
1604	 0.482198867933528 
1605	 0.482523477307392 
1606	 0.482799105273151 
1607	 0.483043122998526 
1608	 0.483380859059481 
1609	 0.483810376830164 
1610	 0.484036110640141 
1611	 0.484206483259225 
1612	 0.484444366888733 
1613	 0.484547242786004 
1614	 0.484765985512953 
1615	 0.485184159734622 
1616	 0.485384388829884 
1617	 0.485396731977365 
1618	 0.485636466740364 
1619	 0.485915659332882 
1620	 0.486207959656421 
1621	 0.486690057397391 
1622	 0.486915679802093 
1623	 0.486979889229579 
1624	 0.487158249999638 
1625	 0.487273742317389 
1626	 0.487467706323833 
1627	 0.487724758787638 
1628	 0.488015755369502 
1629	 0.488329262762039 
1630	 0.488649350052805 
1631	 0.489115481751996 
1632	 0.489332454126155 
1633	 0.489413031408368 
1634	 0.48954111354438 
1635	 0.489501834584646 
1636	 0.489705719449353 
1637	 0.490116304727088 
1638	 0.490272165900343 
1639	 0.490442499572626 
1640	 0.490478397965063 
1641	 0.490248316903899 
1642	 0.490280365686211 
1643	 0.490351471338014 
1644	 0.490529231637764 
1645	 0.490888992310687 
1646	 0.491027541473825 
1647	 0.491184928495399 
1648	 0.491224143973132 
1649	 0.491071564574594 
1650	 0.491061671084686 
1651	 0.491083682302611 
1652	 0.491079276888479 
1653	 0.491074237705931 
1654	 0.491111171497555 
1655	 0.491135260672445 
1656	 0.491192792920976 
1657	 0.491371902230672 
1658	 0.491193130779107 
1659	 0.491086198715209 
1660	 0.490939562462261 
1661	 0.490779129421853 
1662	 0.490891610756156 
1663	 0.491083094954071 
1664	 0.491142257450721 
1665	 0.491011303085649 
1666	 0.49090767588944 
1667	 0.490743433857904 
1668	 0.4905549654729 
1669	 0.49058377802112 
1670	 0.490534726254823 
1671	 0.490466613105776 
1672	 0.490392980572681 
1673	 0.49033503030967 
1674	 0.490484666553307 
1675	 0.490485625773747 
1676	 0.490536901229013 
1677	 0.490713897885063 
1678	 0.490668007423807 
1679	 0.490617946787146 
1680	 0.490691196595296 
1681	 0.490878375541103 
1682	 0.490998228414445 
1683	 0.491022610200476 
1684	 0.491005047748816 
1685	 0.490918984086228 
1686	 0.490962692444704 
1687	 0.49107811346808 
1688	 0.491276852426313 
1689	 0.491358698617639 
1690	 0.491384628234884 
1691	 0.49141387391959 
1692	 0.49134127137074 
1693	 0.49131161540724 
1694	 0.491276236620763 
1695	 0.491263539646566 
1696	 0.491381496387156 
1697	 0.491355355061099 
1698	 0.491194481577226 
1699	 0.491129551859579 
1700	 0.491052249057358 
1701	 0.490938699533126 
1702	 0.490838848112529 
1703	 0.490789879330707 
1704	 0.490646431645597 
1705	 0.490631106283078 
1706	 0.490852026656339 
1707	 0.490931024469186 
1708	 0.490949294180975 
1709	 0.490990242062131 
1710	 0.490966820761035 
1711	 0.490984915975417 
1712	 0.491092732987632 
1713	 0.49114097305025 
1714	 0.491158433876669 
1715	 0.49116840365237 
1716	 0.491088213915847 
1717	 0.491158968838323 
1718	 0.491285249043281 
1719	 0.491427639884868 
1720	 0.491758543458182 
1721	 0.491859368300026 
1722	 0.491780837336146 
1723	 0.491910856941695 
1724	 0.492067597698067 
1725	 0.492163425232773 
1726	 0.49237755664943 
1727	 0.49248530735313 
1728	 0.49243326350002 
1729	 0.492527109049192 
1730	 0.492642950146631 
1731	 0.492871305071419 
1732	 0.493040846058732 
1733	 0.493166637837705 
1734	 0.493508452697868 
1735	 0.493987856618124 
1736	 0.494437686269252 
1737	 0.494648334208853 
1738	 0.494964425907903 
1739	 0.495290432269764 
1740	 0.495409680712767 
1741	 0.495507659808363 
1742	 0.495589587815172 
1743	 0.495576718339395 
1744	 0.495539628359734 
1745	 0.495767215148937 
1746	 0.496068141869863 
1747	 0.496132047491545 
1748	 0.495914070160263 
1749	 0.495770828673723 
1750	 0.495996155846771 
1751	 0.49611322390333 
1752	 0.496491896146049 
1753	 0.496970848806462 
1754	 0.496981888093417 
1755	 0.497095805383648 
1756	 0.49729650922363 
1757	 0.497651207242725 
1758	 0.498147303408539 
1759	 0.498963012090287 
1760	 0.499556890289148 
1761	 0.50017734243808 
1762	 0.500670749668205 
1763	 0.500977566348843 
1764	 0.501413353828134 
1765	 0.50173789082616 
1766	 0.502222122885072 
1767	 0.502860790451426 
1768	 0.503340886305345 
1769	 0.503835882602828 
1770	 0.504381238316666 
1771	 0.504848188081747 
1772	 0.505589336243559 
1773	 0.50654664777426 
1774	 0.507375630133242 
1775	 0.508246843665388 
1776	 0.508770912487504 
1777	 0.509554750638071 
1778	 0.510422007275754 
1779	 0.510958717070549 
1780	 0.511385991837026 
1781	 0.51210657092412 
1782	 0.512905047129112 
1783	 0.513257487619804 
1784	 0.514104054085869 
1785	 0.515129463892145 
1786	 0.515702601908376 
1787	 0.517149120822329 
1788	 0.519022611343749 
1789	 0.520303653909668 
1790	 0.52193355567005 
1791	 0.523569330256785 
1792	 0.524545956771414 
1793	 0.525602440052555 
1794	 0.527562207019812 
1795	 0.530374344364668 
1796	 0.533102206090657 
1797	 0.536242410823571 
1798	 0.539830654649887 
1799	 0.542524912443302 
1800	 0.54543756515362 
1801	 0.534532241460993 
1802	 0.54063168818902 
1803	 0.544548021636037 
1804	 0.548232033064207 
1805	 0.551815417264802 
1806	 0.554572399608918 
1807	 0.557581899399929 
1808	 0.560408976194596 
1809	 0.562551358978312 
1810	 0.566164448083975 
1811	 0.570810756374448 
1812	 0.574128370314522 
1813	 0.577350979468866 
1814	 0.581302055067504 
1815	 0.582879052860998 
1816	 0.587278020382566 
1817	 0.597169609045955 
1818	 0.604022629669025 
1819	 0.610214768922104 
1820	 0.616059076425107 
1821	 0.621275177344878 
1822	 0.623263459015947 
1823	 0.625733072410616 
1824	 0.624680586906788 
1825	 0.628657981809164 
1826	 0.635115685372295 
1827	 0.64208597028555 
1828	 0.652480627699912 
1829	 0.679869007855927 
1830	 0.690522458098403 
1831	 0.68017544800154 
1832	 0.686587445472899 
1833	 0.682010501364251 
1834	 0.68846590500079 
1835	 0.730993567491597 
1836	 0.764572445098261 
1837	 0.79604878007057 
1838	 0.803046228898652 
1839	 0.787390079431807 
1840	 0.739248256450002 
1841	 0.707050817169275 
1842	 0.63772122674152 
1843	 0.620695700901613 
1844	 0.642565295652535 
1845	 0.644073083806288 
1846	 0.651414927173825 
1847	 0.659965776850375 
1848	 0.667477191383988 
1849	 0.661173156732423 
1850	 0.677110713502978 
1851	 0.69500025365134 
1852	 0.740020030676669 
1853	 0.858595928103723 
1854	 0.900157908513835 
1855	 0.951653369895067 
1856	 0.937436921679332 
1857	 0.821172082706127 
1858	 0.751743931174713 
1859	 0.731868302385038 
1860	 0.723179713675576 
1861	 0.720528655131394 
1862	 0.755749800848907 
1863	 0.763680717763915 
1864	 0.761228819461053 
1865	 0.754405191372454 
1866	 0.717533680419926 
1867	 0.732591698755651 
1868	 0.752972108160701 
1869	 0.718318757078286 
1870	 0.72359084082864 
1871	 0.759098484570194 
1872	 0.773924351390646 
1873	 0.792853273515582 
1874	 0.796600894578572 
1875	 0.803164430858019 
1876	 0.787360590698579 
1877	 0.75885141580068 
1878	 0.731946081595637 
1879	 0.724551522163856 
1880	 0.71030115493816 
1881	 0.705488693863924 
1882	 0.714107409585346 
1883	 0.709889525923318 
1884	 0.700441578340123 
1885	 0.69497761851688 
1886	 0.69117373915037 
1887	 0.678172948734687 
1888	 0.673073591339049 
1889	 0.673466108293153 
1890	 0.668777748675653 
1891	 0.661475710478473 
1892	 0.660507894742218 
1893	 0.659233604859151 
1894	 0.65725841553765 
1895	 0.660326464496297 
1896	 0.663145287652834 
1897	 0.664406824839761 
1898	 0.66812262122672 
1899	 0.679825233933111 
1900	 0.687680987054103 
1901	 0.684066886480148 
1902	 0.664566092754087 
1903	 0.649255960961772 
1904	 0.601521333046833 
1905	 0.594731859489669 
1906	 0.625708210198938 
1907	 0.645662237559236 
1908	 0.636158827752398 
1909	 0.626616225378806 
1910	 0.613200341398951 
1911	 0.589849461930357 
1912	 0.579833187741529 
1913	 0.589294962008161 
1914	 0.579326170692743 
1915	 0.560389492023861 
1916	 0.550091904776659 
1917	 0.540594915648361 
1918	 0.533875565457121 
1919	 0.525625719016013 
1920	 0.520553645872444 
1921	 0.519917683012831 
1922	 0.518869397166446 
1923	 0.516452265096933 
1924	 0.517000689272982 
1925	 0.513733122948394 
1926	 0.506008568452889 
1927	 0.502122282045289 
1928	 0.499300346698818 
1929	 0.495142932011584 
1930	 0.494673361134065 
1931	 0.490127970752782 
1932	 0.486459948759485 
1933	 0.483636821567713 
1934	 0.47935808696661 
1935	 0.474470294982468 
1936	 0.471851759412669 
1937	 0.468322573837006 
1938	 0.466767083950176 
1939	 0.468116350354874 
1940	 0.467122077163097 
1941	 0.464257479346377 
1942	 0.46227833442769 
1943	 0.459498472884183 
1944	 0.456491506272136 
1945	 0.455294054844349 
1946	 0.455511018960304 
1947	 0.454856300042459 
1948	 0.454780625332405 
1949	 0.453788849146771 
1950	 0.452727184330207 
1951	 0.449506159147722 
1952	 0.447402841352997 
1953	 0.446290563708266 
1954	 0.445392331447249 
1955	 0.447727126522764 
1956	 0.44889733949805 
1957	 0.448046903496372 
1958	 0.448133314621377 
1959	 0.448602519836334 
1960	 0.447448056172648 
1961	 0.445611279655344 
1962	 0.445150086864674 
1963	 0.443298350878971 
1964	 0.441058920928909 
1965	 0.440183553373658 
1966	 0.439657081221287 
1967	 0.439260490991164 
1968	 0.439259235890345 
1969	 0.438986575890777 
1970	 0.438359669118752 
1971	 0.438511727768633 
1972	 0.438850688599863 
1973	 0.43911595328222 
1974	 0.440553283988995 
1975	 0.441461055151004 
1976	 0.441745275370904 
1977	 0.442219314150386 
1978	 0.442196925212923 
1979	 0.442377983012218 
1980	 0.443098808030605 
1981	 0.444044602820033 
1982	 0.444777888956489 
1983	 0.4456104663466 
1984	 0.446297176448476 
1985	 0.44662070736132 
1986	 0.446910966035277 
1987	 0.447564417482907 
1988	 0.448083400913785 
1989	 0.448845442018796 
1990	 0.449863540745929 
1991	 0.4503448584111 
1992	 0.450629098918407 
1993	 0.450851737242135 
1994	 0.451101217819302 
1995	 0.451641564390943 
1996	 0.452582214303498 
1997	 0.453670261240453 
1998	 0.454383191052872 
1999	 0.454470946979491 
2000	 0.453955221864536 
2001	 0.453231635115738 
2002	 0.453548283245628 
2003	 0.454991821831652 
2004	 0.456661916741192 
2005	 0.458385487674762 
2006	 0.459624608703164 
2007	 0.460485087767638 
2008	 0.460916859913879 
2009	 0.461481738451035 
2010	 0.462339360633806 
2011	 0.463665543540943 
2012	 0.464744072936406 
2013	 0.465731528505772 
2014	 0.46668453285411 
2015	 0.467382789818532 
2016	 0.46749247360155 
2017	 0.466900190145511 
2018	 0.466663444114274 
2019	 0.466348321173086 
2020	 0.465777589453986 
2021	 0.465452993599274 
2022	 0.465841009134902 
2023	 0.466096191400273 
2024	 0.466318001827043 
2025	 0.466470920065435 
2026	 0.466463514776628 
2027	 0.465937849393688 
2028	 0.46517222063531 
2029	 0.464707643872941 
2030	 0.464098715411585 
2031	 0.463695140471713 
2032	 0.463232427282289 
2033	 0.462854210215341 
2034	 0.462246839826245 
2035	 0.46193010377502 
2036	 0.461583867767628 
2037	 0.46116171551935 
2038	 0.461033771892595 
2039	 0.46092228291419 
2040	 0.460559501752748 
2041	 0.460137384644901 
2042	 0.45998425543316 
2043	 0.459865060898428 
2044	 0.459506589357223 
2045	 0.459370662362265 
2046	 0.459488303591001 
2047	 0.459753427589622 
2048	 0.459668417307748 
2049	 0.459723818674036 
2050	 0.459875498755247 
2051	 0.459079208321377 
2052	 0.45836009290142 
2053	 0.458211746747625 
2054	 0.457695039977724 
2055	 0.457678543174193 
2056	 0.457641509696543 
2057	 0.457389369942712 
2058	 0.457387186959835 
2059	 0.457229789155442 
2060	 0.456994323193724 
2061	 0.457102575638371 
2062	 0.456971455454958 
2063	 0.456692586281902 
2064	 0.456669067485994 
2065	 0.456184557500823 
2066	 0.455867508303611 
2067	 0.45595838092132 
2068	 0.455673764379273 
2069	 0.455514980699965 
2070	 0.455346159237465 
2071	 0.454560083387627 
2072	 0.454319576318782 
2073	 0.454224078221059 
2074	 0.454565649330187 
2075	 0.455124959280965 
2076	 0.455627196875305 
2077	 0.455587230266329 
2078	 0.455002695981505 
2079	 0.453955491221392 
2080	 0.453600933104983 
2081	 0.453456361884414 
2082	 0.453297610304021 
2083	 0.453959304203484 
2084	 0.454105157615798 
2085	 0.45361264868358 
2086	 0.453519455243847 
2087	 0.453381453127591 
2088	 0.452844384023629 
2089	 0.452569745364689 
2090	 0.453396918568851 
2091	 0.454074082947216 
2092	 0.45470518526693 
2093	 0.455358103127071 
2094	 0.455245186805748 
2095	 0.4548253971126 
2096	 0.454586634696867 
2097	 0.454306969723084 
2098	 0.454155557506295 
2099	 0.454298135196519 
2100	 0.454333884403707 
2101	 0.454425082717208 
2102	 0.454517736798644 
2103	 0.454584829282913 
2104	 0.454555393159281 
2105	 0.455047569461536 
2106	 0.455393776787459 
2107	 0.455497585019765 
2108	 0.456232548204546 
2109	 0.456675115175159 
2110	 0.456877992628744 
2111	 0.457487365260445 
2112	 0.458176561744597 
2113	 0.458604840416876 
2114	 0.458821890845169 
2115	 0.458838455000493 
2116	 0.458702938940753 
2117	 0.458833014976657 
2118	 0.459044901068031 
2119	 0.459287624748511 
2120	 0.459788601366087 
2121	 0.460129388195285 
2122	 0.460336178560387 
2123	 0.460795791476045 
2124	 0.461038800267552 
2125	 0.461405987101973 
2126	 0.461405448575996 
2127	 0.461002635214879 
2128	 0.461374056653806 
2129	 0.461811351000681 
2130	 0.461868664322317 
2131	 0.462096423523058 
2132	 0.461917771566495 
2133	 0.46155733815128 
2134	 0.461604509743252 
2135	 0.461967097866215 
2136	 0.462414322427389 
2137	 0.462806370532129 
2138	 0.463243627080197 
2139	 0.463447059567966 
2140	 0.463691125563898 
2141	 0.463606875069228 
2142	 0.463350506488831 
2143	 0.463733378424016 
2144	 0.463705398462329 
2145	 0.463968440637084 
2146	 0.464779491582365 
2147	 0.465146010825612 
2148	 0.465675306777691 
2149	 0.466164050816274 
2150	 0.466277320597698 
2151	 0.466317983540209 
2152	 0.465797031171908 
2153	 0.465801868348143 
2154	 0.465868969168711 
2155	 0.466374918193388 
2156	 0.467231308664178 
2157	 0.467353115017384 
2158	 0.467619744786607 
2159	 0.46739879901742 
2160	 0.467058536774073 
2161	 0.467797038339314 
2162	 0.468117413101108 
2163	 0.468355361776049 
2164	 0.468500903876845 
2165	 0.46789204079091 
2166	 0.467259824958318 
2167	 0.46698092742824 
2168	 0.466927388704247 
2169	 0.467076279935091 
2170	 0.467053382928315 
2171	 0.467177884732859 
2172	 0.467520755721145 
2173	 0.467316653127845 
2174	 0.467301956427185 
2175	 0.467671726335045 
2176	 0.467911169531272 
2177	 0.468344646897065 
2178	 0.468605300318396 
2179	 0.46838876884998 
2180	 0.467905032627399 
2181	 0.467524291449634 
2182	 0.467495720211367 
2183	 0.467312062888096 
2184	 0.467602766603643 
2185	 0.468458021699538 
2186	 0.469179827143005 
2187	 0.469588414208816 
2188	 0.470291210902024 
2189	 0.470346753182239 
2190	 0.469753472489736 
2191	 0.469057836831043 
2192	 0.468733499269119 
2193	 0.469189998443847 
2194	 0.469726557609514 
2195	 0.470084894884562 
2196	 0.470731608237027 
2197	 0.471249840103782 
2198	 0.471148732134048 
2199	 0.470918275247249 
2200	 0.470435495255462 
2201	 0.470259495232766 
2202	 0.470123327414507 
2203	 0.470232660476344 
2204	 0.470861688945674 
2205	 0.470282159826565 
2206	 0.46981816102464 
2207	 0.47038882230081 
2208	 0.470247089937723 
2209	 0.469489559646243 
2210	 0.469384568554196 
2211	 0.469515139265218 
2212	 0.468994147484615 
2213	 0.469584294155379 
2214	 0.470444040574281 
2215	 0.470451429854964 
2216	 0.470289992708208 
2217	 0.469763474079977 
2218	 0.469454632727504 
2219	 0.469865282209899 
2220	 0.471110766383406 
2221	 0.471484669870339 
2222	 0.471103251807874 
2223	 0.470999736804411 
2224	 0.469848934176224 
2225	 0.469153284533912 
2226	 0.468780846025395 
2227	 0.468181371582288 
2228	 0.467757869695776 
2229	 0.46683835375208 
2230	 0.466337478117553 
2231	 0.465495953434498 
2232	 0.463993838099341 
2233	 0.463042071937325 
2234	 0.462155029701027 
2235	 0.461685382766454 
2236	 0.461870065882614 
2237	 0.461523983102633 
2238	 0.46081070703778 
2239	 0.45980442628727 
2240	 0.457534374852153 
2241	 0.456474641405129 
2242	 0.456581132544804 
2243	 0.455214137771274 
2244	 0.453951361163494 
2245	 0.45286570282881 
2246	 0.451295030145927 
2247	 0.450036013157859 
2248	 0.449378507420598 
2249	 0.448758726893327 
2250	 0.447509233939932 
2251	 0.446394642401554 
2252	 0.444687219660279 
2253	 0.442487312519422 
2254	 0.440805510963362 
2255	 0.438849633705119 
2256	 0.437588581241607 
2257	 0.437112112031785 
2258	 0.436899944802437 
2259	 0.435559531063027 
2260	 0.434211035863186 
2261	 0.432137865843036 
2262	 0.430169885710499 
2263	 0.429202161849109 
2264	 0.42884549077109 
2265	 0.429301823998993 
2266	 0.428941012352975 
2267	 0.428406405306149 
2268	 0.428245300539493 
2269	 0.427618300486304 
2270	 0.427509119751739 
2271	 0.427437007666547 
2272	 0.427154016066477 
2273	 0.426685399643831 
2274	 0.426088241575196 
2275	 0.425280111622222 
2276	 0.424517981523808 
2277	 0.424720622568742 
2278	 0.425285548754756 
2279	 0.425875176391454 
2280	 0.425654223887554 
2281	 0.424703571568151 
2282	 0.424305534489909 
2283	 0.424382593168907 
2284	 0.425785081581625 
2285	 0.42775251590527 
2286	 0.428468623923848 
2287	 0.428487543968899 
2288	 0.428129562260888 
2289	 0.427073305374726 
2290	 0.426681283289954 
2291	 0.427190855317599 
2292	 0.427396044461219 
2293	 0.428441905040607 
2294	 0.427922753758634 
2295	 0.426711171881889 
2296	 0.426462920950258 
2297	 0.425427761194731 
2298	 0.424783017084994 
2299	 0.425324074068484 
2300	 0.426093863008411 
2301	 0.426447472269695 
2302	 0.4277336860212 
2303	 0.428789378876309 
2304	 0.42847394687541 
2305	 0.428662910148108 
2306	 0.427907013462945 
2307	 0.426720376340665 
2308	 0.425969635494777 
2309	 0.424751901747932 
2310	 0.424200975092135 
2311	 0.424817862901083 
2312	 0.426343847361133 
2313	 0.427203000585808 
2314	 0.427921253967677 
2315	 0.42871114419616 
2316	 0.428853869413904 
2317	 0.429684740039863 
2318	 0.430319572514981 
2319	 0.430495339650936 
2320	 0.43059198738947 
2321	 0.430662193344771 
2322	 0.431422032057792 
2323	 0.43095054873108 
2324	 0.429823913863504 
2325	 0.428485300237739 
2326	 0.42647510531526 
2327	 0.425650284568238 
2328	 0.427863823067655 
2329	 0.429732766914149 
2330	 0.43145441910386 
2331	 0.432232652206229 
2332	 0.430673799996825 
2333	 0.428942651454642 
2334	 0.427978774736326 
2335	 0.428173117968807 
2336	 0.428515045076647 
2337	 0.428400310943311 
2338	 0.428801887096027 
2339	 0.4295562167508 
2340	 0.429008384274403 
2341	 0.428784281303528 
2342	 0.429887178867577 
2343	 0.429274741484762 
2344	 0.429487301860926 
2345	 0.430647736886334 
2346	 0.428853860732282 
2347	 0.427798225280961 
2348	 0.427436235610148 
2349	 0.426265406495029 
2350	 0.42648030777585 
2351	 0.427702213015286 
2352	 0.429627663650616 
2353	 0.431019047572664 
2354	 0.432031353725467 
2355	 0.432240434956609 
2356	 0.431548095387774 
2357	 0.43249062264833 
2358	 0.432946655041677 
2359	 0.432243450711016 
2360	 0.432726957443248 
2361	 0.431500608719851 
2362	 0.431161390079705 
2363	 0.432504914638856 
2364	 0.432530391940291 
2365	 0.434682917463304 
2366	 0.434956064534237 
2367	 0.43345211253174 
2368	 0.432067959295758 
2369	 0.428946422706555 
2370	 0.429880897652464 
2371	 0.432251082924292 
2372	 0.434012809240193 
2373	 0.438755134525225 
2374	 0.440577472204545 
2375	 0.439458729752783 
2376	 0.438831641732347 
2377	 0.4371738370706 
2378	 0.437131278719198 
2379	 0.436964372369086 
2380	 0.438143943206608 
2381	 0.441517459485111 
2382	 0.442094028143712 
2383	 0.442488509263836 
2384	 0.441839614748732 
2385	 0.438356685245287 
2386	 0.437997576365496 
2387	 0.439448998506986 
2388	 0.438644375287355 
2389	 0.438925378445378 
2390	 0.438402265230848 
2391	 0.434952377638503 
2392	 0.43373510507775 
2393	 0.433257109304308 
2394	 0.433006710088402 
2395	 0.432849245534543 
2396	 0.432630640613317 
2397	 0.434176532947787 
2398	 0.434992497185825 
2399	 0.436216034080903 
2400	 0.434652668188936 
2401	 0.430610850063592 
2402	 0.428794740979522 
2403	 0.425759342570137 
2404	 0.428260826207383 
2405	 0.435653038898208 
2406	 0.438505984389451 
2407	 0.439692654400222 
2408	 0.441405605014549 
2409	 0.442691550272266 
2410	 0.442429422371855 
2411	 0.439195950627291 
2412	 0.436302862397992 
2413	 0.436396334031309 
2414	 0.436977050563688 
2415	 0.439789560200821 
2416	 0.441793998136243 
2417	 0.435481227433581 
2418	 0.42942298260542 
2419	 0.428330545331548 
2420	 0.428000380384324 
2421	 0.42825995599981 
2422	 0.428289444485763 
2423	 0.425021070530617 
2424	 0.419843963766507 
2425	 0.418475231093073 
2426	 0.418959456390097 
2427	 0.419550868369944 
2428	 0.421153804998695 
2429	 0.422864212498349 
2430	 0.420726255975154 
2431	 0.418148527688092 
2432	 0.417692157282844 
2433	 0.413818801887635 
2434	 0.413655472401601 
2435	 0.417436454969941 
2436	 0.416749558897948 
2437	 0.414753296343832 
2438	 0.41457342596711 
2439	 0.411508172746549 
2440	 0.412267990442634 
2441	 0.420486761054123 
2442	 0.421720106097203 
2443	 0.416197626179828 
2444	 0.417858292819642 
2445	 0.424253013268174 
2446	 0.423597050733568 
2447	 0.422592689884388 
2448	 0.422742249089115 
2449	 0.414970532961256 
2450	 0.411471914534106 
2451	 0.41546517043748 
2452	 0.417944526274129 
2453	 0.420782562250337 
2454	 0.41815169120712 
2455	 0.413699678565079 
2456	 0.410379066659751 
2457	 0.401988803010266 
2458	 0.398531993468816 
2459	 0.397817594217172 
2460	 0.396143450842253 
2461	 0.394600555338291 
2462	 0.39485250278434 
2463	 0.399364910694364 
2464	 0.401942477167537 
2465	 0.406819252246735 
2466	 0.404888581833808 
2467	 0.395308013023873 
2468	 0.391195843919653 
2469	 0.382222186345903 
2470	 0.381376208491004 
2471	 0.38847261216424 
2472	 0.391682997594657 
2473	 0.399826783212875 
2474	 0.406738165788295 
2475	 0.415376689837558 
2476	 0.419517506072502 
2477	 0.413589812706052 
2478	 0.422472317542247 
2479	 0.442108370319349 
2480	 0.452662862091718 
2481	 0.482917713704383 
2482	 0.486093817363388 
2483	 0.443538582879158 
2484	 0.432013375607781 
2485	 0.41951383335892 
2486	 0.413358673858543 
2487	 0.43698310707643 
2488	 0.457543717087971 
2489	 0.476668011864363 
2490	 0.511254198513374 
2491	 0.539374493998728 
2492	 0.547755344120922 
2493	 0.593624167986021 
2494	 0.630613271053141 
2495	 0.60573136178094 
2496	 0.552565737212637 
2497	 0.493897799361426 
2498	 0.391423078031384 
2499	 0.364660489527728 
2500	 0.416531430436024 
