Wavelength	ref00050.asd
350	 0.19694714262173 
351	 0.19716979313364 
352	 0.196603520020983 
353	 0.196608911608024 
354	 0.196331930474846 
355	 0.196649363884638 
356	 0.197685279222795 
357	 0.197486557242527 
358	 0.196863702434924 
359	 0.196766462770622 
360	 0.197540830627408 
361	 0.196872700973777 
362	 0.196499118966957 
363	 0.196669931180859 
364	 0.196627341875329 
365	 0.197028057395565 
366	 0.19710441327326 
367	 0.196650022776394 
368	 0.196418360124971 
369	 0.196784934807655 
370	 0.196926342395963 
371	 0.196373415255654 
372	 0.196642271632763 
373	 0.197004440059495 
374	 0.197002620361246 
375	 0.196493061081503 
376	 0.19634124033023 
377	 0.196745436313545 
378	 0.197356006436545 
379	 0.197306702513813 
380	 0.197337918251776 
381	 0.197324460012294 
382	 0.197236902746831 
383	 0.197858056006383 
384	 0.198241267576281 
385	 0.198235795838392 
386	 0.198086928535906 
387	 0.197901756540705 
388	 0.198467095381559 
389	 0.199466381178664 
390	 0.199490986508934 
391	 0.199314422431128 
392	 0.199135951164438 
393	 0.199121324876734 
394	 0.199609362630128 
395	 0.200317295563566 
396	 0.200747076558216 
397	 0.200618952351622 
398	 0.201025465317249 
399	 0.20141425940037 
400	 0.201717076916663 
401	 0.202281157089171 
402	 0.202333019290469 
403	 0.202397533970312 
404	 0.202828351707951 
405	 0.203283662043908 
406	 0.203616133245845 
407	 0.203728969160204 
408	 0.203693934781384 
409	 0.204232181832382 
410	 0.204490854682943 
411	 0.204489114380369 
412	 0.205011186118407 
413	 0.205484057881948 
414	 0.205781534817521 
415	 0.205959945564812 
416	 0.206274239680356 
417	 0.206783198568701 
418	 0.207172702953359 
419	 0.20717921063427 
420	 0.207463892270873 
421	 0.207838484299002 
422	 0.208139695273858 
423	 0.208302087752659 
424	 0.208918868098592 
425	 0.209369041527355 
426	 0.209330164851433 
427	 0.209544923450851 
428	 0.209855332040505 
429	 0.210195741832788 
430	 0.210527179056586 
431	 0.210894474992791 
432	 0.211231558563979 
433	 0.211492584712681 
434	 0.211679487925977 
435	 0.212266372624505 
436	 0.212688811832985 
437	 0.212682437719681 
438	 0.212908022607492 
439	 0.213275078158488 
440	 0.213571500319022 
441	 0.21364830670086 
442	 0.214024249139587 
443	 0.214376446473048 
444	 0.214609436663231 
445	 0.214884032383773 
446	 0.215039803430436 
447	 0.215206998853513 
448	 0.215475256466716 
449	 0.215708100256523 
450	 0.216005306168681 
451	 0.21629037632713 
452	 0.216448803298367 
453	 0.216626454952058 
454	 0.216823797732902 
455	 0.217063186354664 
456	 0.217403052615876 
457	 0.217651490111074 
458	 0.217848549652511 
459	 0.218053556691882 
460	 0.218184894875792 
461	 0.218467689335153 
462	 0.218791826689855 
463	 0.218903772503466 
464	 0.219053861351964 
465	 0.219271292482625 
466	 0.219524363232182 
467	 0.219726552957502 
468	 0.220010370550848 
469	 0.220238575030073 
470	 0.220322646344902 
471	 0.220655384275897 
472	 0.220930005661825 
473	 0.221133946793107 
474	 0.221447070120653 
475	 0.221609942622565 
476	 0.221779941477596 
477	 0.222043391253982 
478	 0.222239392603058 
479	 0.22252548935543 
480	 0.222873883913903 
481	 0.223186222107492 
482	 0.223348670999589 
483	 0.223559559296977 
484	 0.223875658919683 
485	 0.224194430390644 
486	 0.224469287670513 
487	 0.224687923401508 
488	 0.224893138435911 
489	 0.22523506850934 
490	 0.22564791853641 
491	 0.225991500114593 
492	 0.226165815312514 
493	 0.226522382011075 
494	 0.22692912156905 
495	 0.227290394156007 
496	 0.227606803296592 
497	 0.228074045206168 
498	 0.228491557913795 
499	 0.228700226749041 
500	 0.229003998033811 
501	 0.22941116495172 
502	 0.229813842928922 
503	 0.230069301567431 
504	 0.230485196087919 
505	 0.23085692202055 
506	 0.231114786401831 
507	 0.231505511581507 
508	 0.231930210642257 
509	 0.232361424744869 
510	 0.232795365815611 
511	 0.233254578849085 
512	 0.233744702792184 
513	 0.234231060385041 
514	 0.234652169439636 
515	 0.235087049787094 
516	 0.235488868498119 
517	 0.235871464737586 
518	 0.236458592684839 
519	 0.2370700725143 
520	 0.237560212666344 
521	 0.23788069102494 
522	 0.238425090553172 
523	 0.238904261050182 
524	 0.239210808005415 
525	 0.239486768329743 
526	 0.239994471044134 
527	 0.240593472691286 
528	 0.241101233953108 
529	 0.241526335293903 
530	 0.241996597343538 
531	 0.242499941658337 
532	 0.242956830697874 
533	 0.243443956601524 
534	 0.243969269904056 
535	 0.24448569586008 
536	 0.244868348782813 
537	 0.245353972127895 
538	 0.245869443258467 
539	 0.246287658665098 
540	 0.246716391230765 
541	 0.247119853261824 
542	 0.247515187016928 
543	 0.247964105521927 
544	 0.248470942654219 
545	 0.248960819097151 
546	 0.249386782035076 
547	 0.249781251159558 
548	 0.250205847157093 
549	 0.250691853111067 
550	 0.251233135056846 
551	 0.251707222882522 
552	 0.252203433193238 
553	 0.252721278728621 
554	 0.253134269041794 
555	 0.253512820825326 
556	 0.253953097978924 
557	 0.25448142759374 
558	 0.254872473703239 
559	 0.255224091056932 
560	 0.255539900672258 
561	 0.255778703530973 
562	 0.256085737794489 
563	 0.256231541921622 
564	 0.256219995591553 
565	 0.25655308042308 
566	 0.256850021736289 
567	 0.257080633448821 
568	 0.257325135203995 
569	 0.257621227837496 
570	 0.257890739241563 
571	 0.25815811691512 
572	 0.258536568575932 
573	 0.258840815503738 
574	 0.259099583920273 
575	 0.259370849888464 
576	 0.2596922279583 
577	 0.259859150270669 
578	 0.259938631750992 
579	 0.260114046359241 
580	 0.260301280464821 
581	 0.260627131542708 
582	 0.261030079706589 
583	 0.261188603883005 
584	 0.261233949779648 
585	 0.261346243961253 
586	 0.261615843029058 
587	 0.261740548982551 
588	 0.261864516378843 
589	 0.262038383971497 
590	 0.262241219722642 
591	 0.262565134238602 
592	 0.262809241281176 
593	 0.262902248724063 
594	 0.263050524485706 
595	 0.263198464551179 
596	 0.263360637888396 
597	 0.263543048072244 
598	 0.263602958474041 
599	 0.263731398039298 
600	 0.26394926376835 
601	 0.264099175521472 
602	 0.26431220828015 
603	 0.264533375479045 
604	 0.264684140483498 
605	 0.264700804339966 
606	 0.264826199805231 
607	 0.265012190915259 
608	 0.265088959704849 
609	 0.265197021028236 
610	 0.265355669111393 
611	 0.265520765734425 
612	 0.265579790276137 
613	 0.265633379633821 
614	 0.265704063097252 
615	 0.265793310588796 
616	 0.265913177377618 
617	 0.266005386631851 
618	 0.266033503466258 
619	 0.266002206839785 
620	 0.266121740362189 
621	 0.266273927710024 
622	 0.26636903803021 
623	 0.266462440595403 
624	 0.266508743730102 
625	 0.266583291361868 
626	 0.26675636544902 
627	 0.266849749289568 
628	 0.266933113528403 
629	 0.267058600754868 
630	 0.267242008608891 
631	 0.267377570029586 
632	 0.267415136353797 
633	 0.267390800644773 
634	 0.26752730399978 
635	 0.267606287773068 
636	 0.267658958569852 
637	 0.267792032658048 
638	 0.267796206807319 
639	 0.267859937541858 
640	 0.267975560131489 
641	 0.267849073404773 
642	 0.26780671150758 
643	 0.267826694520702 
644	 0.267820633234253 
645	 0.267792297638808 
646	 0.267722564292737 
647	 0.267604138155594 
648	 0.267462084597981 
649	 0.26751950549417 
650	 0.267565756028823 
651	 0.267523407491632 
652	 0.26761542561301 
653	 0.267692996024123 
654	 0.267729264381402 
655	 0.267751215037961 
656	 0.267866209041565 
657	 0.267950842734272 
658	 0.267953796344143 
659	 0.267913236562402 
660	 0.267859985161849 
661	 0.267847141454654 
662	 0.267853777094444 
663	 0.267706773190003 
664	 0.267582585606895 
665	 0.267493952561931 
666	 0.267404964873397 
667	 0.267355411006437 
668	 0.267243003788146 
669	 0.267118179302709 
670	 0.267155272925374 
671	 0.267106986356464 
672	 0.267123083200348 
673	 0.26727117906384 
674	 0.267256411226165 
675	 0.267288469470698 
676	 0.267368308361084 
677	 0.267438791086411 
678	 0.267597754914964 
679	 0.267714672681113 
680	 0.267808786352003 
681	 0.268056890456809 
682	 0.26826052297043 
683	 0.268540873785678 
684	 0.268967078974562 
685	 0.269296639111409 
686	 0.269713580831928 
687	 0.27033048302013 
688	 0.271134998142269 
689	 0.271939786061062 
690	 0.272480557130702 
691	 0.27289200519757 
692	 0.273620759383598 
693	 0.274222309494721 
694	 0.274721198415788 
695	 0.275263154958204 
696	 0.276073957859114 
697	 0.276962192576983 
698	 0.277691589576416 
699	 0.278082528862775 
700	 0.278514110263193 
701	 0.279100725228673 
702	 0.279820276442878 
703	 0.280514135351105 
704	 0.281037634107271 
705	 0.281544447213129 
706	 0.282148113481473 
707	 0.282654585805007 
708	 0.283055976192852 
709	 0.283450289207065 
710	 0.283943597587467 
711	 0.284329994259466 
712	 0.284647724765162 
713	 0.284944087188905 
714	 0.285247845906672 
715	 0.28537212341688 
716	 0.285346976141526 
717	 0.28524406105098 
718	 0.285065770902612 
719	 0.285240211985969 
720	 0.285711781653674 
721	 0.286150768422112 
722	 0.286556311265604 
723	 0.286816507583771 
724	 0.286895897369345 
725	 0.286833800243499 
726	 0.286966202920857 
727	 0.287223895482549 
728	 0.287466152976612 
729	 0.287574976605614 
730	 0.287792961512607 
731	 0.288096066810548 
732	 0.288364833815284 
733	 0.288593101337283 
734	 0.288868943070461 
735	 0.28914918818695 
736	 0.289279451505547 
737	 0.289464010182495 
738	 0.289713092852762 
739	 0.289966757464452 
740	 0.290087726939931 
741	 0.290137565727894 
742	 0.290226786800211 
743	 0.290429644812293 
744	 0.290586513031085 
745	 0.290769402834186 
746	 0.290893440104477 
747	 0.290793006548991 
748	 0.290814016212941 
749	 0.290971168122217 
750	 0.291172423997025 
751	 0.291235374355992 
752	 0.291315655556917 
753	 0.291412498710146 
754	 0.291497776909631 
755	 0.291612254324698 
756	 0.2916857877578 
757	 0.291735915513459 
758	 0.29183831362658 
759	 0.292066947806007 
760	 0.292409462939134 
761	 0.292810594339132 
762	 0.293059694744595 
763	 0.293141362244082 
764	 0.293134826417627 
765	 0.293058953586087 
766	 0.292815130160578 
767	 0.292785954252285 
768	 0.292867514533943 
769	 0.292865158059351 
770	 0.292794428003414 
771	 0.292955026626963 
772	 0.293251219988606 
773	 0.293270570994172 
774	 0.293125578495718 
775	 0.293200151174161 
776	 0.293535813222061 
777	 0.293535366248063 
778	 0.293474600098434 
779	 0.293552299591433 
780	 0.293802905007035 
781	 0.293759302552586 
782	 0.293798878381151 
783	 0.293977697430161 
784	 0.294157852564251 
785	 0.294220354888179 
786	 0.294288097979897 
787	 0.294357298537957 
788	 0.294286743121622 
789	 0.294475090185437 
790	 0.294628632939238 
791	 0.294583324570404 
792	 0.294719027859579 
793	 0.294981860194921 
794	 0.2951323012262 
795	 0.295020633767763 
796	 0.295095509669587 
797	 0.29526526752367 
798	 0.295406800113848 
799	 0.295426362140054 
800	 0.295557476527121 
801	 0.295734686515913 
802	 0.295850648101497 
803	 0.295810461642589 
804	 0.295954878264615 
805	 0.296179738308097 
806	 0.296329561299435 
807	 0.296330386215182 
808	 0.296472089891249 
809	 0.296547313126278 
810	 0.296348688170533 
811	 0.296337527485926 
812	 0.296198238066689 
813	 0.295996623840923 
814	 0.295985597906484 
815	 0.295930244558754 
816	 0.295917423814817 
817	 0.296055890321021 
818	 0.296398200527895 
819	 0.29642339067726 
820	 0.296519411914055 
821	 0.296873950811567 
822	 0.297092147448318 
823	 0.2971374896987 
824	 0.297125730276258 
825	 0.297210764799533 
826	 0.297505247431052 
827	 0.297606462167855 
828	 0.297638828614674 
829	 0.297848765330361 
830	 0.29779949416708 
831	 0.297977235786235 
832	 0.298343639268355 
833	 0.298477914361849 
834	 0.298536695307152 
835	 0.298712926848587 
836	 0.298976094791834 
837	 0.299046139462746 
838	 0.29909035138117 
839	 0.299288462464332 
840	 0.299570268637309 
841	 0.29937513106744 
842	 0.299305724320966 
843	 0.299462525532128 
844	 0.299714424407477 
845	 0.299712628706432 
846	 0.29980768450267 
847	 0.299965067157072 
848	 0.30000739808081 
849	 0.299999232268856 
850	 0.300122419081167 
851	 0.300335754730824 
852	 0.300437729326784 
853	 0.300444160135089 
854	 0.300575943319705 
855	 0.30079354385985 
856	 0.300779555010176 
857	 0.300958218520749 
858	 0.301087370685261 
859	 0.301045988965086 
860	 0.301057465169681 
861	 0.301420414328222 
862	 0.30157128871374 
863	 0.301228891545453 
864	 0.301384160007512 
865	 0.301693456200366 
866	 0.301809162312407 
867	 0.301583929512537 
868	 0.301691870453657 
869	 0.301678463781583 
870	 0.301562885437716 
871	 0.301604147437031 
872	 0.302046584069176 
873	 0.30208447638261 
874	 0.3018125555564 
875	 0.301932751214583 
876	 0.302186083506496 
877	 0.30238744457343 
878	 0.30250788821535 
879	 0.302657415973033 
880	 0.302626016932999 
881	 0.302709649075236 
882	 0.302916936619814 
883	 0.302805274098009 
884	 0.302794961570123 
885	 0.303055743914516 
886	 0.303413131228963 
887	 0.303199799658344 
888	 0.303224413031444 
889	 0.303395407142192 
890	 0.303413211073093 
891	 0.303048833222766 
892	 0.30317353458809 
893	 0.303365576095445 
894	 0.303086369925181 
895	 0.303032185649008 
896	 0.303015169140733 
897	 0.303064368435957 
898	 0.303204972792263 
899	 0.303050672012339 
900	 0.303141744847058 
901	 0.303266929679884 
902	 0.303000754711317 
903	 0.303078632300396 
904	 0.303044067390823 
905	 0.303100459866847 
906	 0.303668114633148 
907	 0.303564424632706 
908	 0.303393148134809 
909	 0.303441729918868 
910	 0.303580576557303 
911	 0.303700838095549 
912	 0.303488143790357 
913	 0.303364452165307 
914	 0.304204422207507 
915	 0.304248842227267 
916	 0.304058214250604 
917	 0.304154736877946 
918	 0.304553945836562 
919	 0.304270772930914 
920	 0.304191527913612 
921	 0.304820276997624 
922	 0.305735913151301 
923	 0.305898449231117 
924	 0.305373179875829 
925	 0.304725210215589 
926	 0.304827868073734 
927	 0.304299688964225 
928	 0.303608476922559 
929	 0.303132554608537 
930	 0.302277786230357 
931	 0.302599837955109 
932	 0.302294653080137 
933	 0.300767323763324 
934	 0.302203363495276 
935	 0.301670795032958 
936	 0.301003888652486 
937	 0.301658576735219 
938	 0.300808079392201 
939	 0.301109699776956 
940	 0.301914096713734 
941	 0.302338361585322 
942	 0.302494531420136 
943	 0.304086407367063 
944	 0.304093070257909 
945	 0.301484940806705 
946	 0.302007629280859 
947	 0.302374923958377 
948	 0.301839495826558 
949	 0.301133542867136 
950	 0.302462040789809 
951	 0.303359631638278 
952	 0.303127105980258 
953	 0.302319170136725 
954	 0.302853215953709 
955	 0.303806667761144 
956	 0.304298374152076 
957	 0.304248922674401 
958	 0.305056731652697 
959	 0.30479637966169 
960	 0.304919195588348 
961	 0.306095563548581 
962	 0.306237267631874 
963	 0.305446833838035 
964	 0.305648555853539 
965	 0.306897437251846 
966	 0.305772897312381 
967	 0.306385824199921 
968	 0.307423708898884 
969	 0.307587936059104 
970	 0.307462696338146 
971	 0.307699939633975 
972	 0.308192602636381 
973	 0.308637810259812 
974	 0.308758136102546 
975	 0.308840845952147 
976	 0.308728324391853 
977	 0.30899310805145 
978	 0.310794207997336 
979	 0.30992783204417 
980	 0.309445972663549 
981	 0.309835163943467 
982	 0.308249282732843 
983	 0.310282319345789 
984	 0.310340678691822 
985	 0.308833706607372 
986	 0.311586561599822 
987	 0.311419202791577 
988	 0.311721245611656 
989	 0.312816316688946 
990	 0.312362304513002 
991	 0.31244193700734 
992	 0.311986856228153 
993	 0.311901003516148 
994	 0.31332994958564 
995	 0.311569918945939 
996	 0.310949455832194 
997	 0.312240151064648 
998	 0.313779688619902 
999	 0.313429811786592 
1000	 0.313603792861832 
1001	 0.309930045837577 
1002	 0.309869037669587 
1003	 0.3100307213254 
1004	 0.310420420625457 
1005	 0.310673312631177 
1006	 0.311039684549855 
1007	 0.311172696780854 
1008	 0.311081486142108 
1009	 0.311170023749336 
1010	 0.311238189439619 
1011	 0.311321900617207 
1012	 0.31151318066512 
1013	 0.31154192818218 
1014	 0.311543288967575 
1015	 0.311673898798876 
1016	 0.311926478542759 
1017	 0.312138639357303 
1018	 0.312290307224617 
1019	 0.312356704793863 
1020	 0.312523273655341 
1021	 0.312760391947434 
1022	 0.312911707224564 
1023	 0.313078602158723 
1024	 0.31319496571333 
1025	 0.313271393880546 
1026	 0.313216055393699 
1027	 0.313263389052984 
1028	 0.313408526731514 
1029	 0.313454753681551 
1030	 0.313616529151506 
1031	 0.313924003657593 
1032	 0.314137497547285 
1033	 0.314299230582568 
1034	 0.314496549616743 
1035	 0.314643004412062 
1036	 0.314631692398276 
1037	 0.314718779809044 
1038	 0.314916717237108 
1039	 0.314943065250661 
1040	 0.314958287453727 
1041	 0.315109256230018 
1042	 0.315082980567077 
1043	 0.315253542337111 
1044	 0.315538774639548 
1045	 0.315599976303823 
1046	 0.315751953066649 
1047	 0.31588889920586 
1048	 0.315890799426499 
1049	 0.315978421753151 
1050	 0.316033195506926 
1051	 0.316093230774417 
1052	 0.316138029479316 
1053	 0.316193791374055 
1054	 0.316141446630937 
1055	 0.316104432502102 
1056	 0.316102137817969 
1057	 0.316255740932105 
1058	 0.316422178282685 
1059	 0.316366135234595 
1060	 0.316493146558273 
1061	 0.316583438304102 
1062	 0.316535142805893 
1063	 0.316835840131622 
1064	 0.317026718739013 
1065	 0.317095875487705 
1066	 0.316985549472844 
1067	 0.317077166128608 
1068	 0.317097523495242 
1069	 0.316985389014069 
1070	 0.3169622978175 
1071	 0.316903358793212 
1072	 0.316817067430196 
1073	 0.317031077305325 
1074	 0.317221885913158 
1075	 0.317250556838263 
1076	 0.317421733495304 
1077	 0.31732629618216 
1078	 0.317098733403357 
1079	 0.317193360269984 
1080	 0.317210161480325 
1081	 0.317239403078592 
1082	 0.317311018655419 
1083	 0.317577424562343 
1084	 0.317616209137753 
1085	 0.317601409553068 
1086	 0.317701331850155 
1087	 0.317718306503145 
1088	 0.317733495883657 
1089	 0.317818381405731 
1090	 0.317792837992321 
1091	 0.317761364753655 
1092	 0.31785991164095 
1093	 0.317876861850756 
1094	 0.317875830473882 
1095	 0.31789997148084 
1096	 0.317851441968582 
1097	 0.317689477625295 
1098	 0.317581566697056 
1099	 0.317467494382096 
1100	 0.317326144146095 
1101	 0.317297184262767 
1102	 0.317249518603468 
1103	 0.31713584306444 
1104	 0.31704019308186 
1105	 0.316968893454043 
1106	 0.316865019737702 
1107	 0.316764702160123 
1108	 0.316726815546075 
1109	 0.316569754545271 
1110	 0.316227527054998 
1111	 0.315835059769381 
1112	 0.315239821711672 
1113	 0.314816224997529 
1114	 0.314344319489421 
1115	 0.313881861411383 
1116	 0.313572636941942 
1117	 0.31317810530484 
1118	 0.312523051156531 
1119	 0.312024448122775 
1120	 0.311628202422596 
1121	 0.31124940606922 
1122	 0.311268547639233 
1123	 0.311169915320851 
1124	 0.31073512423763 
1125	 0.310767197097881 
1126	 0.310859710764745 
1127	 0.310853742192997 
1128	 0.311098022362769 
1129	 0.311812652796646 
1130	 0.312150117804016 
1131	 0.312293349460416 
1132	 0.312611770020283 
1133	 0.313053112718292 
1134	 0.313231637359326 
1135	 0.313327751846275 
1136	 0.313542849542573 
1137	 0.313586409745934 
1138	 0.313590067782562 
1139	 0.313810627803241 
1140	 0.313962825912148 
1141	 0.313762087908528 
1142	 0.313605341189944 
1143	 0.313595696979168 
1144	 0.31353621197771 
1145	 0.313551843084399 
1146	 0.313771377339972 
1147	 0.313917296129001 
1148	 0.313900239863966 
1149	 0.314059105585664 
1150	 0.314331801716806 
1151	 0.314663823383269 
1152	 0.315021908356043 
1153	 0.315447301384142 
1154	 0.316017363026127 
1155	 0.316557380875309 
1156	 0.317015683294573 
1157	 0.317445468330141 
1158	 0.317787951019411 
1159	 0.318150400606801 
1160	 0.318506250617702 
1161	 0.318907013375592 
1162	 0.319236588871033 
1163	 0.319539584213055 
1164	 0.319818248526754 
1165	 0.320112075906264 
1166	 0.320293660426637 
1167	 0.320317180743366 
1168	 0.320509085597068 
1169	 0.320683217200553 
1170	 0.320970140413881 
1171	 0.321315929277535 
1172	 0.32165001710858 
1173	 0.321893193670806 
1174	 0.321980352361101 
1175	 0.322078632924397 
1176	 0.322172028871327 
1177	 0.322314663482133 
1178	 0.322476998336417 
1179	 0.322631894879113 
1180	 0.322831770258331 
1181	 0.322986595640529 
1182	 0.323105397252514 
1183	 0.323202479310072 
1184	 0.323254124447557 
1185	 0.323384171288005 
1186	 0.323509410412774 
1187	 0.323664775609714 
1188	 0.323906868034644 
1189	 0.324123101442907 
1190	 0.324226988379911 
1191	 0.3243267805098 
1192	 0.324458431456537 
1193	 0.324541067023648 
1194	 0.324712900646778 
1195	 0.325029288503689 
1196	 0.325142367930814 
1197	 0.325163108683163 
1198	 0.325270966619766 
1199	 0.325276463897929 
1200	 0.325400817758895 
1201	 0.325678248200623 
1202	 0.325866349294916 
1203	 0.326060487754344 
1204	 0.326208099846441 
1205	 0.326312468963654 
1206	 0.32641888133945 
1207	 0.326498106851439 
1208	 0.326574668767488 
1209	 0.326652407411008 
1210	 0.326705976699957 
1211	 0.326790707138639 
1212	 0.326804010624857 
1213	 0.326934651692043 
1214	 0.327143458532862 
1215	 0.327296615596325 
1216	 0.327492882934284 
1217	 0.327651799196284 
1218	 0.327794149866399 
1219	 0.327867101363105 
1220	 0.327892215364877 
1221	 0.327953053072703 
1222	 0.327945165489167 
1223	 0.328001923750832 
1224	 0.328106043796916 
1225	 0.32823390166039 
1226	 0.328411854486775 
1227	 0.328528824190335 
1228	 0.328610976590796 
1229	 0.328795521657283 
1230	 0.328846724864381 
1231	 0.328898552553391 
1232	 0.32895350249473 
1233	 0.328999177181561 
1234	 0.32907180035078 
1235	 0.329158795014018 
1236	 0.329231305435591 
1237	 0.329324888611033 
1238	 0.329392433832115 
1239	 0.329421764354168 
1240	 0.329474217115179 
1241	 0.329518783753262 
1242	 0.329602717391528 
1243	 0.329732635759706 
1244	 0.329821070616652 
1245	 0.329899228206503 
1246	 0.330002422464021 
1247	 0.330106012232631 
1248	 0.330187608221716 
1249	 0.330310069827496 
1250	 0.330397088601089 
1251	 0.33040641295381 
1252	 0.330446901931942 
1253	 0.330511370143439 
1254	 0.330614595747668 
1255	 0.330629806532014 
1256	 0.330585035409449 
1257	 0.330657892505646 
1258	 0.33070267263738 
1259	 0.330828311950017 
1260	 0.331158126361757 
1261	 0.331306693858071 
1262	 0.331358229239619 
1263	 0.331463444095494 
1264	 0.331531215930494 
1265	 0.331612602925727 
1266	 0.331733284518808 
1267	 0.331824128612786 
1268	 0.331872119264325 
1269	 0.331939552731878 
1270	 0.331992501843193 
1271	 0.332078894854912 
1272	 0.332207539971185 
1273	 0.332321476650859 
1274	 0.33237552424852 
1275	 0.332429365811708 
1276	 0.33244361656221 
1277	 0.332374686785943 
1278	 0.332363073592878 
1279	 0.332371728771698 
1280	 0.332365777528006 
1281	 0.332334045081522 
1282	 0.332351717694255 
1283	 0.33242783833726 
1284	 0.332425472275921 
1285	 0.332463791045336 
1286	 0.332392339465393 
1287	 0.33212301774931 
1288	 0.332033450235574 
1289	 0.3319971472486 
1290	 0.33194311930894 
1291	 0.332013956290848 
1292	 0.33200377585731 
1293	 0.331883155416962 
1294	 0.331819219540976 
1295	 0.331824978800538 
1296	 0.331754871537886 
1297	 0.3316482998657 
1298	 0.331526801021381 
1299	 0.331392073094771 
1300	 0.33114988075403 
1301	 0.331048400696838 
1302	 0.331050872295227 
1303	 0.330948432782701 
1304	 0.330861370663112 
1305	 0.330736382821671 
1306	 0.330545147896561 
1307	 0.33035488138052 
1308	 0.33012257558931 
1309	 0.329963479537464 
1310	 0.329814201477857 
1311	 0.329664903994585 
1312	 0.329621480983205 
1313	 0.329482811150445 
1314	 0.329226470845091 
1315	 0.32905359300702 
1316	 0.328936344117554 
1317	 0.328752817863088 
1318	 0.328607146217323 
1319	 0.328397024864308 
1320	 0.328065554867685 
1321	 0.327754027054687 
1322	 0.327467766584563 
1323	 0.327195798247823 
1324	 0.326867122946191 
1325	 0.326525033655406 
1326	 0.326175201790241 
1327	 0.325733663368343 
1328	 0.325390014842584 
1329	 0.325113251754932 
1330	 0.324806537084657 
1331	 0.324526991061618 
1332	 0.32423289272649 
1333	 0.32392523855107 
1334	 0.323635703636949 
1335	 0.323391133424307 
1336	 0.323087208951486 
1337	 0.322759245250613 
1338	 0.322416020160851 
1339	 0.322088669700953 
1340	 0.321606668817248 
1341	 0.320914694952434 
1342	 0.320284725087204 
1343	 0.319446765671681 
1344	 0.318590228821461 
1345	 0.31769560586683 
1346	 0.316654264467451 
1347	 0.315379723198721 
1348	 0.31410416950155 
1349	 0.312942201523617 
1350	 0.312136241855939 
1351	 0.310719601871015 
1352	 0.309274093438124 
1353	 0.307263977981801 
1354	 0.303943266935128 
1355	 0.30093938754837 
1356	 0.299653521340933 
1357	 0.296833729670143 
1358	 0.297234483137131 
1359	 0.295810773583151 
1360	 0.295055207111089 
1361	 0.295352189453326 
1362	 0.305399185887315 
1363	 0.30638876546806 
1364	 0.296121100889812 
1365	 0.292833861798453 
1366	 0.283913718002979 
1367	 0.278764723684873 
1368	 0.286098401946034 
1369	 0.285013390024645 
1370	 0.276160371075899 
1371	 0.275565195005793 
1372	 0.279480822932753 
1373	 0.278843875959111 
1374	 0.281251904582397 
1375	 0.27900751726741 
1376	 0.2702825926062 
1377	 0.263511998464256 
1378	 0.259988804982173 
1379	 0.254673152713917 
1380	 0.255817868227189 
1381	 0.264977868778269 
1382	 0.265979655018201 
1383	 0.266830683136867 
1384	 0.266510221904763 
1385	 0.261620897922371 
1386	 0.260616925476879 
1387	 0.261481255969771 
1388	 0.261673612776373 
1389	 0.262864716894494 
1390	 0.262347861813914 
1391	 0.261041915095122 
1392	 0.260180429684703 
1393	 0.25869080997829 
1394	 0.257557567627606 
1395	 0.256297231270781 
1396	 0.25639250750043 
1397	 0.25774249364833 
1398	 0.257243282061463 
1399	 0.256851938043281 
1400	 0.25614900397725 
1401	 0.253318466183194 
1402	 0.25262366236645 
1403	 0.253726080295416 
1404	 0.253784787107318 
1405	 0.254443175903724 
1406	 0.253906817955227 
1407	 0.253317735110116 
1408	 0.252812749774422 
1409	 0.251870879003572 
1410	 0.252658161098646 
1411	 0.253874516978413 
1412	 0.255861617163378 
1413	 0.256437533322362 
1414	 0.257520331998178 
1415	 0.257238429194762 
1416	 0.255465434758655 
1417	 0.255473369540406 
1418	 0.255792476829796 
1419	 0.256167977853228 
1420	 0.257092746280783 
1421	 0.257595860652445 
1422	 0.257950549767634 
1423	 0.258241175556334 
1424	 0.258669247533549 
1425	 0.258760445563696 
1426	 0.258404665808088 
1427	 0.258523780080461 
1428	 0.258691713930809 
1429	 0.258919232450293 
1430	 0.259640452769167 
1431	 0.25988077855747 
1432	 0.259756102676842 
1433	 0.259840159476332 
1434	 0.259863319826298 
1435	 0.259877752306692 
1436	 0.25995843635481 
1437	 0.260084086303152 
1438	 0.260062084429565 
1439	 0.260214711062019 
1440	 0.260599585436523 
1441	 0.260861657362925 
1442	 0.260996872476574 
1443	 0.261371404032164 
1444	 0.261580221802576 
1445	 0.261956672009993 
1446	 0.262488028234014 
1447	 0.263068619567346 
1448	 0.263590183743408 
1449	 0.264182276105941 
1450	 0.264570894502283 
1451	 0.264824370940985 
1452	 0.265190861573344 
1453	 0.265493193244227 
1454	 0.265910873246087 
1455	 0.266524737286042 
1456	 0.266829645694976 
1457	 0.267126029840597 
1458	 0.267230574077226 
1459	 0.267048484848394 
1460	 0.267091298583989 
1461	 0.267125286554979 
1462	 0.267221924967691 
1463	 0.26748495288149 
1464	 0.26762203274731 
1465	 0.267660879051517 
1466	 0.267814360989452 
1467	 0.267937079479729 
1468	 0.268198197178731 
1469	 0.268592722119222 
1470	 0.268999318285307 
1471	 0.269441734155145 
1472	 0.269926072950562 
1473	 0.27043541936415 
1474	 0.27096455647173 
1475	 0.27145567259813 
1476	 0.272069172950692 
1477	 0.27274536969956 
1478	 0.273424265764404 
1479	 0.274195615557696 
1480	 0.274930370471156 
1481	 0.275610841618629 
1482	 0.276319869089308 
1483	 0.276931475372372 
1484	 0.277718385419702 
1485	 0.278626298070604 
1486	 0.279493984823214 
1487	 0.280394416895466 
1488	 0.281357926551444 
1489	 0.282303616425561 
1490	 0.283062265517732 
1491	 0.283831768941251 
1492	 0.284521250839357 
1493	 0.285032619769874 
1494	 0.2856903859994 
1495	 0.286332113703439 
1496	 0.287035884340902 
1497	 0.287621104433988 
1498	 0.288178503576564 
1499	 0.288782359350928 
1500	 0.289338561624669 
1501	 0.289969994270461 
1502	 0.290702656491902 
1503	 0.291372850595531 
1504	 0.292049513240144 
1505	 0.292665756900533 
1506	 0.293280838500086 
1507	 0.293804181712182 
1508	 0.294244778129511 
1509	 0.294674999353819 
1510	 0.294978879199727 
1511	 0.29549451650134 
1512	 0.296061768592013 
1513	 0.296681985428569 
1514	 0.297498467153553 
1515	 0.298147134057154 
1516	 0.298742212455839 
1517	 0.299343868756439 
1518	 0.299939470905636 
1519	 0.300478659272032 
1520	 0.300944567947424 
1521	 0.301496248810169 
1522	 0.302072397202571 
1523	 0.302591291317518 
1524	 0.303157485976512 
1525	 0.303674457128132 
1526	 0.304068892541053 
1527	 0.304551199901743 
1528	 0.305128502761617 
1529	 0.305619664636739 
1530	 0.306057217283375 
1531	 0.306542731202447 
1532	 0.307007074316831 
1533	 0.30748920149067 
1534	 0.308046502172855 
1535	 0.308547678615133 
1536	 0.309008272014018 
1537	 0.309473184181684 
1538	 0.309942451074381 
1539	 0.310377124981756 
1540	 0.310751218799515 
1541	 0.311186937997389 
1542	 0.311647566348267 
1543	 0.312083413852553 
1544	 0.31257895658916 
1545	 0.313015521649181 
1546	 0.313396834140594 
1547	 0.313766290374708 
1548	 0.314058270677318 
1549	 0.314425557855414 
1550	 0.314775293048723 
1551	 0.315200272023718 
1552	 0.315825614452162 
1553	 0.316288794757028 
1554	 0.316681163640687 
1555	 0.317093317261215 
1556	 0.317390708475656 
1557	 0.317732341511134 
1558	 0.318167748705895 
1559	 0.318538511649194 
1560	 0.31882322088738 
1561	 0.319170763385178 
1562	 0.319539332633967 
1563	 0.319904207154223 
1564	 0.320253716149083 
1565	 0.320725239046636 
1566	 0.321165910409089 
1567	 0.321505451044808 
1568	 0.321878592981891 
1569	 0.322266093046304 
1570	 0.322601285969472 
1571	 0.322863210270122 
1572	 0.323261072012819 
1573	 0.323684433662053 
1574	 0.324126926110613 
1575	 0.324670967497651 
1576	 0.325102710563189 
1577	 0.325518613896064 
1578	 0.325800647558604 
1579	 0.325991532547175 
1580	 0.326213107762267 
1581	 0.326334988796423 
1582	 0.326519646250143 
1583	 0.326710154808877 
1584	 0.327015932142714 
1585	 0.32735750614193 
1586	 0.327698791711513 
1587	 0.328198209537808 
1588	 0.328480705223123 
1589	 0.32862427654617 
1590	 0.328857866306042 
1591	 0.329011525857936 
1592	 0.329339266029469 
1593	 0.329810358172972 
1594	 0.33012958430438 
1595	 0.330485679325017 
1596	 0.330761628052654 
1597	 0.33089642537839 
1598	 0.331154025274639 
1599	 0.331495814834624 
1600	 0.331710810796161 
1601	 0.331849335950695 
1602	 0.332114436852976 
1603	 0.332385406294122 
1604	 0.332626202700025 
1605	 0.332997133535165 
1606	 0.333165477774369 
1607	 0.333115516204978 
1608	 0.333299331426441 
1609	 0.333501658195596 
1610	 0.333772108337168 
1611	 0.334203120027814 
1612	 0.334491897334288 
1613	 0.334768049642169 
1614	 0.334975981304903 
1615	 0.335132476954139 
1616	 0.33524546924488 
1617	 0.335262946743398 
1618	 0.335368111059395 
1619	 0.335432201527911 
1620	 0.335625008516874 
1621	 0.335910764735683 
1622	 0.33619251853735 
1623	 0.336590341332923 
1624	 0.336824748521894 
1625	 0.337022166566729 
1626	 0.337147619827024 
1627	 0.33712116949278 
1628	 0.337252025979996 
1629	 0.337400554320725 
1630	 0.337616964107022 
1631	 0.337946470778041 
1632	 0.338166182938757 
1633	 0.338375513224378 
1634	 0.338575288481119 
1635	 0.338749685266366 
1636	 0.338909481149862 
1637	 0.339066313505077 
1638	 0.339178026903895 
1639	 0.339211598417112 
1640	 0.339347190659546 
1641	 0.339481063543875 
1642	 0.339726122313174 
1643	 0.340087245547673 
1644	 0.340368282631637 
1645	 0.340720810204295 
1646	 0.340891025817134 
1647	 0.340945693038804 
1648	 0.341046907740594 
1649	 0.341017628565945 
1650	 0.341208131502979 
1651	 0.341482595874985 
1652	 0.341834931598084 
1653	 0.342384983531759 
1654	 0.342652778297439 
1655	 0.34289573416018 
1656	 0.343057043552675 
1657	 0.343046155603473 
1658	 0.343155575503021 
1659	 0.343114791660813 
1660	 0.34311315272949 
1661	 0.343101927724604 
1662	 0.343299686386533 
1663	 0.343630085869673 
1664	 0.343727146577869 
1665	 0.343935698731909 
1666	 0.344188056278224 
1667	 0.344138197878554 
1668	 0.344232057835899 
1669	 0.344357794986371 
1670	 0.344208319936329 
1671	 0.344162148347443 
1672	 0.344234099272158 
1673	 0.344246358162021 
1674	 0.344251797226538 
1675	 0.344396118972496 
1676	 0.34461024014105 
1677	 0.34485788020498 
1678	 0.345113751473039 
1679	 0.345199624763453 
1680	 0.345177386205462 
1681	 0.345047983181198 
1682	 0.344942429151182 
1683	 0.344982765772309 
1684	 0.345062583031008 
1685	 0.345170982008043 
1686	 0.345338612370143 
1687	 0.345504769073984 
1688	 0.345492202307692 
1689	 0.345548578559129 
1690	 0.345763467283162 
1691	 0.345890040131144 
1692	 0.346127862081935 
1693	 0.346228580706599 
1694	 0.346101385173977 
1695	 0.346122197993253 
1696	 0.346233490395732 
1697	 0.346248480794435 
1698	 0.346230966651195 
1699	 0.346260545034302 
1700	 0.346254758350251 
1701	 0.346274689962361 
1702	 0.346368974066032 
1703	 0.346426624622617 
1704	 0.346451440831714 
1705	 0.346469701986607 
1706	 0.346554214462115 
1707	 0.346512080817395 
1708	 0.346279834493678 
1709	 0.346217529326314 
1710	 0.346212956619965 
1711	 0.346183566114814 
1712	 0.34620220444959 
1713	 0.346284628118621 
1714	 0.346418015802094 
1715	 0.346379376498207 
1716	 0.34646375152584 
1717	 0.346311190579362 
1718	 0.345806882750475 
1719	 0.345469806632645 
1720	 0.345069211671749 
1721	 0.344795225082505 
1722	 0.344538304982464 
1723	 0.34445370682741 
1724	 0.344606314090606 
1725	 0.34453391345357 
1726	 0.34446300823298 
1727	 0.344379312748417 
1728	 0.344161083172478 
1729	 0.344045840649323 
1730	 0.344059026895212 
1731	 0.344090997266936 
1732	 0.343864796344546 
1733	 0.343717216583977 
1734	 0.343575235491647 
1735	 0.343244685233291 
1736	 0.343057704950025 
1737	 0.342874315742886 
1738	 0.342434980801503 
1739	 0.341948950594585 
1740	 0.341648441018622 
1741	 0.341301731774867 
1742	 0.341041013932205 
1743	 0.340914878699385 
1744	 0.340538622904137 
1745	 0.340312158798495 
1746	 0.340215525088451 
1747	 0.339996618133035 
1748	 0.339925020362846 
1749	 0.339758945029491 
1750	 0.33934529080048 
1751	 0.339108984715834 
1752	 0.33885605749718 
1753	 0.338471054386844 
1754	 0.338260991475048 
1755	 0.338057826763149 
1756	 0.337736716146204 
1757	 0.337240552279884 
1758	 0.336891752575479 
1759	 0.3364432256348 
1760	 0.336050704510067 
1761	 0.335972857398618 
1762	 0.335663988842523 
1763	 0.335015358688921 
1764	 0.334661164133577 
1765	 0.334474336183927 
1766	 0.334152891473507 
1767	 0.333900158448966 
1768	 0.333662048723548 
1769	 0.333259388415129 
1770	 0.332816593461907 
1771	 0.332634066304911 
1772	 0.332095876297784 
1773	 0.331223141292658 
1774	 0.330973035673739 
1775	 0.330317009362059 
1776	 0.330353154728291 
1777	 0.330117107635471 
1778	 0.329559147479659 
1779	 0.329361224613932 
1780	 0.328960831063855 
1781	 0.328848182327276 
1782	 0.329035087048827 
1783	 0.328719089565318 
1784	 0.328124796871832 
1785	 0.327540365309266 
1786	 0.326980824942351 
1787	 0.326962025947369 
1788	 0.327115133512909 
1789	 0.326823712227588 
1790	 0.32647316815395 
1791	 0.325829929259214 
1792	 0.325077492186511 
1793	 0.325112327110997 
1794	 0.325204180535663 
1795	 0.32456976367515 
1796	 0.324010483688393 
1797	 0.323557089778143 
1798	 0.322432667602972 
1799	 0.321633759433654 
1800	 0.321708326249208 
1801	 0.322342421049683 
1802	 0.320382998261058 
1803	 0.318861284354325 
1804	 0.316503606941458 
1805	 0.315251738074292 
1806	 0.315340509347678 
1807	 0.314597204402013 
1808	 0.313649220600895 
1809	 0.313862600505573 
1810	 0.31295939877538 
1811	 0.310740335085251 
1812	 0.309976449353949 
1813	 0.309521787294786 
1814	 0.309297853581068 
1815	 0.310805283286744 
1816	 0.311368090701768 
1817	 0.312171720435548 
1818	 0.312371309255098 
1819	 0.312009725837372 
1820	 0.310335260807665 
1821	 0.309703164744902 
1822	 0.307663288757076 
1823	 0.308084754706458 
1824	 0.314105443781793 
1825	 0.314212999247921 
1826	 0.310139354355672 
1827	 0.308599945816433 
1828	 0.305765884313898 
1829	 0.293271333025472 
1830	 0.287866422841874 
1831	 0.293156696454579 
1832	 0.293346648942185 
1833	 0.300618234405216 
1834	 0.293924421235546 
1835	 0.253625200472525 
1836	 0.242412418578173 
1837	 0.249435350778877 
1838	 0.246768521103822 
1839	 0.25933021779846 
1840	 0.345392031300492 
1841	 0.356445846217287 
1842	 0.296736715178619 
1843	 0.298829018297271 
1844	 0.326123394518121 
1845	 0.329047630230669 
1846	 0.351882193774632 
1847	 0.352670695629619 
1848	 0.336946823668662 
1849	 0.268266113512807 
1850	 0.25963192082264 
1851	 0.282849974814423 
1852	 0.273664464402856 
1853	 0.287776802112337 
1854	 0.270799948739136 
1855	 0.185977447679336 
1856	 0.16936776532144 
1857	 0.159641892826775 
1858	 0.196287506792037 
1859	 0.209876805151108 
1860	 0.25225542599976 
1861	 0.262368097150525 
1862	 0.249957525291416 
1863	 0.249015812215831 
1864	 0.249260282427604 
1865	 0.25005826589316 
1866	 0.249556786469629 
1867	 0.259468289199806 
1868	 0.259028719670072 
1869	 0.230628117641419 
1870	 0.224074935691996 
1871	 0.214046818382079 
1872	 0.213894896839802 
1873	 0.236215064835735 
1874	 0.240516413070855 
1875	 0.237912952100999 
1876	 0.231938550672188 
1877	 0.217872863243135 
1878	 0.215414319314977 
1879	 0.221829162772358 
1880	 0.226906425370399 
1881	 0.228188944100468 
1882	 0.231391745268534 
1883	 0.234101087248244 
1884	 0.233248632574074 
1885	 0.235727688340323 
1886	 0.242411730802117 
1887	 0.247482472603471 
1888	 0.249101886053818 
1889	 0.24114829904335 
1890	 0.238583917078967 
1891	 0.232296882419394 
1892	 0.229186530068077 
1893	 0.23408112675589 
1894	 0.230169593544349 
1895	 0.213084864980255 
1896	 0.210058484162561 
1897	 0.216564143878767 
1898	 0.208404149510038 
1899	 0.208027726572244 
1900	 0.229328370072143 
1901	 0.236263563445135 
1902	 0.228794614256665 
1903	 0.230152396576246 
1904	 0.23185899934162 
1905	 0.234430303759477 
1906	 0.243099564633943 
1907	 0.229220168714859 
1908	 0.241057407890382 
1909	 0.244549053240099 
1910	 0.224715482385744 
1911	 0.226894494644685 
1912	 0.225647712913155 
1913	 0.221455063530145 
1914	 0.219501815471599 
1915	 0.220746247356976 
1916	 0.220430291683665 
1917	 0.21922009870531 
1918	 0.21918187385624 
1919	 0.215232903713963 
1920	 0.213229092392469 
1921	 0.211260401821005 
1922	 0.210080211930891 
1923	 0.211150541096731 
1924	 0.216291576175451 
1925	 0.218454394707683 
1926	 0.219613708133747 
1927	 0.220574280573813 
1928	 0.221782620883018 
1929	 0.222114240764463 
1930	 0.220531474549658 
1931	 0.220082469660814 
1932	 0.219940166271689 
1933	 0.223961666956674 
1934	 0.226935677524603 
1935	 0.231616190398293 
1936	 0.23468108649223 
1937	 0.238611651682123 
1938	 0.238534874925293 
1939	 0.236091967371142 
1940	 0.235220769077875 
1941	 0.235049694257996 
1942	 0.233950037721953 
1943	 0.233540350127393 
1944	 0.233796374990026 
1945	 0.233474851578948 
1946	 0.233476992737115 
1947	 0.233768622297672 
1948	 0.234840908584237 
1949	 0.236142038072694 
1950	 0.237583281536223 
1951	 0.238777533724762 
1952	 0.24080268855353 
1953	 0.243078689445651 
1954	 0.243397169585633 
1955	 0.243503392981709 
1956	 0.243417754068637 
1957	 0.243670782607911 
1958	 0.24468277342688 
1959	 0.246581839810044 
1960	 0.247374152140292 
1961	 0.248195203980334 
1962	 0.248931639683783 
1963	 0.248855322840187 
1964	 0.249082585668228 
1965	 0.249654209575842 
1966	 0.250462971144704 
1967	 0.250412981564013 
1968	 0.250974674738791 
1969	 0.251575832837171 
1970	 0.251944214021372 
1971	 0.252290693626658 
1972	 0.252902422484116 
1973	 0.253630589193711 
1974	 0.253523796945911 
1975	 0.253848616850038 
1976	 0.254200812512798 
1977	 0.254072141682286 
1978	 0.254435643950131 
1979	 0.255030750116866 
1980	 0.255527446890112 
1981	 0.256047989766053 
1982	 0.256589724516785 
1983	 0.257259591074734 
1984	 0.257522235814579 
1985	 0.25772142993369 
1986	 0.258331544579764 
1987	 0.258426946501604 
1988	 0.258433004520136 
1989	 0.25877111533107 
1990	 0.258959306251639 
1991	 0.25946234221688 
1992	 0.260264281997301 
1993	 0.260751071051519 
1994	 0.260919369965585 
1995	 0.260976036620754 
1996	 0.260471880279867 
1997	 0.260052394244712 
1998	 0.260474221058596 
1999	 0.261517613449673 
2000	 0.262889081380279 
2001	 0.264848981987236 
2002	 0.266551128518243 
2003	 0.267025478122852 
2004	 0.267369854061625 
2005	 0.267655616861421 
2006	 0.267867344049818 
2007	 0.267349895031321 
2008	 0.26794897077094 
2009	 0.269531437291701 
2010	 0.270572397066754 
2011	 0.270844542854892 
2012	 0.271838868941873 
2013	 0.272428361053181 
2014	 0.271788932069197 
2015	 0.272191131982051 
2016	 0.272425621670458 
2017	 0.272231952604858 
2018	 0.273079973519479 
2019	 0.273682484916164 
2020	 0.274517202076062 
2021	 0.275138131164316 
2022	 0.275431321816573 
2023	 0.275264700720853 
2024	 0.275663981763858 
2025	 0.275922482085162 
2026	 0.276349609908574 
2027	 0.277095490631563 
2028	 0.277192906295083 
2029	 0.277285738858122 
2030	 0.277585296680776 
2031	 0.27779644709254 
2032	 0.27809584994365 
2033	 0.278546763770269 
2034	 0.279203441808293 
2035	 0.2796932038408 
2036	 0.28001234737537 
2037	 0.280535738267868 
2038	 0.281078786757493 
2039	 0.281359477065716 
2040	 0.28169073687969 
2041	 0.282241444146419 
2042	 0.282516963623843 
2043	 0.28275234663595 
2044	 0.283094184574508 
2045	 0.28343344651109 
2046	 0.283694959260462 
2047	 0.284041961017945 
2048	 0.28427484176175 
2049	 0.284604733782363 
2050	 0.2848455457613 
2051	 0.284968996935819 
2052	 0.285311759713142 
2053	 0.285509060330613 
2054	 0.286023353692528 
2055	 0.287001455092255 
2056	 0.28733691292956 
2057	 0.288176065993329 
2058	 0.28921069866346 
2059	 0.289498866678591 
2060	 0.288963255770721 
2061	 0.289297120823844 
2062	 0.289774615066579 
2063	 0.289652954461165 
2064	 0.290157780461315 
2065	 0.290621053579021 
2066	 0.29049189961176 
2067	 0.291077270945992 
2068	 0.29200915551706 
2069	 0.292587524605121 
2070	 0.293214449801514 
2071	 0.293285468588543 
2072	 0.293437322972857 
2073	 0.293230300773715 
2074	 0.293500924403268 
2075	 0.293973664087041 
2076	 0.294386851808069 
2077	 0.294777679236225 
2078	 0.294937307785347 
2079	 0.294576679105789 
2080	 0.294634805449145 
2081	 0.295050787002347 
2082	 0.295512341381863 
2083	 0.296470345114699 
2084	 0.296816940071031 
2085	 0.296612496795744 
2086	 0.297186639553136 
2087	 0.297680280569673 
2088	 0.298195336018646 
2089	 0.298819731276558 
2090	 0.299746581777617 
2091	 0.299969167359232 
2092	 0.299914096362579 
2093	 0.300425004752758 
2094	 0.300913966824634 
2095	 0.301139796223669 
2096	 0.301603511461615 
2097	 0.301876644464325 
2098	 0.301757339656683 
2099	 0.301841667623708 
2100	 0.302106776661769 
2101	 0.302541010929161 
2102	 0.302964866340858 
2103	 0.303629563711048 
2104	 0.304189101137963 
2105	 0.304748333351706 
2106	 0.304908985549725 
2107	 0.305225096848292 
2108	 0.305982036185622 
2109	 0.306462011167029 
2110	 0.307223818273968 
2111	 0.308107896738217 
2112	 0.30840724533477 
2113	 0.308339210997865 
2114	 0.308352316886012 
2115	 0.308817079961395 
2116	 0.309555831615286 
2117	 0.310020550424931 
2118	 0.310813415883192 
2119	 0.311125465857824 
2120	 0.310903400906249 
2121	 0.310758864319736 
2122	 0.31115426835117 
2123	 0.311977098738669 
2124	 0.3130256155549 
2125	 0.314013039621075 
2126	 0.314328074511154 
2127	 0.314214186845171 
2128	 0.314436914265755 
2129	 0.314570417611508 
2130	 0.314533010008946 
2131	 0.314927594819245 
2132	 0.315378755249548 
2133	 0.315627885014674 
2134	 0.315824326399379 
2135	 0.31617654577928 
2136	 0.316443315931902 
2137	 0.316523288543246 
2138	 0.316421365566726 
2139	 0.316604430163076 
2140	 0.316856526673264 
2141	 0.316722645168945 
2142	 0.316735860245614 
2143	 0.316631276001102 
2144	 0.316269975592912 
2145	 0.316241705497898 
2146	 0.316430432014202 
2147	 0.316661569133259 
2148	 0.317448276780251 
2149	 0.31790068260231 
2150	 0.31823381760694 
2151	 0.318381473682473 
2152	 0.318098915873798 
2153	 0.317755429179827 
2154	 0.317375116041548 
2155	 0.316789089039576 
2156	 0.316113701865542 
2157	 0.316203197601227 
2158	 0.316167828981332 
2159	 0.316327859349788 
2160	 0.316643546734735 
2161	 0.316776853437041 
2162	 0.316992910788594 
2163	 0.316464605093881 
2164	 0.315994725660268 
2165	 0.316143868435952 
2166	 0.316118993161235 
2167	 0.316712169998619 
2168	 0.316717935119135 
2169	 0.316226422127932 
2170	 0.315901987202409 
2171	 0.315489558541067 
2172	 0.31464377964992 
2173	 0.314397945643997 
2174	 0.314765633782353 
2175	 0.315166704676008 
2176	 0.315512843275594 
2177	 0.315546608885655 
2178	 0.315125154580585 
2179	 0.313725580092977 
2180	 0.312675313150962 
2181	 0.312689210853278 
2182	 0.312784281878919 
2183	 0.313076523290437 
2184	 0.313455520815923 
2185	 0.313902263526196 
2186	 0.314129989255312 
2187	 0.314072910093706 
2188	 0.314101870217648 
2189	 0.31401317997862 
2190	 0.313530503195513 
2191	 0.312864524076979 
2192	 0.31274241899345 
2193	 0.312381164253042 
2194	 0.3119260613765 
2195	 0.312182052627911 
2196	 0.312015544115147 
2197	 0.31191047231741 
2198	 0.312323899528242 
2199	 0.311598727910928 
2200	 0.311002672534959 
2201	 0.310913592401924 
2202	 0.310232688761892 
2203	 0.310108764328081 
2204	 0.310122824394551 
2205	 0.309709918573005 
2206	 0.309684083166665 
2207	 0.309447110741634 
2208	 0.309228638917012 
2209	 0.309015677746378 
2210	 0.309263774093256 
2211	 0.309810393980564 
2212	 0.30971450746864 
2213	 0.310042402333373 
2214	 0.310289237214882 
2215	 0.309536052505828 
2216	 0.309857346369087 
2217	 0.31029735905145 
2218	 0.309922955960739 
2219	 0.310218403886974 
2220	 0.31057914336469 
2221	 0.310934697344948 
2222	 0.311731384749174 
2223	 0.312170144879364 
2224	 0.3118652920348 
2225	 0.311087466964574 
2226	 0.310655103272756 
2227	 0.310647813287641 
2228	 0.310719209730541 
2229	 0.311276765265485 
2230	 0.311450982467556 
2231	 0.311311270520041 
2232	 0.310713037108898 
2233	 0.310517815560739 
2234	 0.310138746258078 
2235	 0.309999655019857 
2236	 0.310429704929081 
2237	 0.310132603899032 
2238	 0.30999981843397 
2239	 0.310101367957209 
2240	 0.309964781359155 
2241	 0.309843229784388 
2242	 0.31030083263578 
2243	 0.310683167977437 
2244	 0.310002534491061 
2245	 0.310510841351013 
2246	 0.311163114258285 
2247	 0.311084586606299 
2248	 0.311378656400049 
2249	 0.311313053878137 
2250	 0.310937774534514 
2251	 0.310306062989082 
2252	 0.310079097277228 
2253	 0.309822519450494 
2254	 0.309525582273132 
2255	 0.309871455881558 
2256	 0.310117684827419 
2257	 0.310726523872867 
2258	 0.311092704566818 
2259	 0.310417328277019 
2260	 0.309270855718428 
2261	 0.308069633969808 
2262	 0.307116907490894 
2263	 0.306832587502353 
2264	 0.306819632833753 
2265	 0.307289674959531 
2266	 0.307805855035539 
2267	 0.308306657163772 
2268	 0.308522343269847 
2269	 0.307938623887753 
2270	 0.307864130271734 
2271	 0.307514616165677 
2272	 0.306480776718355 
2273	 0.30585907520274 
2274	 0.304610793408035 
2275	 0.303562973213356 
2276	 0.304018113029059 
2277	 0.305291536347682 
2278	 0.305938400006843 
2279	 0.305724687083706 
2280	 0.305706199371867 
2281	 0.304930693990498 
2282	 0.304265583711426 
2283	 0.304354492901625 
2284	 0.303472062516617 
2285	 0.302279860175272 
2286	 0.301350998583274 
2287	 0.300181884867083 
2288	 0.299292644244297 
2289	 0.299420769549305 
2290	 0.299850155111554 
2291	 0.300361510336231 
2292	 0.301117711416471 
2293	 0.301940397534792 
2294	 0.301970629883775 
2295	 0.301781579333123 
2296	 0.301067386855971 
2297	 0.298891203366555 
2298	 0.298362315339603 
2299	 0.298909366482534 
2300	 0.29850622125821 
2301	 0.299517757552154 
2302	 0.299654591469626 
2303	 0.298135840838591 
2304	 0.298209774832971 
2305	 0.297771177853716 
2306	 0.297058834927439 
2307	 0.29722800259636 
2308	 0.297394132210533 
2309	 0.29796692764464 
2310	 0.297845810580059 
2311	 0.297892446639867 
2312	 0.298030712805355 
2313	 0.296109777537252 
2314	 0.294863186389051 
2315	 0.295325931680485 
2316	 0.293399815540572 
2317	 0.293361655775911 
2318	 0.29550081986315 
2319	 0.294180757898988 
2320	 0.2942422330182 
2321	 0.293763474259178 
2322	 0.29145009492268 
2323	 0.29032752943376 
2324	 0.289918688584979 
2325	 0.289478031791228 
2326	 0.289837995156886 
2327	 0.290416605405461 
2328	 0.290674827572244 
2329	 0.290416328948578 
2330	 0.289522666157077 
2331	 0.288789738780379 
2332	 0.289126177051655 
2333	 0.290271303420622 
2334	 0.29101899866648 
2335	 0.291359635130668 
2336	 0.290722356213496 
2337	 0.289395177971355 
2338	 0.288690939454503 
2339	 0.28917879050702 
2340	 0.288592577752659 
2341	 0.287942179993998 
2342	 0.288153304121407 
2343	 0.287122314635004 
2344	 0.287346342626168 
2345	 0.288246730840021 
2346	 0.287784564521006 
2347	 0.288383401524995 
2348	 0.2886354827735 
2349	 0.287037308440488 
2350	 0.286009999120116 
2351	 0.284494025072574 
2352	 0.282368263358567 
2353	 0.282621040367145 
2354	 0.283853690934711 
2355	 0.284102434321534 
2356	 0.283675650540459 
2357	 0.281835242171034 
2358	 0.280942079565845 
2359	 0.28081678176732 
2360	 0.282305327006667 
2361	 0.285702477732357 
2362	 0.285220491612028 
2363	 0.284192015950181 
2364	 0.282903937289459 
2365	 0.280045162342042 
2366	 0.279610959061867 
2367	 0.279187332556942 
2368	 0.278146384468389 
2369	 0.27825502665832 
2370	 0.278240747936161 
2371	 0.278005304145734 
2372	 0.277827528148707 
2373	 0.278381831218549 
2374	 0.277434414679145 
2375	 0.274876949911908 
2376	 0.273397189692189 
2377	 0.271915673672943 
2378	 0.270513886652295 
2379	 0.270655069191431 
2380	 0.269843056806416 
2381	 0.266834867753929 
2382	 0.266574904083527 
2383	 0.267399152206992 
2384	 0.26807997919865 
2385	 0.271199778370083 
2386	 0.27170601341208 
2387	 0.26997701904559 
2388	 0.269632338130229 
2389	 0.26935789921835 
2390	 0.269440660489275 
2391	 0.270489352432052 
2392	 0.270756057376784 
2393	 0.270907881470627 
2394	 0.270618775585885 
2395	 0.270191210496098 
2396	 0.269602110723026 
2397	 0.267310602267081 
2398	 0.265357772683567 
2399	 0.262824806892687 
2400	 0.262519423815681 
2401	 0.26341890113752 
2402	 0.265327941531217 
2403	 0.268336249267311 
2404	 0.269012595630527 
2405	 0.264077443569377 
2406	 0.261159373584489 
2407	 0.256951511745353 
2408	 0.253534478825695 
2409	 0.256150278808004 
2410	 0.25751787906489 
2411	 0.261801749840804 
2412	 0.266331679484843 
2413	 0.26496347989264 
2414	 0.265516207492325 
2415	 0.264507104004806 
2416	 0.259420645073681 
2417	 0.257727011258139 
2418	 0.256292901498434 
2419	 0.256164651841001 
2420	 0.257535743998223 
2421	 0.255444595290109 
2422	 0.254079482922949 
2423	 0.253725423612315 
2424	 0.250578494912135 
2425	 0.24726526401668 
2426	 0.248077260870992 
2427	 0.246544923241634 
2428	 0.244055066883517 
2429	 0.247987164917675 
2430	 0.251495347337609 
2431	 0.251109396893433 
2432	 0.251882047898273 
2433	 0.245018605534731 
2434	 0.244033561471467 
2435	 0.249576083487015 
2436	 0.248444386678 
2437	 0.246908809835022 
2438	 0.24617025010673 
2439	 0.23962644398849 
2440	 0.237065071639253 
2441	 0.237504473928318 
2442	 0.240872609188437 
2443	 0.247191891015043 
2444	 0.250055760859728 
2445	 0.256741403588779 
2446	 0.259708337754821 
2447	 0.257624669087792 
2448	 0.254070682110495 
2449	 0.246237325464283 
2450	 0.24362047132264 
2451	 0.240539480079255 
2452	 0.240155099552713 
2453	 0.247109414559692 
2454	 0.249661818742785 
2455	 0.251763302314183 
2456	 0.250414526598226 
2457	 0.245882182648682 
2458	 0.243959774563569 
2459	 0.239370792789663 
2460	 0.23728999650553 
2461	 0.236563071400187 
2462	 0.236027825338003 
2463	 0.237502355883769 
2464	 0.238078456191132 
2465	 0.241601153822183 
2466	 0.242447328641498 
2467	 0.241349351496999 
2468	 0.235488629440667 
2469	 0.223336570311079 
2470	 0.216695617239137 
2471	 0.207335988763907 
2472	 0.200670119566623 
2473	 0.19879068029131 
2474	 0.195558625350512 
2475	 0.192104841541278 
2476	 0.192449039440279 
2477	 0.199608500793323 
2478	 0.207554991610938 
2479	 0.217725238882396 
2480	 0.223397641508641 
2481	 0.228736269867552 
2482	 0.233619520945463 
2483	 0.233403720259236 
2484	 0.243816170418068 
2485	 0.271078971879293 
2486	 0.264613307902439 
2487	 0.23941208210618 
2488	 0.189677517651895 
2489	 0.124965410568597 
2490	 0.057347659731773 
2491	 5.73813784556532E-02 
2492	 7.05571266288692E-02 
2493	 6.79324698234722E-02 
2494	 0.137514122588664 
2495	 0.171598018652674 
2496	 0.184520660448478 
2497	 0.252850996368465 
2498	 0.268629451979102 
2499	 0.286752963572515 
2500	 0.306478882687992 
