Wavelength	ref00025.asd
350	 1.95016598044371E-02 
351	 1.93127119096161E-02 
352	 1.96674634203757E-02 
353	 1.94667587458605E-02 
354	 1.98503773209797E-02 
355	 2.00206247301925E-02 
356	 0.019542016587379 
357	 1.93601798496192E-02 
358	 1.96225015498594E-02 
359	 1.98742159896457E-02 
360	 1.97196278134603E-02 
361	 1.99633166688124E-02 
362	 1.99519388690577E-02 
363	 1.98214054771357E-02 
364	 2.01320556458104E-02 
365	 1.98850607285183E-02 
366	 1.97936159685271E-02 
367	 2.00954308960391E-02 
368	 0.02008768591216 
369	 2.05228482882146E-02 
370	 2.07765483561516E-02 
371	 2.05016090035321E-02 
372	 2.12364236840947E-02 
373	 2.16472224969837E-02 
374	 2.18327317638726E-02 
375	 2.25288494813292E-02 
376	 2.31215333688266E-02 
377	 2.40331429610823E-02 
378	 2.52708742736247E-02 
379	 2.62573868187071E-02 
380	 2.73642119423091E-02 
381	 2.86769871845047E-02 
382	 3.02381437836446E-02 
383	 3.21401809328231E-02 
384	 3.44806621297634E-02 
385	 0.036932148216882 
386	 3.91943774944331E-02 
387	 0.042464364847757 
388	 4.61209112853039E-02 
389	 4.97771623190918E-02 
390	 0.053460998803303 
391	 5.81197966143769E-02 
392	 6.34052948177227E-02 
393	 6.90757273247229E-02 
394	 7.56387124828849E-02 
395	 8.29884361528499E-02 
396	 9.08351266192367E-02 
397	 9.88909404005379E-02 
398	 0.107263069367802 
399	 0.115876590959514 
400	 0.124605202257335 
401	 0.133351104217389 
402	 0.142565354540155 
403	 0.152420587461821 
404	 0.162968550767862 
405	 0.1741837755675 
406	 0.186268577686469 
407	 0.199174471911915 
408	 0.212672860633576 
409	 0.226432534968437 
410	 0.240302157348788 
411	 0.254161964550629 
412	 0.267915930490532 
413	 0.281093890046638 
414	 0.293882874346053 
415	 0.306491115029261 
416	 0.318945589165305 
417	 0.330931541740743 
418	 0.342434205797584 
419	 0.353582878872207 
420	 0.364461284790996 
421	 0.374576798573167 
422	 0.383889718176336 
423	 0.392806936365636 
424	 0.40121366324959 
425	 0.40890298916049 
426	 0.415861103332974 
427	 0.42249634730181 
428	 0.428956862703823 
429	 0.435081598640676 
430	 0.440676926004041 
431	 0.446050833335983 
432	 0.450937655935199 
433	 0.455234755597422 
434	 0.459030354667141 
435	 0.462586573542566 
436	 0.465738403396468 
437	 0.46837162345378 
438	 0.470536261031946 
439	 0.47289849596851 
440	 0.475200258266623 
441	 0.476956122302612 
442	 0.478477927467996 
443	 0.48001760019874 
444	 0.481485443170457 
445	 0.482512836854912 
446	 0.483557218386863 
447	 0.48454016126768 
448	 0.485371783285741 
449	 0.486193812698978 
450	 0.486823722789712 
451	 0.487406032339594 
452	 0.488150576476665 
453	 0.488723281192241 
454	 0.489187892548305 
455	 0.489632098293331 
456	 0.490131499450285 
457	 0.490699267820188 
458	 0.491221829961206 
459	 0.491621437996735 
460	 0.49202038399059 
461	 0.492263625675172 
462	 0.492485361176842 
463	 0.492921272215362 
464	 0.493222537735295 
465	 0.493439047896228 
466	 0.493651139375711 
467	 0.493915134891746 
468	 0.494224967064195 
469	 0.494495267721016 
470	 0.494675796755337 
471	 0.49493897701954 
472	 0.49516939504624 
473	 0.49536807483413 
474	 0.495601030965733 
475	 0.495641646789557 
476	 0.495645068699224 
477	 0.495756363495569 
478	 0.496005037045764 
479	 0.496290595646812 
480	 0.496570468605148 
481	 0.496813055966601 
482	 0.496931085588882 
483	 0.497006128038133 
484	 0.497105276945498 
485	 0.497266188113582 
486	 0.497379251246152 
487	 0.497560443176354 
488	 0.497906472610101 
489	 0.498365001534705 
490	 0.498818645099396 
491	 0.499136736958462 
492	 0.499258351420108 
493	 0.499488200270118 
494	 0.499823141322628 
495	 0.500244589095257 
496	 0.500746202737118 
497	 0.501118605938296 
498	 0.501420451937973 
499	 0.50174019378441 
500	 0.502015526058638 
501	 0.50226356450362 
502	 0.502547195072006 
503	 0.502937036007869 
504	 0.503296522038241 
505	 0.503646512021577 
506	 0.504019893399414 
507	 0.504438246025512 
508	 0.504816164515821 
509	 0.505195798975824 
510	 0.505652300971588 
511	 0.50622228445265 
512	 0.506745582597964 
513	 0.507231389568375 
514	 0.507825740225002 
515	 0.50830731710204 
516	 0.508713908320148 
517	 0.509153928260079 
518	 0.509788327460543 
519	 0.510519005343428 
520	 0.511286087534576 
521	 0.51203096348202 
522	 0.512630565619832 
523	 0.51316802201074 
524	 0.513697888826774 
525	 0.514218755785007 
526	 0.514657275620313 
527	 0.515161005900132 
528	 0.515856015069976 
529	 0.516677657126828 
530	 0.517356432911275 
531	 0.517832427830937 
532	 0.518204474539512 
533	 0.518733987305398 
534	 0.519326466342048 
535	 0.519908841564613 
536	 0.520537569162182 
537	 0.520961325226225 
538	 0.52125166113867 
539	 0.521561948921307 
540	 0.521890571890129 
541	 0.522255110514302 
542	 0.522634018012743 
543	 0.522976679524241 
544	 0.523339294386212 
545	 0.523658491043882 
546	 0.523910937295653 
547	 0.52419481219915 
548	 0.524553500916431 
549	 0.52494506852357 
550	 0.525289752064827 
551	 0.525544455731346 
552	 0.525878547540184 
553	 0.526306216738672 
554	 0.526639707125127 
555	 0.52701090859518 
556	 0.527352366556965 
557	 0.527610981205826 
558	 0.527945577008104 
559	 0.528223141768452 
560	 0.52841305266369 
561	 0.528556128997406 
562	 0.528634987928361 
563	 0.528638413510695 
564	 0.528586913986526 
565	 0.528555607681147 
566	 0.528504582701825 
567	 0.52842714871537 
568	 0.528304378793861 
569	 0.528001689413887 
570	 0.527717878802314 
571	 0.527585378791402 
572	 0.527641828598094 
573	 0.527698816422241 
574	 0.527844339239875 
575	 0.528148622437473 
576	 0.528503193461041 
577	 0.528892054660762 
578	 0.529273703713874 
579	 0.529588544135874 
580	 0.529739709248446 
581	 0.529672865318228 
582	 0.529487572112183 
583	 0.529469334292158 
584	 0.529243995083948 
585	 0.52889491233699 
586	 0.52860397836821 
587	 0.528434906091224 
588	 0.5282317647357 
589	 0.528020578982837 
590	 0.527979947667007 
591	 0.52829898853145 
592	 0.52857834794456 
593	 0.528627138841288 
594	 0.52874738452466 
595	 0.528906779607003 
596	 0.529105216541056 
597	 0.529359540427363 
598	 0.529756411454151 
599	 0.530247248766492 
600	 0.530732224829274 
601	 0.531075977700849 
602	 0.531410457083654 
603	 0.531721739160046 
604	 0.531978568269436 
605	 0.532170294621125 
606	 0.532430734804865 
607	 0.532687777039171 
608	 0.532778012345235 
609	 0.532726080065679 
610	 0.53270972754912 
611	 0.532759875010186 
612	 0.532684919077889 
613	 0.53257221810681 
614	 0.532491471858531 
615	 0.532467474975722 
616	 0.532366090836889 
617	 0.532273610436376 
618	 0.532300670388274 
619	 0.532523611217439 
620	 0.532554428711317 
621	 0.532531996970258 
622	 0.532582741217757 
623	 0.532664825014441 
624	 0.532765550801229 
625	 0.532875784198842 
626	 0.532990062192381 
627	 0.53310764312678 
628	 0.533264714764888 
629	 0.533418687167526 
630	 0.533457692133755 
631	 0.533537897102834 
632	 0.533573689039216 
633	 0.533529822189589 
634	 0.533627719445245 
635	 0.533673901571 
636	 0.53367507603508 
637	 0.533707093998033 
638	 0.533662894512717 
639	 0.533558171363345 
640	 0.533427049559307 
641	 0.533316435804601 
642	 0.533248077241765 
643	 0.533158339127208 
644	 0.533003853757027 
645	 0.532888374177604 
646	 0.532720622378848 
647	 0.532524576014983 
648	 0.53240684023693 
649	 0.532502946922921 
650	 0.532640961283105 
651	 0.532700287127927 
652	 0.53270891876503 
653	 0.532857806814866 
654	 0.533064829418238 
655	 0.53317974596432 
656	 0.533116537141456 
657	 0.533152714504479 
658	 0.533378929848296 
659	 0.533691096502248 
660	 0.533758227280466 
661	 0.533793662831213 
662	 0.533934822948003 
663	 0.534033546667651 
664	 0.534148429493736 
665	 0.534254196568665 
666	 0.534322634643294 
667	 0.534431570574405 
668	 0.53459654916373 
669	 0.534806730350785 
670	 0.535026573664519 
671	 0.535126008731989 
672	 0.535266478491857 
673	 0.53556819596707 
674	 0.535948304882056 
675	 0.536297128467884 
676	 0.536628878956447 
677	 0.537002963361892 
678	 0.53739748885837 
679	 0.53779647330429 
680	 0.538205358628886 
681	 0.538649294223793 
682	 0.53911282173657 
683	 0.539605030423785 
684	 0.540176543754354 
685	 0.540987159173869 
686	 0.541838741405648 
687	 0.542698689600082 
688	 0.543540177796806 
689	 0.544503743452051 
690	 0.545457112625879 
691	 0.546391337651916 
692	 0.547362168680359 
693	 0.548430421689847 
694	 0.549778273764974 
695	 0.551527994034777 
696	 0.553657440003224 
697	 0.555733838580202 
698	 0.55772042137563 
699	 0.55976082628611 
700	 0.561868676788203 
701	 0.564217520267949 
702	 0.566713111295881 
703	 0.56894830136344 
704	 0.571520967006101 
705	 0.57408518963445 
706	 0.576347336495226 
707	 0.578617989605329 
708	 0.58096651010009 
709	 0.583351559761329 
710	 0.585666071235401 
711	 0.587977255605964 
712	 0.590229546652838 
713	 0.592422387246777 
714	 0.594623206337562 
715	 0.596641363031437 
716	 0.598243230235654 
717	 0.599434790128618 
718	 0.60073182396555 
719	 0.602580411704751 
720	 0.60505892096918 
721	 0.607846166437406 
722	 0.610314954151866 
723	 0.612164120518034 
724	 0.61359283810859 
725	 0.615104918730025 
726	 0.616716854799088 
727	 0.618444106482505 
728	 0.620253830415043 
729	 0.621906445993574 
730	 0.623378731621445 
731	 0.624838601006975 
732	 0.626475950419 
733	 0.628110371578727 
734	 0.629558509180592 
735	 0.630757526395479 
736	 0.631731026125502 
737	 0.632785468738201 
738	 0.633797861040971 
739	 0.634689200966107 
740	 0.635604765629268 
741	 0.636384084685997 
742	 0.637121269708854 
743	 0.637915126933393 
744	 0.638514228316028 
745	 0.639071568938693 
746	 0.639552881045873 
747	 0.639812791495131 
748	 0.640245424494905 
749	 0.640656030525988 
750	 0.640945379728393 
751	 0.641315638186821 
752	 0.64162102502165 
753	 0.641873142564752 
754	 0.642092606525647 
755	 0.642146455845315 
756	 0.642345311431448 
757	 0.642618158179925 
758	 0.642769632574418 
759	 0.643703976565865 
760	 0.645127375339158 
761	 0.646317035304135 
762	 0.646151430287652 
763	 0.646000016987215 
764	 0.645788031852848 
765	 0.645325087915713 
766	 0.64484398364835 
767	 0.644464651032557 
768	 0.644316908259617 
769	 0.644434239487117 
770	 0.644369023968347 
771	 0.644395031841221 
772	 0.644523179029117 
773	 0.644540798930211 
774	 0.644684741399358 
775	 0.644790215978364 
776	 0.644797194583626 
777	 0.644922392202622 
778	 0.645070772847071 
779	 0.645193155366481 
780	 0.645264905760371 
781	 0.645303744923032 
782	 0.64539268558163 
783	 0.645486531412402 
784	 0.64548950113872 
785	 0.645484081224435 
786	 0.645495818047765 
787	 0.645538971290834 
788	 0.64561560662852 
789	 0.645646167480963 
790	 0.645673507027085 
791	 0.645738739524824 
792	 0.645819552460395 
793	 0.646047484954045 
794	 0.646281614827797 
795	 0.646354746466517 
796	 0.646362201258246 
797	 0.646491561477819 
798	 0.646716951412909 
799	 0.646875215015548 
800	 0.646866581409353 
801	 0.646837057791994 
802	 0.646907000105167 
803	 0.647118901930334 
804	 0.647269951726584 
805	 0.647412916989448 
806	 0.64757764641737 
807	 0.647636400744662 
808	 0.647735016687932 
809	 0.647744375038021 
810	 0.647523760769164 
811	 0.64724144130419 
812	 0.646858629183046 
813	 0.646453010827718 
814	 0.646125279479781 
815	 0.645551985613151 
816	 0.645282903506033 
817	 0.645470952832688 
818	 0.645733982105344 
819	 0.646029555376004 
820	 0.646425499291946 
821	 0.646813546897834 
822	 0.646751238038728 
823	 0.646561592168441 
824	 0.646706751643382 
825	 0.647341833899269 
826	 0.647745751583467 
827	 0.647816136034892 
828	 0.647703785592283 
829	 0.647656246480962 
830	 0.647641070512082 
831	 0.647782138013595 
832	 0.648058811571231 
833	 0.648341589234299 
834	 0.648603754446052 
835	 0.648868720361379 
836	 0.649124211935797 
837	 0.649315051286136 
838	 0.649569266104378 
839	 0.649820921614432 
840	 0.650010361283396 
841	 0.650169623468378 
842	 0.650302376609586 
843	 0.65039958142785 
844	 0.650481925678931 
845	 0.650675832416386 
846	 0.65091388660482 
847	 0.651113042277738 
848	 0.651204142110297 
849	 0.651212949801976 
850	 0.651242906783556 
851	 0.651363871078542 
852	 0.651580691370559 
853	 0.651669770965873 
854	 0.651797546932136 
855	 0.652014890360834 
856	 0.652193576737 
857	 0.652360244676553 
858	 0.652552380993547 
859	 0.652714466900432 
860	 0.652639924397526 
861	 0.652668376449842 
862	 0.652796226536323 
863	 0.652909000725862 
864	 0.652826460188529 
865	 0.653030282881392 
866	 0.653282542493613 
867	 0.653252868026631 
868	 0.653310944494047 
869	 0.653541051608155 
870	 0.653630306205573 
871	 0.653332337827999 
872	 0.653697570985412 
873	 0.653984596764377 
874	 0.654041548612393 
875	 0.65417345908074 
876	 0.654216867679904 
877	 0.654150828923698 
878	 0.654094696506166 
879	 0.654254706128919 
880	 0.654413498932385 
881	 0.654357350979931 
882	 0.654183720639093 
883	 0.654361875325534 
884	 0.654428063385894 
885	 0.65443633617121 
886	 0.654448492428187 
887	 0.654349661556927 
888	 0.654282836868225 
889	 0.654318998339109 
890	 0.654383748703162 
891	 0.65411082248627 
892	 0.653763124070807 
893	 0.653467201720611 
894	 0.653202172883925 
895	 0.652595799202237 
896	 0.65199095293827 
897	 0.65150957347498 
898	 0.651133858104784 
899	 0.650704432523111 
900	 0.650489632569113 
901	 0.65078204940451 
902	 0.651578766096484 
903	 0.651621465819176 
904	 0.651696736544846 
905	 0.651871358295073 
906	 0.651739563934105 
907	 0.651455704684011 
908	 0.65092075279239 
909	 0.650408069113129 
910	 0.650422022160201 
911	 0.650650623205745 
912	 0.650507821634278 
913	 0.650119282320522 
914	 0.650244128051032 
915	 0.650626684914125 
916	 0.650791804358727 
917	 0.65079551047342 
918	 0.651216301843496 
919	 0.651108292821558 
920	 0.650950486154812 
921	 0.651089069214534 
922	 0.651358827499175 
923	 0.650735701264079 
924	 0.65034873641909 
925	 0.650407851594477 
926	 0.649169188338053 
927	 0.647745636041403 
928	 0.646399069718862 
929	 0.644768969321167 
930	 0.641745833280724 
931	 0.64019468218395 
932	 0.638941930383826 
933	 0.636755274762938 
934	 0.635078826633033 
935	 0.633737588714519 
936	 0.633214604509255 
937	 0.633551672831486 
938	 0.633854770285129 
939	 0.633872454841053 
940	 0.634001343898638 
941	 0.634251980181511 
942	 0.633630005111535 
943	 0.633378083007929 
944	 0.632649407109763 
945	 0.631071079736604 
946	 0.630404614099127 
947	 0.629758055071464 
948	 0.629619640563693 
949	 0.629671677073553 
950	 0.627414169430888 
951	 0.625814900952838 
952	 0.625165008200356 
953	 0.625007621118464 
954	 0.624929827458652 
955	 0.623414016577048 
956	 0.622245475363814 
957	 0.622419894430411 
958	 0.621773328429449 
959	 0.620701106790786 
960	 0.62052066753003 
961	 0.621537493926595 
962	 0.621913444463015 
963	 0.621217507136566 
964	 0.621726118040943 
965	 0.623572466239733 
966	 0.622666773818005 
967	 0.623278823982899 
968	 0.624539468777281 
969	 0.625027448430653 
970	 0.624370529597197 
971	 0.624870483712498 
972	 0.625312348588602 
973	 0.624931120979553 
974	 0.62468794152963 
975	 0.625247679731101 
976	 0.625822992561642 
977	 0.626057723314114 
978	 0.626481070351311 
979	 0.626273417129942 
980	 0.626072263565009 
981	 0.626815453571169 
982	 0.628982392464624 
983	 0.628598187498547 
984	 0.628523350207531 
985	 0.629289125258373 
986	 0.628877203991078 
987	 0.629896230264178 
988	 0.630758173706441 
989	 0.63111209582635 
990	 0.631836985339261 
991	 0.632766880493984 
992	 0.633747422672762 
993	 0.634676872158518 
994	 0.63535321561386 
995	 0.63469001242144 
996	 0.635781427738648 
997	 0.63713830490606 
998	 0.636216644395596 
999	 0.636607730930543 
1000	 0.637454816728187 
1001	 0.624805523757975 
1002	 0.625240231380296 
1003	 0.625687292454872 
1004	 0.62613298237063 
1005	 0.626618969278259 
1006	 0.627144887104429 
1007	 0.627586637827961 
1008	 0.628005708627517 
1009	 0.628507245239027 
1010	 0.628957318687973 
1011	 0.629464681857362 
1012	 0.630077497757806 
1013	 0.630585186347521 
1014	 0.630934726157881 
1015	 0.631332530215935 
1016	 0.631942162063465 
1017	 0.632611788089366 
1018	 0.63311364565628 
1019	 0.633582312735846 
1020	 0.634071669669377 
1021	 0.634375917962531 
1022	 0.6348175334347 
1023	 0.635327563969955 
1024	 0.63604816532864 
1025	 0.636622330422831 
1026	 0.637078590461688 
1027	 0.637579361925935 
1028	 0.63793105284522 
1029	 0.638200042976361 
1030	 0.638686248804238 
1031	 0.639238532994189 
1032	 0.639795271671793 
1033	 0.640291007205503 
1034	 0.640814231408504 
1035	 0.641217877127427 
1036	 0.641486613576097 
1037	 0.641839901733877 
1038	 0.642196504599053 
1039	 0.642559765406731 
1040	 0.6429376851345 
1041	 0.643235761463954 
1042	 0.643531634192342 
1043	 0.643874852996283 
1044	 0.644065553362644 
1045	 0.644398707368625 
1046	 0.644753709384721 
1047	 0.645040674672047 
1048	 0.645450340656021 
1049	 0.645703901834158 
1050	 0.645959278032864 
1051	 0.646157223752665 
1052	 0.646346743404062 
1053	 0.64647929693476 
1054	 0.646687529802494 
1055	 0.646913472140132 
1056	 0.64711576129743 
1057	 0.647288033520782 
1058	 0.647506844802397 
1059	 0.64755001661676 
1060	 0.647536837624416 
1061	 0.647617265875485 
1062	 0.647664205971485 
1063	 0.647805030967052 
1064	 0.647896935197689 
1065	 0.647876092644399 
1066	 0.647740066808777 
1067	 0.647713877192364 
1068	 0.647708943648484 
1069	 0.64756175646427 
1070	 0.647612428792961 
1071	 0.64762864156873 
1072	 0.647473171464745 
1073	 0.647478116206744 
1074	 0.647510764475254 
1075	 0.647452119997875 
1076	 0.647316715910059 
1077	 0.647082095146994 
1078	 0.646782060392844 
1079	 0.6465099958203 
1080	 0.646255896538888 
1081	 0.646047912142591 
1082	 0.645914763231491 
1083	 0.6458292877715 
1084	 0.645611710248331 
1085	 0.645425423918512 
1086	 0.645287099934348 
1087	 0.64504427466091 
1088	 0.644841061829483 
1089	 0.644613366324139 
1090	 0.644246916204956 
1091	 0.643904522747605 
1092	 0.643559102404618 
1093	 0.643132227142202 
1094	 0.642803560355231 
1095	 0.642476887833052 
1096	 0.642000080902393 
1097	 0.641378872248933 
1098	 0.640886750152629 
1099	 0.640348810480806 
1100	 0.639786490630092 
1101	 0.639366248122883 
1102	 0.638939427201659 
1103	 0.638439700832836 
1104	 0.637845384962229 
1105	 0.637131118393435 
1106	 0.63637034843223 
1107	 0.635538524315167 
1108	 0.634669158261609 
1109	 0.633809595072932 
1110	 0.632826193081286 
1111	 0.631760210777135 
1112	 0.630462016385333 
1113	 0.629274369677408 
1114	 0.62798505407499 
1115	 0.626705002597004 
1116	 0.625569647561209 
1117	 0.624073480275534 
1118	 0.622436733312832 
1119	 0.620970973006576 
1120	 0.619216414374889 
1121	 0.617689261789308 
1122	 0.616392552618553 
1123	 0.615092334515269 
1124	 0.614172601062606 
1125	 0.613157396854075 
1126	 0.612206304542617 
1127	 0.611390340908615 
1128	 0.610660305732794 
1129	 0.610184411436191 
1130	 0.609434102544597 
1131	 0.608873393826294 
1132	 0.607807807240291 
1133	 0.606446410154145 
1134	 0.604971163264164 
1135	 0.603372690209611 
1136	 0.60180275387341 
1137	 0.600239596014612 
1138	 0.598578744180183 
1139	 0.596627442514122 
1140	 0.594350409484246 
1141	 0.591916526480835 
1142	 0.589414642482108 
1143	 0.587042005313801 
1144	 0.584659278269005 
1145	 0.582392940960562 
1146	 0.580180017493355 
1147	 0.578074930079726 
1148	 0.575992760551565 
1149	 0.574275136120714 
1150	 0.572711019215168 
1151	 0.571505939034557 
1152	 0.570633733989946 
1153	 0.570039813581356 
1154	 0.56967727328572 
1155	 0.569487590271747 
1156	 0.569319033115769 
1157	 0.569153701119522 
1158	 0.569058503576872 
1159	 0.569036557799928 
1160	 0.569002879520358 
1161	 0.569037602685673 
1162	 0.569049870009019 
1163	 0.569038448266929 
1164	 0.569048952037778 
1165	 0.569096574241784 
1166	 0.569142881583781 
1167	 0.569219713243357 
1168	 0.569226328809502 
1169	 0.569219804273162 
1170	 0.569208814649158 
1171	 0.569077613030852 
1172	 0.568831880595643 
1173	 0.56867116547717 
1174	 0.568565259587913 
1175	 0.568512005195325 
1176	 0.568501776906937 
1177	 0.568436911524222 
1178	 0.568358746778105 
1179	 0.568234869493057 
1180	 0.568064878984378 
1181	 0.567935842145423 
1182	 0.567785399564649 
1183	 0.567643243407379 
1184	 0.56751807157849 
1185	 0.567414871877008 
1186	 0.567339264423461 
1187	 0.567212316741595 
1188	 0.567076017881649 
1189	 0.566946577628347 
1190	 0.566798655898329 
1191	 0.566674764744046 
1192	 0.566612244439005 
1193	 0.56655166142587 
1194	 0.566487006881797 
1195	 0.566376584219158 
1196	 0.566361984432899 
1197	 0.566419498992829 
1198	 0.566432811907559 
1199	 0.566478673296666 
1200	 0.566513176501068 
1201	 0.566450993187985 
1202	 0.56654477670464 
1203	 0.566713048166451 
1204	 0.566922746386579 
1205	 0.567260761151188 
1206	 0.567549930486257 
1207	 0.567854999497842 
1208	 0.568142249143402 
1209	 0.568395621235752 
1210	 0.568691361557987 
1211	 0.569010378677483 
1212	 0.569312306187554 
1213	 0.569627014551862 
1214	 0.56997218804714 
1215	 0.570290298330401 
1216	 0.570587774475692 
1217	 0.570916260635395 
1218	 0.571234894908213 
1219	 0.571598962906437 
1220	 0.572050528133494 
1221	 0.572381620161544 
1222	 0.572670154861974 
1223	 0.572987193385354 
1224	 0.573231560596692 
1225	 0.573518552629232 
1226	 0.573842420474767 
1227	 0.574190158105939 
1228	 0.574568498158495 
1229	 0.574898694967985 
1230	 0.575325723638964 
1231	 0.57575311154834 
1232	 0.576082884743272 
1233	 0.576332910042275 
1234	 0.576693238050412 
1235	 0.577049936901921 
1236	 0.577379728304666 
1237	 0.577786944930581 
1238	 0.578122692792496 
1239	 0.578373228726755 
1240	 0.578654633291599 
1241	 0.578968683596392 
1242	 0.579238637875328 
1243	 0.579424732058386 
1244	 0.579686660109542 
1245	 0.579971579552016 
1246	 0.58027088941078 
1247	 0.58065491876108 
1248	 0.580975438099984 
1249	 0.581291589013972 
1250	 0.58156237771521 
1251	 0.581738120056654 
1252	 0.581982657121545 
1253	 0.582193806711903 
1254	 0.582361873738078 
1255	 0.582609109317343 
1256	 0.58292286960578 
1257	 0.583148948369108 
1258	 0.583385625704259 
1259	 0.583594460097567 
1260	 0.583746787278317 
1261	 0.583891327094856 
1262	 0.584029507032682 
1263	 0.584162879714493 
1264	 0.584258941438558 
1265	 0.58435001842067 
1266	 0.584480670983622 
1267	 0.584540400226122 
1268	 0.58455072734639 
1269	 0.584526596195892 
1270	 0.584490806696032 
1271	 0.584375347978435 
1272	 0.584179776215732 
1273	 0.583966070973184 
1274	 0.583731374405369 
1275	 0.583424873409687 
1276	 0.583164038775754 
1277	 0.582947123654572 
1278	 0.582623851212916 
1279	 0.582308822873386 
1280	 0.581845801056042 
1281	 0.581223114034006 
1282	 0.580680687620411 
1283	 0.580101642102589 
1284	 0.579494253694478 
1285	 0.578888844820485 
1286	 0.578286502687885 
1287	 0.577637325490617 
1288	 0.576989871542707 
1289	 0.576442085497221 
1290	 0.575748939671234 
1291	 0.57498725386559 
1292	 0.574145077832179 
1293	 0.573121356656818 
1294	 0.572171264143651 
1295	 0.571210705859134 
1296	 0.570218547551271 
1297	 0.569195020258161 
1298	 0.568211432980485 
1299	 0.567100085395676 
1300	 0.565897117407352 
1301	 0.564649090440778 
1302	 0.563304007851948 
1303	 0.562003493817848 
1304	 0.560671212355305 
1305	 0.559295967817605 
1306	 0.557954298427709 
1307	 0.556498122303859 
1308	 0.554920647585227 
1309	 0.553354822998189 
1310	 0.551775128364942 
1311	 0.550109004804966 
1312	 0.548317523932814 
1313	 0.546612099965834 
1314	 0.544947119369367 
1315	 0.543187875899343 
1316	 0.541497833320024 
1317	 0.539682358014489 
1318	 0.537642241724545 
1319	 0.535680841158291 
1320	 0.533703990497004 
1321	 0.531739554759898 
1322	 0.529648940816547 
1323	 0.527516576403079 
1324	 0.525280672615473 
1325	 0.522803283806153 
1326	 0.520490018648032 
1327	 0.518161996865218 
1328	 0.515789268333695 
1329	 0.513448645817857 
1330	 0.511009236563766 
1331	 0.508470798886691 
1332	 0.505993166772693 
1333	 0.503492573085387 
1334	 0.501106902034158 
1335	 0.498765139209915 
1336	 0.496544091856688 
1337	 0.494393180951834 
1338	 0.492315837491494 
1339	 0.490314713618234 
1340	 0.48825820281299 
1341	 0.485998418395995 
1342	 0.483850117686802 
1343	 0.481405374325454 
1344	 0.479051507710621 
1345	 0.476647033442621 
1346	 0.474094446917786 
1347	 0.471304661048165 
1348	 0.468303810354541 
1349	 0.465143160897312 
1350	 0.461593139830428 
1351	 0.457805064181967 
1352	 0.454251898106053 
1353	 0.449660265112259 
1354	 0.445014476283297 
1355	 0.439292320621635 
1356	 0.434890732291978 
1357	 0.428873342358402 
1358	 0.431250309567798 
1359	 0.424409804991487 
1360	 0.411670777100041 
1361	 0.39952964526809 
1362	 0.387358576148296 
1363	 0.368962824208685 
1364	 0.375075906763983 
1365	 0.37561178057821 
1366	 0.377430825595309 
1367	 0.370873327991736 
1368	 0.36970175878139 
1369	 0.366983615364181 
1370	 0.356748425541352 
1371	 0.352333188918457 
1372	 0.352759625708058 
1373	 0.351534205203577 
1374	 0.348547744605094 
1375	 0.346727814514256 
1376	 0.348164150951501 
1377	 0.347706515119793 
1378	 0.343870142868691 
1379	 0.339364453649929 
1380	 0.331296961119142 
1381	 0.317021708315263 
1382	 0.30846175343285 
1383	 0.303088267636025 
1384	 0.293777471346404 
1385	 0.284946237217919 
1386	 0.277026108768761 
1387	 0.267252211298959 
1388	 0.261636711689037 
1389	 0.259787046029913 
1390	 0.256173208884784 
1391	 0.253740630232135 
1392	 0.249152711761797 
1393	 0.243697390242822 
1394	 0.237705249596635 
1395	 0.229935373431859 
1396	 0.223761325373598 
1397	 0.217822808521444 
1398	 0.212359700645839 
1399	 0.207313916871067 
1400	 0.20265916987349 
1401	 0.199172669475858 
1402	 0.19463451668732 
1403	 0.190413528656752 
1404	 0.186096213098211 
1405	 0.181584016374011 
1406	 0.176650372498161 
1407	 0.173870563955083 
1408	 0.170339858644657 
1409	 0.16689075004048 
1410	 0.165137982085699 
1411	 0.162992095224455 
1412	 0.160892884261924 
1413	 0.159136926037815 
1414	 0.157717308459221 
1415	 0.156326965714856 
1416	 0.154955374667819 
1417	 0.153837425034308 
1418	 0.15290102708667 
1419	 0.151952758285812 
1420	 0.151153139490757 
1421	 0.150279577097718 
1422	 0.149475092861144 
1423	 0.148515578981939 
1424	 0.147337353502002 
1425	 0.146418896357312 
1426	 0.145345509138869 
1427	 0.144642639303993 
1428	 0.144314818611409 
1429	 0.143763429653103 
1430	 0.143211854688788 
1431	 0.142680978068372 
1432	 0.142088648252892 
1433	 0.141477926160777 
1434	 0.140891073604517 
1435	 0.140332133744931 
1436	 0.13964708687069 
1437	 0.139110932764308 
1438	 0.138642759336197 
1439	 0.13833185461866 
1440	 0.138224514910517 
1441	 0.138044553218394 
1442	 0.137916750895736 
1443	 0.137789408467237 
1444	 0.137713993071479 
1445	 0.137685889089632 
1446	 0.137780450740233 
1447	 0.137980260424431 
1448	 0.138102292667109 
1449	 0.138177054536639 
1450	 0.138365675563268 
1451	 0.1385914141997 
1452	 0.138784183776511 
1453	 0.139025626673749 
1454	 0.13923488341928 
1455	 0.139410718577673 
1456	 0.139608921849593 
1457	 0.139821331089829 
1458	 0.140053595032304 
1459	 0.140312175714065 
1460	 0.140550163379931 
1461	 0.14075308736385 
1462	 0.14112893486167 
1463	 0.141594994782894 
1464	 0.142093186690787 
1465	 0.142718228919474 
1466	 0.143449097693906 
1467	 0.144175712038766 
1468	 0.145079697711422 
1469	 0.146198742205072 
1470	 0.147332287052744 
1471	 0.14846352575967 
1472	 0.14967785956605 
1473	 0.150846363084552 
1474	 0.152157622535974 
1475	 0.153550757649296 
1476	 0.154922577007177 
1477	 0.156306358648686 
1478	 0.157765365966071 
1479	 0.159158122831896 
1480	 0.160670222220447 
1481	 0.162287004394665 
1482	 0.163909816669824 
1483	 0.165544037441841 
1484	 0.167216346659173 
1485	 0.16886286340335 
1486	 0.170579042138508 
1487	 0.172329151963762 
1488	 0.174060781153115 
1489	 0.175827183732147 
1490	 0.177614106785603 
1491	 0.179436973824894 
1492	 0.181184439935354 
1493	 0.18284886811574 
1494	 0.184539687455526 
1495	 0.186161069190408 
1496	 0.187701375175067 
1497	 0.189365539482972 
1498	 0.191082989678886 
1499	 0.192826927826335 
1500	 0.194683578604009 
1501	 0.196467935504208 
1502	 0.198249881908078 
1503	 0.200089606929129 
1504	 0.201916690678312 
1505	 0.203817154076575 
1506	 0.205813642110975 
1507	 0.207704893757288 
1508	 0.209593211920876 
1509	 0.211444346777378 
1510	 0.213213092683257 
1511	 0.215053471233636 
1512	 0.216935342639699 
1513	 0.21877657841328 
1514	 0.220633326596255 
1515	 0.222486449733001 
1516	 0.224325596946771 
1517	 0.226185459472858 
1518	 0.228075287281266 
1519	 0.229964614430728 
1520	 0.231875982631854 
1521	 0.233769509125196 
1522	 0.235656033967655 
1523	 0.237569556588011 
1524	 0.23952487323265 
1525	 0.241414266388158 
1526	 0.243297961870428 
1527	 0.245180680571568 
1528	 0.247031212883252 
1529	 0.248864198003595 
1530	 0.250700674318853 
1531	 0.252540019412668 
1532	 0.254360710877323 
1533	 0.256169843857506 
1534	 0.257989617884625 
1535	 0.25981480579201 
1536	 0.261581459212393 
1537	 0.263419511139749 
1538	 0.265354647084183 
1539	 0.267219008926714 
1540	 0.269126167251333 
1541	 0.2709405023922 
1542	 0.272638660129086 
1543	 0.274378397760509 
1544	 0.276090328309391 
1545	 0.277808571240419 
1546	 0.279534212848738 
1547	 0.281281398762943 
1548	 0.283036004568978 
1549	 0.284787211966911 
1550	 0.28659558775685 
1551	 0.288358185987315 
1552	 0.290152543221615 
1553	 0.291834632163445 
1554	 0.293428921280322 
1555	 0.295005214809087 
1556	 0.296404070485031 
1557	 0.297928035625739 
1558	 0.299555045912849 
1559	 0.301131840342091 
1560	 0.302786997675057 
1561	 0.304375402612748 
1562	 0.305914434208837 
1563	 0.307409323612047 
1564	 0.308842601724095 
1565	 0.31030125144717 
1566	 0.311714072110315 
1567	 0.313029981077955 
1568	 0.314499266815043 
1569	 0.316021906482298 
1570	 0.317513978057084 
1571	 0.319079664929283 
1572	 0.32056605803091 
1573	 0.321966197681898 
1574	 0.323442392891475 
1575	 0.324962621379487 
1576	 0.32635490950483 
1577	 0.32770594933205 
1578	 0.328994631322313 
1579	 0.330136014436839 
1580	 0.331409563295039 
1581	 0.332697147206923 
1582	 0.333986797712123 
1583	 0.335330836734017 
1584	 0.336602404605633 
1585	 0.337855586288606 
1586	 0.339064345745989 
1587	 0.340248918160568 
1588	 0.341397365284128 
1589	 0.34250324146026 
1590	 0.343602555610587 
1591	 0.344680868876362 
1592	 0.345739966537914 
1593	 0.346763146200702 
1594	 0.347828053332452 
1595	 0.348894534409433 
1596	 0.349969229028127 
1597	 0.351093621007877 
1598	 0.352156391412551 
1599	 0.353220065742632 
1600	 0.354193418586649 
1601	 0.35509068437054 
1602	 0.356039069253406 
1603	 0.356933765520222 
1604	 0.357882220754119 
1605	 0.358884469046023 
1606	 0.359844339111474 
1607	 0.360759812877553 
1608	 0.361740307264241 
1609	 0.362747991441334 
1610	 0.363737846523573 
1611	 0.364812830061704 
1612	 0.365683985052667 
1613	 0.366442386610974 
1614	 0.367221994034165 
1615	 0.367852618952697 
1616	 0.368639036615671 
1617	 0.36951726077194 
1618	 0.370338354227022 
1619	 0.371175949567734 
1620	 0.372008475757554 
1621	 0.372844524851054 
1622	 0.373632492054148 
1623	 0.374424819203181 
1624	 0.375165746826899 
1625	 0.375858441716694 
1626	 0.37651639079472 
1627	 0.377143167705007 
1628	 0.377765537073571 
1629	 0.378285899708855 
1630	 0.378994631854243 
1631	 0.379859057125647 
1632	 0.380531922646889 
1633	 0.381220185394426 
1634	 0.381873605661971 
1635	 0.382384229971499 
1636	 0.38295945489176 
1637	 0.38361567083857 
1638	 0.384205872359859 
1639	 0.384700057004252 
1640	 0.385280552837269 
1641	 0.3859283580683 
1642	 0.386493876925105 
1643	 0.387033513302533 
1644	 0.38755757370951 
1645	 0.38803421819315 
1646	 0.388542538267514 
1647	 0.389079652793756 
1648	 0.389529497315836 
1649	 0.389925528926292 
1650	 0.390371865354188 
1651	 0.390774674314838 
1652	 0.391212147230395 
1653	 0.39174491915744 
1654	 0.392123676560232 
1655	 0.39242768579725 
1656	 0.392761763400618 
1657	 0.393018596000294 
1658	 0.393454727177361 
1659	 0.393758963022672 
1660	 0.393968045997175 
1661	 0.394317152252827 
1662	 0.394566474835223 
1663	 0.394842763775306 
1664	 0.395237889899928 
1665	 0.395593895157387 
1666	 0.395934497991009 
1667	 0.396337458894031 
1668	 0.396657218875244 
1669	 0.396903157481523 
1670	 0.397150318912537 
1671	 0.39727549850152 
1672	 0.397481669615802 
1673	 0.397702541177192 
1674	 0.397809523117389 
1675	 0.397973636381606 
1676	 0.397990727639827 
1677	 0.39797840916502 
1678	 0.398074752812867 
1679	 0.397985909185708 
1680	 0.397933505651245 
1681	 0.397983181056746 
1682	 0.397954743274609 
1683	 0.397998449579643 
1684	 0.397952042479723 
1685	 0.397823742943588 
1686	 0.397755842133569 
1687	 0.397609303721365 
1688	 0.397475570077849 
1689	 0.397314295534324 
1690	 0.396922416112575 
1691	 0.396673269828845 
1692	 0.396517159479866 
1693	 0.396273164159313 
1694	 0.396026246962428 
1695	 0.395788865459266 
1696	 0.39551695599022 
1697	 0.395229179052191 
1698	 0.395022194009919 
1699	 0.394733926394895 
1700	 0.394249422969874 
1701	 0.393929612684174 
1702	 0.393690641414072 
1703	 0.393410802924494 
1704	 0.39326245102057 
1705	 0.392986701243799 
1706	 0.392614253981819 
1707	 0.392224805004634 
1708	 0.391792064982738 
1709	 0.39130400571764 
1710	 0.390695248240692 
1711	 0.390238756034106 
1712	 0.389835302214767 
1713	 0.389366145773445 
1714	 0.389021084341295 
1715	 0.388510372559614 
1716	 0.387833478002416 
1717	 0.387202002755308 
1718	 0.386530737901654 
1719	 0.38586214160334 
1720	 0.38519067822703 
1721	 0.384513083720468 
1722	 0.383824005805891 
1723	 0.383098832186511 
1724	 0.382317291729795 
1725	 0.381593362794428 
1726	 0.380928365496988 
1727	 0.380140834591778 
1728	 0.379323857385026 
1729	 0.378433605262866 
1730	 0.377386954208162 
1731	 0.37665805324574 
1732	 0.375861041559441 
1733	 0.374899427536238 
1734	 0.373984961115277 
1735	 0.373050581594545 
1736	 0.371885243026255 
1737	 0.370736545296911 
1738	 0.369607586861024 
1739	 0.368471700445139 
1740	 0.367431858898614 
1741	 0.366452634859991 
1742	 0.36527345462212 
1743	 0.363847866254062 
1744	 0.362542174226332 
1745	 0.361261848257868 
1746	 0.360076782163812 
1747	 0.359188365198606 
1748	 0.358077768778896 
1749	 0.356911525983853 
1750	 0.355755667680436 
1751	 0.354312131645283 
1752	 0.353098556903055 
1753	 0.352053542593228 
1754	 0.350945541928467 
1755	 0.349944151198649 
1756	 0.348712004009923 
1757	 0.347266191429009 
1758	 0.346010572055558 
1759	 0.344706221992286 
1760	 0.343500356325036 
1761	 0.342495291963754 
1762	 0.341314646340129 
1763	 0.340071347031478 
1764	 0.338869411109892 
1765	 0.337561951431711 
1766	 0.336465663660051 
1767	 0.335480706161058 
1768	 0.334545216962914 
1769	 0.333791384076524 
1770	 0.332805995469993 
1771	 0.33164956234727 
1772	 0.330712961177564 
1773	 0.329807191490862 
1774	 0.329008063705215 
1775	 0.328363968880113 
1776	 0.327655077854489 
1777	 0.326743333851632 
1778	 0.325826840179295 
1779	 0.32488582931128 
1780	 0.324052306857722 
1781	 0.323204657862795 
1782	 0.322497895515836 
1783	 0.322362467771242 
1784	 0.322045538923227 
1785	 0.32156082080873 
1786	 0.321140588555063 
1787	 0.320389807868719 
1788	 0.319947925682469 
1789	 0.319647038276407 
1790	 0.319328279055038 
1791	 0.31919797301882 
1792	 0.318702734467236 
1793	 0.318206176331955 
1794	 0.317991578945576 
1795	 0.317692580721072 
1796	 0.317424582797412 
1797	 0.316961915379882 
1798	 0.316323333659599 
1799	 0.315617567585307 
1800	 0.315036616517491 
1801	 0.314109290162011 
1802	 0.312571240425413 
1803	 0.311578527560683 
1804	 0.310414882789602 
1805	 0.309702507950908 
1806	 0.309726228370106 
1807	 0.309267240502003 
1808	 0.309263508514306 
1809	 0.308642058729071 
1810	 0.307756210725621 
1811	 0.306304322642788 
1812	 0.305140276490268 
1813	 0.303579302144754 
1814	 0.30214040026485 
1815	 0.300706233409301 
1816	 0.299209790900446 
1817	 0.296791338745045 
1818	 0.29574387958753 
1819	 0.295502591778719 
1820	 0.296534171475645 
1821	 0.297228025000976 
1822	 0.299502560537274 
1823	 0.301644545913566 
1824	 0.304324872509398 
1825	 0.306739205364009 
1826	 0.312426798331502 
1827	 0.3149759865186 
1828	 0.315507551096046 
1829	 0.310563562272791 
1830	 0.30952773054841 
1831	 0.30258313940577 
1832	 0.302251044376057 
1833	 0.315038003899596 
1834	 0.325346116505242 
1835	 0.346405323860246 
1836	 0.360998922121356 
1837	 0.355399006601085 
1838	 0.360542166564384 
1839	 0.36444916936629 
1840	 0.35097446425442 
1841	 0.362515903115588 
1842	 0.423158334056983 
1843	 0.407798482235107 
1844	 0.346520882069557 
1845	 0.321594531513665 
1846	 0.252301912449212 
1847	 0.2244263815501 
1848	 0.219259910748455 
1849	 0.263811546233804 
1850	 0.27816428970551 
1851	 0.298476815678108 
1852	 0.309058834778285 
1853	 0.318879920387312 
1854	 0.319084933717595 
1855	 0.309379961744183 
1856	 0.303928275461662 
1857	 0.286091991683891 
1858	 0.285329143749246 
1859	 0.281881149036214 
1860	 0.280093593198728 
1861	 0.281555143541766 
1862	 0.291123563321053 
1863	 0.2882826354833 
1864	 0.275069197820884 
1865	 0.277112910520549 
1866	 0.28954932252872 
1867	 0.286782632543577 
1868	 0.293466739024169 
1869	 0.289746428591343 
1870	 0.27481843357429 
1871	 0.225306530987315 
1872	 0.204565320969236 
1873	 0.211354361225103 
1874	 0.196682792340801 
1875	 0.186926815823041 
1876	 0.16855731281482 
1877	 0.143511904992803 
1878	 0.124037566401464 
1879	 0.116718476082065 
1880	 0.117376211892802 
1881	 0.118167243749547 
1882	 0.130989578158301 
1883	 0.125630073927596 
1884	 0.113500675839401 
1885	 0.104392151207473 
1886	 8.13965144323924E-02 
1887	 0.075808519644533 
1888	 8.49760885466966E-02 
1889	 9.11664028346467E-02 
1890	 9.48344000282879E-02 
1891	 0.108448306917137 
1892	 0.109019670385883 
1893	 9.80219599867496E-02 
1894	 9.13179082616013E-02 
1895	 7.76200519092808E-02 
1896	 6.98960122943978E-02 
1897	 6.38420135317789E-02 
1898	 0.052082337014072 
1899	 0.055468405901404 
1900	 6.89891308557613E-02 
1901	 7.74403594345951E-02 
1902	 9.60760427613219E-02 
1903	 0.10850025847455 
1904	 0.121970080691131 
1905	 0.12106848493754 
1906	 0.114956027001672 
1907	 8.95014568205738E-02 
1908	 0.071729556358011 
1909	 5.27624996582305E-02 
1910	 3.98902462156147E-02 
1911	 4.45904382127899E-02 
1912	 4.29874348817699E-02 
1913	 4.05762538294848E-02 
1914	 3.90594675051506E-02 
1915	 3.76659025996098E-02 
1916	 3.78300818037839E-02 
1917	 3.87198990400294E-02 
1918	 3.96961286586906E-02 
1919	 3.88718405494485E-02 
1920	 3.95042961599865E-02 
1921	 3.73186266369577E-02 
1922	 3.27256697726931E-02 
1923	 3.13425889559437E-02 
1924	 3.17442050394045E-02 
1925	 3.07839912495292E-02 
1926	 0.029941234593819 
1927	 3.02288193992207E-02 
1928	 3.15675048092121E-02 
1929	 2.88266511051128E-02 
1930	 3.06711747312045E-02 
1931	 3.24381599862387E-02 
1932	 3.10485663120629E-02 
1933	 3.16617767512838E-02 
1934	 3.22988719717723E-02 
1935	 3.23919495984337E-02 
1936	 3.23268155039802E-02 
1937	 3.36207294542267E-02 
1938	 3.37842740051221E-02 
1939	 3.31534587460543E-02 
1940	 3.20620507893502E-02 
1941	 3.15909337687715E-02 
1942	 3.07900550350689E-02 
1943	 2.99912428550345E-02 
1944	 2.96301545384061E-02 
1945	 3.00475375823642E-02 
1946	 3.01766551511376E-02 
1947	 3.08685129159853E-02 
1948	 3.28827128569422E-02 
1949	 3.35003489093788E-02 
1950	 3.36551495207393E-02 
1951	 0.033715775626339 
1952	 3.39523643638793E-02 
1953	 3.41578443287204E-02 
1954	 3.47754294644142E-02 
1955	 3.54303387012575E-02 
1956	 3.55491783186901E-02 
1957	 3.51783989784245E-02 
1958	 3.53654232219827E-02 
1959	 0.035770640600456 
1960	 3.64107175917203E-02 
1961	 3.72721222864367E-02 
1962	 3.79862117790229E-02 
1963	 0.038668744177591 
1964	 3.94349058990051E-02 
1965	 3.99507721139799E-02 
1966	 4.04234119673298E-02 
1967	 4.08825574227193E-02 
1968	 4.10932495655443E-02 
1969	 4.15787856627483E-02 
1970	 4.22135833627127E-02 
1971	 4.26195494075447E-02 
1972	 4.30066345851634E-02 
1973	 4.36181811403891E-02 
1974	 4.38246543023908E-02 
1975	 0.044371498841417 
1976	 4.52494960110829E-02 
1977	 4.60433707452449E-02 
1978	 4.70253118932462E-02 
1979	 4.79074725231441E-02 
1980	 0.048536746355335 
1981	 4.90600273911503E-02 
1982	 4.95205232889508E-02 
1983	 4.97426030249785E-02 
1984	 5.01685913066218E-02 
1985	 5.08532011566931E-02 
1986	 5.16033638169127E-02 
1987	 5.25254749380049E-02 
1988	 5.31872487604859E-02 
1989	 5.37508619235023E-02 
1990	 5.44914274790672E-02 
1991	 5.50966490863161E-02 
1992	 5.57709075574209E-02 
1993	 5.64029202170005E-02 
1994	 5.68748766850895E-02 
1995	 5.74637556317457E-02 
1996	 5.80487897638566E-02 
1997	 5.88772922354446E-02 
1998	 5.99280973522599E-02 
1999	 6.08603857311956E-02 
2000	 6.16597438534133E-02 
2001	 6.24176034752168E-02 
2002	 6.32196120074606E-02 
2003	 6.42223955638788E-02 
2004	 6.56502410465579E-02 
2005	 6.68657992459761E-02 
2006	 6.79502796270466E-02 
2007	 0.068787931613746 
2008	 6.97704471853116E-02 
2009	 0.070387865232575 
2010	 7.14632502401931E-02 
2011	 7.29062807306958E-02 
2012	 7.38359025828504E-02 
2013	 7.45216272036124E-02 
2014	 7.50065701264386E-02 
2015	 7.56255001618641E-02 
2016	 7.67257621922796E-02 
2017	 7.78123773877137E-02 
2018	 0.078584325420248 
2019	 7.93584766861232E-02 
2020	 8.00057519872135E-02 
2021	 8.03768434108341E-02 
2022	 8.09418212360691E-02 
2023	 8.19982828350092E-02 
2024	 8.28017263224002E-02 
2025	 8.35410639653046E-02 
2026	 8.42859951018066E-02 
2027	 8.48002925182318E-02 
2028	 0.085635668500134 
2029	 8.64730231957363E-02 
2030	 8.70605386430166E-02 
2031	 8.77093689400188E-02 
2032	 8.84414317612656E-02 
2033	 8.91650506568736E-02 
2034	 8.97694915584531E-02 
2035	 9.06168909154832E-02 
2036	 9.16620490959824E-02 
2037	 9.25127434513534E-02 
2038	 9.37497129258668E-02 
2039	 9.52085005281238E-02 
2040	 9.63920314087292E-02 
2041	 9.73585307478502E-02 
2042	 9.79488558050178E-02 
2043	 0.09812824913147 
2044	 9.84926619773059E-02 
2045	 9.92303278037444E-02 
2046	 0.100282563567239 
2047	 0.101447996906504 
2048	 0.102764717241119 
2049	 0.103914501186096 
2050	 0.104541513598563 
2051	 0.105256493367837 
2052	 0.106378714385187 
2053	 0.107457246294899 
2054	 0.108420512451809 
2055	 0.109366289353698 
2056	 0.109858494976627 
2057	 0.110310427106856 
2058	 0.111505305963186 
2059	 0.112665329340946 
2060	 0.114121006798904 
2061	 0.115247733122336 
2062	 0.116263788523633 
2063	 0.11724993476371 
2064	 0.117732954154242 
2065	 0.118513049980434 
2066	 0.119740401693169 
2067	 0.120516857060458 
2068	 0.121737909931473 
2069	 0.123073811929278 
2070	 0.124321749759653 
2071	 0.125780323207546 
2072	 0.126944116191141 
2073	 0.127922374229795 
2074	 0.128833844547553 
2075	 0.129753550948515 
2076	 0.130710826499321 
2077	 0.131528379437355 
2078	 0.132430473356225 
2079	 0.133424456324358 
2080	 0.134162546201329 
2081	 0.135249586938096 
2082	 0.136430730492057 
2083	 0.13716024879544 
2084	 0.137908735691611 
2085	 0.138653343186271 
2086	 0.139441531455617 
2087	 0.140339118251118 
2088	 0.14143588519885 
2089	 0.142598141778243 
2090	 0.143990886949135 
2091	 0.145010291446864 
2092	 0.145944081817895 
2093	 0.147054049033138 
2094	 0.147605772932904 
2095	 0.148344543836515 
2096	 0.14938145383314 
2097	 0.150273805678199 
2098	 0.151260960440292 
2099	 0.152227299056845 
2100	 0.153126481975601 
2101	 0.154166719010453 
2102	 0.155053013419002 
2103	 0.155811917659791 
2104	 0.156635405296391 
2105	 0.157698010690783 
2106	 0.158626467562536 
2107	 0.160017616398231 
2108	 0.161414626245434 
2109	 0.162375625644106 
2110	 0.163560807544985 
2111	 0.164621276052433 
2112	 0.165521187799252 
2113	 0.166558955226792 
2114	 0.167170523763024 
2115	 0.167695913411957 
2116	 0.168661006640585 
2117	 0.169605801225279 
2118	 0.170773175289571 
2119	 0.171909081709215 
2120	 0.173208602716824 
2121	 0.174031411311372 
2122	 0.174956697822195 
2123	 0.176102896421431 
2124	 0.176948421874608 
2125	 0.177566868349297 
2126	 0.178467636879871 
2127	 0.179280265092884 
2128	 0.179953055567559 
2129	 0.180789585727127 
2130	 0.181591570361478 
2131	 0.18214502098257 
2132	 0.183012471734971 
2133	 0.184220549152409 
2134	 0.185095376288916 
2135	 0.185886865280099 
2136	 0.186599049839505 
2137	 0.187137378114965 
2138	 0.187468455820785 
2139	 0.187815326897004 
2140	 0.188587333151627 
2141	 0.189478785962903 
2142	 0.190371736748381 
2143	 0.191501332054921 
2144	 0.192313384344498 
2145	 0.192790431155145 
2146	 0.193069023200769 
2147	 0.193233814579963 
2148	 0.193431347456223 
2149	 0.193866310242022 
2150	 0.194435564504906 
2151	 0.195141242505917 
2152	 0.196324961686087 
2153	 0.197060779679969 
2154	 0.197648264812702 
2155	 0.19833236451618 
2156	 0.198581305158011 
2157	 0.198770606431518 
2158	 0.199270237398561 
2159	 0.199680972645338 
2160	 0.200201109497497 
2161	 0.200807718825726 
2162	 0.201297349887692 
2163	 0.201401990402357 
2164	 0.201548158162643 
2165	 0.20176722944612 
2166	 0.201969281226369 
2167	 0.202537250676746 
2168	 0.202842794605384 
2169	 0.203035819688699 
2170	 0.203229702485098 
2171	 0.203310532271123 
2172	 0.203361953083685 
2173	 0.20367297390283 
2174	 0.204204225587617 
2175	 0.204367851930539 
2176	 0.2045599497746 
2177	 0.205022362632858 
2178	 0.205546075892961 
2179	 0.206500295600287 
2180	 0.207137453734811 
2181	 0.206813918547368 
2182	 0.206487723118147 
2183	 0.206384727877401 
2184	 0.206259335864515 
2185	 0.206746278767813 
2186	 0.207600444023554 
2187	 0.208025815844815 
2188	 0.208236755194359 
2189	 0.208364239011572 
2190	 0.208374012326876 
2191	 0.208029358531493 
2192	 0.208080530862223 
2193	 0.208243499333393 
2194	 0.208476674984052 
2195	 0.208722022776861 
2196	 0.208397293285387 
2197	 0.208602233542942 
2198	 0.208885294892931 
2199	 0.209059764326608 
2200	 0.209479321689342 
2201	 0.209032326538338 
2202	 0.2086472778409 
2203	 0.20873494336775 
2204	 0.208996688427268 
2205	 0.209649126534743 
2206	 0.210015397347858 
2207	 0.209848462653182 
2208	 0.209780250470071 
2209	 0.209295511885675 
2210	 0.20930281228131 
2211	 0.209532811899028 
2212	 0.209894667750915 
2213	 0.210220627332018 
2214	 0.210278739734992 
2215	 0.209663807162941 
2216	 0.209175433381407 
2217	 0.208851132258657 
2218	 0.208181552323491 
2219	 0.208019960987836 
2220	 0.208209839573698 
2221	 0.207942469182496 
2222	 0.207961436581652 
2223	 0.208798895388989 
2224	 0.20898546424154 
2225	 0.208901795173137 
2226	 0.209061005939859 
2227	 0.20836762565042 
2228	 0.207705590602249 
2229	 0.207260259425679 
2230	 0.206812043077891 
2231	 0.206780342859399 
2232	 0.207408268933308 
2233	 0.20719779297539 
2234	 0.206846553287996 
2235	 0.206641522951129 
2236	 0.206187151816537 
2237	 0.205785700363044 
2238	 0.206066489383076 
2239	 0.206228379718983 
2240	 0.205476470051998 
2241	 0.205080353246147 
2242	 0.204740097538333 
2243	 0.204153543181197 
2244	 0.204008532573063 
2245	 0.203238393171097 
2246	 0.202485349361653 
2247	 0.2024193333085 
2248	 0.202301541434899 
2249	 0.201909799308163 
2250	 0.201205466783619 
2251	 0.199915093160341 
2252	 0.19860954992912 
2253	 0.197725496004799 
2254	 0.19733825228334 
2255	 0.197854977244243 
2256	 0.197971412567149 
2257	 0.19819842667353 
2258	 0.198330963074455 
2259	 0.197577214804856 
2260	 0.195896383934792 
2261	 0.19511583988582 
2262	 0.194120251139376 
2263	 0.193715040065838 
2264	 0.194004131679818 
2265	 0.193268123938551 
2266	 0.192667967523961 
2267	 0.192458111483229 
2268	 0.192060439334139 
2269	 0.191522902641513 
2270	 0.191208249860506 
2271	 0.190759060754614 
2272	 0.189806860312366 
2273	 0.189557138674791 
2274	 0.18902626553255 
2275	 0.187867106118312 
2276	 0.18731939132482 
2277	 0.186540688710842 
2278	 0.185927308298463 
2279	 0.185391987662115 
2280	 0.184469524396179 
2281	 0.183899984393158 
2282	 0.183196724429313 
2283	 0.182634397812836 
2284	 0.181943126985002 
2285	 0.180682562675901 
2286	 0.17982480513964 
2287	 0.178919968745219 
2288	 0.178018768358609 
2289	 0.177713770848694 
2290	 0.177817681763158 
2291	 0.177525224573466 
2292	 0.17753245983926 
2293	 0.177439509580851 
2294	 0.176293192955295 
2295	 0.174967548254434 
2296	 0.173806668698377 
2297	 0.172216612794568 
2298	 0.172210507534644 
2299	 0.172630163968557 
2300	 0.171663895221825 
2301	 0.17097325049012 
2302	 0.169678863284719 
2303	 0.168128486349468 
2304	 0.167516880990009 
2305	 0.167214194803021 
2306	 0.166427989473624 
2307	 0.165176188429088 
2308	 0.164647559140152 
2309	 0.164147741917769 
2310	 0.163439998765567 
2311	 0.162533587483798 
2312	 0.161200971948308 
2313	 0.160125321827975 
2314	 0.15951813221271 
2315	 0.159806864881524 
2316	 0.159435892730556 
2317	 0.158103435770261 
2318	 0.156656728358222 
2319	 0.154705622284004 
2320	 0.153409561151496 
2321	 0.152323510166293 
2322	 0.151638845501274 
2323	 0.150635725321523 
2324	 0.149834300066527 
2325	 0.148657732682018 
2326	 0.147547224119189 
2327	 0.146790005339937 
2328	 0.146277797558228 
2329	 0.146526192105862 
2330	 0.145949886184986 
2331	 0.145001259696772 
2332	 0.144916252863795 
2333	 0.144224718297527 
2334	 0.143295075830144 
2335	 0.142866297072307 
2336	 0.14127559565689 
2337	 0.138976078148386 
2338	 0.138438096995752 
2339	 0.138331773696716 
2340	 0.137157443660443 
2341	 0.136758560581357 
2342	 0.136557836175528 
2343	 0.135055817107319 
2344	 0.134347547164325 
2345	 0.133554379126552 
2346	 0.131222914858345 
2347	 0.13113922092902 
2348	 0.131523315055634 
2349	 0.131451516704084 
2350	 0.132792435433728 
2351	 0.131750991128473 
2352	 0.129353133373592 
2353	 0.127466048502563 
2354	 0.12605443280538 
2355	 0.12501757004386 
2356	 0.124017005952351 
2357	 0.123073032867448 
2358	 0.121270004584649 
2359	 0.120620793474226 
2360	 0.121342264819276 
2361	 0.122914652880786 
2362	 0.124343575274749 
2363	 0.123372710961724 
2364	 0.121736186376226 
2365	 0.119966173417056 
2366	 0.118288495808269 
2367	 0.117307341611872 
2368	 0.11596429870387 
2369	 0.115554562744145 
2370	 0.113689981556987 
2371	 0.111487608670342 
2372	 0.11058511911156 
2373	 0.109788464907072 
2374	 0.109080746157807 
2375	 0.110618378592758 
2376	 0.110154569519539 
2377	 0.108146925710858 
2378	 0.10723795513211 
2379	 0.10617430717852 
2380	 0.105175202963244 
2381	 0.104573640191784 
2382	 0.104860871066206 
2383	 0.105947726649725 
2384	 0.106122273937568 
2385	 0.106731886510527 
2386	 0.105879706500153 
2387	 0.102617820352342 
2388	 0.101188837975613 
2389	 0.100572058547674 
2390	 9.96467095696219E-02 
2391	 9.94284764398369E-02 
2392	 9.93766304282233E-02 
2393	 9.92414427665393E-02 
2394	 9.89732826196003E-02 
2395	 9.90392838555174E-02 
2396	 9.84068533624401E-02 
2397	 9.70078174749289E-02 
2398	 9.56236482777508E-02 
2399	 9.45020408377088E-02 
2400	 9.31828810799545E-02 
2401	 9.10859395064828E-02 
2402	 8.94968173009392E-02 
2403	 8.82946889442743E-02 
2404	 8.74733520818863E-02 
2405	 8.65251126927347E-02 
2406	 8.50563513128832E-02 
2407	 8.53147220489846E-02 
2408	 8.58969384050359E-02 
2409	 8.45446078588822E-02 
2410	 8.41719441204794E-02 
2411	 8.41955035647424E-02 
2412	 8.31205744688827E-02 
2413	 8.63003241797927E-02 
2414	 8.91829307841103E-02 
2415	 8.71467664657834E-02 
2416	 0.084033708866637 
2417	 8.00795493632308E-02 
2418	 7.71902254227927E-02 
2419	 7.85654510338995E-02 
2420	 8.26319876927243E-02 
2421	 8.63748705651133E-02 
2422	 8.91595990335799E-02 
2423	 8.89513447885095E-02 
2424	 0.084441126054775 
2425	 8.00192107614992E-02 
2426	 0.077120712318384 
2427	 7.17047908421806E-02 
2428	 7.00165370409619E-02 
2429	 7.37992718900088E-02 
2430	 7.30672832471232E-02 
2431	 7.44125508820471E-02 
2432	 7.79073198680008E-02 
2433	 0.073618968752778 
2434	 7.27890369863767E-02 
2435	 7.57696454176534E-02 
2436	 7.52140244663646E-02 
2437	 7.23849436590374E-02 
2438	 0.071057874639694 
2439	 6.68891263180994E-02 
2440	 6.58158808966755E-02 
2441	 7.07669323872277E-02 
2442	 7.07203564499783E-02 
2443	 6.78083721744576E-02 
2444	 6.74718547669865E-02 
2445	 6.44495683243659E-02 
2446	 6.35427454697105E-02 
2447	 6.65900745728905E-02 
2448	 6.69474887281455E-02 
2449	 0.068080339942107 
2450	 0.067731883827557 
2451	 6.64810350308197E-02 
2452	 6.54016073887563E-02 
2453	 6.14333264196687E-02 
2454	 5.79033649833111E-02 
2455	 5.55942695446129E-02 
2456	 5.42984119693497E-02 
2457	 5.24865665639194E-02 
2458	 5.21680781723317E-02 
2459	 5.29554672008597E-02 
2460	 5.24909601972808E-02 
2461	 0.052359646866171 
2462	 5.31879041005034E-02 
2463	 5.40352242776719E-02 
2464	 5.42079403815149E-02 
2465	 0.056805233524592 
2466	 5.58737248618688E-02 
2467	 5.10653359659879E-02 
2468	 4.90275347871393E-02 
2469	 4.48258017109741E-02 
2470	 4.39588607735087E-02 
2471	 4.60514196127223E-02 
2472	 4.95560401337779E-02 
2473	 5.72505199899894E-02 
2474	 5.85409066524649E-02 
2475	 6.30119208114353E-02 
2476	 6.06832125188137E-02 
2477	 4.27779645593339E-02 
2478	 4.18326061895668E-02 
2479	 4.84661913762178E-02 
2480	 4.76186847825184E-02 
2481	 5.42702141701725E-02 
2482	 5.28591994194357E-02 
2483	 3.41887846703677E-02 
2484	 3.99538543223981E-02 
2485	 7.01178167341098E-02 
2486	 7.76446919869209E-02 
2487	 7.24090012473636E-02 
2488	 5.43367236639311E-02 
2489	 0.044082344313438 
2490	 7.72434995687355E-02 
2491	 0.100961013138057 
2492	 8.73807679813922E-02 
2493	 7.37282312341113E-02 
2494	 6.37642379560883E-02 
2495	 4.65723558766598E-02 
2496	 6.95371492329728E-02 
2497	 9.06531732349938E-02 
2498	 8.28964142306966E-02 
2499	 0.083788289026644 
2500	 7.30592924735503E-02 
