Wavelength	ref00104.asd
350	 1.65191770658658E-02 
351	 1.68547612148752E-02 
352	 1.59806267832255E-02 
353	 0.015783932295189 
354	 1.60767360717073E-02 
355	 1.61767173243485E-02 
356	 1.58254760655437E-02 
357	 1.58438594880697E-02 
358	 1.57340903208904E-02 
359	 1.59695295559821E-02 
360	 1.67734932770629E-02 
361	 0.016077746885826 
362	 1.60881642373876E-02 
363	 1.67757605393587E-02 
364	 1.66823395286514E-02 
365	 1.67314056818891E-02 
366	 1.66592868284731E-02 
367	 1.63998541842569E-02 
368	 0.016328095902887 
369	 1.66476991333084E-02 
370	 1.69173029130084E-02 
371	 1.68001232984598E-02 
372	 1.67470418011538E-02 
373	 1.68373343156742E-02 
374	 1.68133673646164E-02 
375	 1.63849817229676E-02 
376	 1.63786381196871E-02 
377	 1.65594084234722E-02 
378	 1.68039708941797E-02 
379	 0.017235722630954 
380	 1.69886043499188E-02 
381	 1.68567345617454E-02 
382	 1.73423497328945E-02 
383	 1.71193730960136E-02 
384	 1.73390912634787E-02 
385	 1.76847676543291E-02 
386	 1.73885251099021E-02 
387	 1.72551917495361E-02 
388	 0.017511988767062 
389	 1.78870581822152E-02 
390	 1.77087761625453E-02 
391	 1.79446384484838E-02 
392	 1.81878242189275E-02 
393	 1.81011564189321E-02 
394	 1.80227582881653E-02 
395	 1.83388200034213E-02 
396	 0.018652015185382 
397	 1.85160909733035E-02 
398	 1.88172738905686E-02 
399	 0.018931081372278 
400	 0.018843629182407 
401	 1.90655427825546E-02 
402	 1.92855098727682E-02 
403	 1.93118192093149E-02 
404	 1.92169836000539E-02 
405	 1.95854062028646E-02 
406	 1.98240224766313E-02 
407	 1.98568794478662E-02 
408	 1.98330466506112E-02 
409	 2.00446911409667E-02 
410	 2.03321133113605E-02 
411	 2.05637058602262E-02 
412	 2.06722065573079E-02 
413	 2.08083209791503E-02 
414	 2.08872069899222E-02 
415	 2.09129618687995E-02 
416	 2.11574891855687E-02 
417	 2.14187949920136E-02 
418	 2.15485332911039E-02 
419	 2.15161068431205E-02 
420	 2.17575783189748E-02 
421	 0.02196539656112 
422	 2.20633970723318E-02 
423	 2.22048308509079E-02 
424	 2.22935824106274E-02 
425	 2.24924706917598E-02 
426	 2.27995881338516E-02 
427	 2.27488878657671E-02 
428	 2.28976025790741E-02 
429	 2.30906031899762E-02 
430	 2.30359205104684E-02 
431	 2.31029622639026E-02 
432	 2.33623541374472E-02 
433	 2.36492967467845E-02 
434	 0.023651681152403 
435	 2.37497694993499E-02 
436	 2.38139072260953E-02 
437	 2.38059537443861E-02 
438	 2.40672903893308E-02 
439	 0.024275856602254 
440	 2.43764529764553E-02 
441	 2.44278982088646E-02 
442	 2.45293115011719E-02 
443	 2.47206564184777E-02 
444	 2.48954038487007E-02 
445	 2.48419045399726E-02 
446	 2.50329437180602E-02 
447	 2.52039591267903E-02 
448	 2.51916462621545E-02 
449	 2.54278596486078E-02 
450	 2.55614840439813E-02 
451	 2.56305587857882E-02 
452	 2.58008897778868E-02 
453	 2.59198919831814E-02 
454	 2.59725174332813E-02 
455	 2.60221813829703E-02 
456	 2.62050910823047E-02 
457	 2.63126051152464E-02 
458	 0.026379840227236 
459	 0.026471423729916 
460	 2.65548625066241E-02 
461	 2.66997498892912E-02 
462	 2.68228137313704E-02 
463	 2.67979210056989E-02 
464	 2.68997485116946E-02 
465	 2.70503041275596E-02 
466	 2.71653162023875E-02 
467	 2.72091041645547E-02 
468	 2.73121646234015E-02 
469	 2.73920870019036E-02 
470	 2.73910157923085E-02 
471	 2.75896318077082E-02 
472	 0.027762561065448 
473	 2.78397291155654E-02 
474	 2.78784747482862E-02 
475	 2.79559381111141E-02 
476	 2.80242823958112E-02 
477	 2.80929301417593E-02 
478	 2.83294582369292E-02 
479	 2.84176719448304E-02 
480	 2.84828541058417E-02 
481	 2.86996715078948E-02 
482	 2.86512939191168E-02 
483	 2.86839194184474E-02 
484	 0.028876706225705 
485	 2.90119100852983E-02 
486	 2.91129903467337E-02 
487	 0.029168059917891 
488	 2.92234513167337E-02 
489	 2.94864662788107E-02 
490	 2.97212471914084E-02 
491	 2.98762806591029E-02 
492	 2.99983379624624E-02 
493	 3.01750104611913E-02 
494	 3.03654946813911E-02 
495	 3.05753824786138E-02 
496	 3.08782977419932E-02 
497	 3.11829477581729E-02 
498	 3.14835923289538E-02 
499	 3.18073087003598E-02 
500	 3.22254414591507E-02 
501	 3.25656673732086E-02 
502	 3.29379697286269E-02 
503	 0.033576376446808 
504	 3.40919745976582E-02 
505	 3.45811000129977E-02 
506	 3.51412477504173E-02 
507	 3.57696233660692E-02 
508	 0.036495750875674 
509	 3.72537686561144E-02 
510	 3.80040302091308E-02 
511	 3.89605032874934E-02 
512	 3.99903237504483E-02 
513	 4.10084963136167E-02 
514	 4.19973403751628E-02 
515	 4.31387945827775E-02 
516	 4.44193439150846E-02 
517	 4.57858209011826E-02 
518	 4.72076611210731E-02 
519	 4.86543426245324E-02 
520	 0.050105252980461 
521	 5.15617554925667E-02 
522	 5.30847245211388E-02 
523	 5.44992811563542E-02 
524	 5.58442484024428E-02 
525	 5.73883425266195E-02 
526	 5.89521054198017E-02 
527	 0.06048163875381 
528	 6.19521569449581E-02 
529	 6.33369119758943E-02 
530	 0.064611323775981 
531	 6.57930316320711E-02 
532	 6.69298460815208E-02 
533	 6.80396729388272E-02 
534	 6.91681429594508E-02 
535	 7.02599121300466E-02 
536	 0.07109649361212 
537	 7.20036052083624E-02 
538	 7.28996965193783E-02 
539	 0.073634678332718 
540	 7.43617543307448E-02 
541	 7.51081709593869E-02 
542	 7.58399529445726E-02 
543	 7.64786285146831E-02 
544	 7.70710308373776E-02 
545	 7.76478539033386E-02 
546	 7.82304910846886E-02 
547	 7.88254788721599E-02 
548	 7.94014918855221E-02 
549	 7.99350362492136E-02 
550	 8.04037956211954E-02 
551	 8.07755938897727E-02 
552	 8.10299198747324E-02 
553	 8.12095766492338E-02 
554	 8.14264509442891E-02 
555	 8.15654326745905E-02 
556	 8.15534902078127E-02 
557	 0.081385044801939 
558	 8.12325133584603E-02 
559	 8.10716297001547E-02 
560	 8.08207697208119E-02 
561	 8.03875542347828E-02 
562	 7.99771254653548E-02 
563	 7.94985787195271E-02 
564	 7.89102519210377E-02 
565	 7.83326026031672E-02 
566	 7.76992017525498E-02 
567	 7.69808568851519E-02 
568	 7.61830850969095E-02 
569	 7.54135167204802E-02 
570	 7.45951276412146E-02 
571	 7.37503314584973E-02 
572	 0.072992742282894 
573	 7.22618497571545E-02 
574	 7.16336005855673E-02 
575	 7.10987360646097E-02 
576	 7.03811525775536E-02 
577	 6.97056956867864E-02 
578	 6.91080586773238E-02 
579	 6.85411565475599E-02 
580	 6.80745224437697E-02 
581	 6.75779460175496E-02 
582	 6.70401630053004E-02 
583	 6.66256786891459E-02 
584	 6.61757792557383E-02 
585	 6.57753796333541E-02 
586	 6.54945717656267E-02 
587	 6.50845478005925E-02 
588	 6.47995426417376E-02 
589	 6.46286845288199E-02 
590	 6.43800654429891E-02 
591	 6.42399334670974E-02 
592	 0.064101437031121 
593	 0.06389934400993 
594	 6.37221391127439E-02 
595	 6.35384147294171E-02 
596	 6.33535661446613E-02 
597	 6.31724355092038E-02 
598	 6.29369068602091E-02 
599	 0.062771832876075 
600	 6.26891216910507E-02 
601	 6.25785993378994E-02 
602	 6.23446849561429E-02 
603	 6.21370909285538E-02 
604	 6.20267453373356E-02 
605	 0.061733752736461 
606	 6.14427783931887E-02 
607	 6.11850894509279E-02 
608	 6.09099121904895E-02 
609	 6.05376106214386E-02 
610	 6.01285576144425E-02 
611	 5.97499266355747E-02 
612	 5.94539682787082E-02 
613	 0.059076365537375 
614	 5.86422095310537E-02 
615	 5.82326615229034E-02 
616	 5.79191645198567E-02 
617	 5.75483556273633E-02 
618	 0.057175643405233 
619	 5.69762084899189E-02 
620	 5.67824644476514E-02 
621	 5.65553113473832E-02 
622	 0.056328296951896 
623	 5.62460726215667E-02 
624	 5.61288728215435E-02 
625	 5.60299039692418E-02 
626	 0.056053977094958 
627	 5.61229570151553E-02 
628	 5.61474481817446E-02 
629	 5.61353158688679E-02 
630	 5.61835587696927E-02 
631	 5.62129279187861E-02 
632	 5.61659784964409E-02 
633	 5.60256985398639E-02 
634	 5.58621737653887E-02 
635	 5.56358983550955E-02 
636	 5.53436666536154E-02 
637	 5.49959029321437E-02 
638	 5.45676355959849E-02 
639	 5.40994545548059E-02 
640	 5.36099630191481E-02 
641	 5.30969046102084E-02 
642	 5.25377786493004E-02 
643	 5.19599491699855E-02 
644	 5.13982766295901E-02 
645	 5.08942610270723E-02 
646	 0.050350645008853 
647	 4.98198167993367E-02 
648	 4.94316132783614E-02 
649	 4.91002085915481E-02 
650	 0.048789332239783 
651	 4.85166519787719E-02 
652	 4.83613073619048E-02 
653	 4.82450427798999E-02 
654	 4.81017904626516E-02 
655	 0.047905867637195 
656	 4.78213085356624E-02 
657	 4.76836435947346E-02 
658	 4.73912543347171E-02 
659	 4.69158430754529E-02 
660	 4.64722563339181E-02 
661	 4.60787584523073E-02 
662	 4.57362786222596E-02 
663	 4.54458202701368E-02 
664	 4.51490865026738E-02 
665	 4.48254275077958E-02 
666	 4.44908847351847E-02 
667	 4.42663268758629E-02 
668	 4.40316690830392E-02 
669	 4.38097586820034E-02 
670	 4.37498994626449E-02 
671	 4.37583538196646E-02 
672	 4.37953746848708E-02 
673	 4.38244040441137E-02 
674	 0.043793944012417 
675	 4.37274786285623E-02 
676	 4.37916194982083E-02 
677	 4.41222982400618E-02 
678	 4.43511519342664E-02 
679	 4.45639507859693E-02 
680	 0.044856641684419 
681	 4.52977806379577E-02 
682	 4.58040039611919E-02 
683	 0.046419713271345 
684	 4.71904231831184E-02 
685	 4.80838524390979E-02 
686	 4.92082602236873E-02 
687	 5.07266000120845E-02 
688	 5.26187902449217E-02 
689	 5.44550412089316E-02 
690	 5.66195073336934E-02 
691	 0.059327133518731 
692	 6.23826932118542E-02 
693	 6.60063956027629E-02 
694	 7.00180777451734E-02 
695	 7.42069502470498E-02 
696	 7.86019584856272E-02 
697	 8.32496068477508E-02 
698	 8.81414886853431E-02 
699	 9.32199766612807E-02 
700	 9.85554020588355E-02 
701	 0.104033961493327 
702	 0.109479575692855 
703	 0.114655027068909 
704	 0.119804862132965 
705	 0.124906244855977 
706	 0.129955524703225 
707	 0.135014736103922 
708	 0.139983345345558 
709	 0.144855388341973 
710	 0.149665594083995 
711	 0.154591000211876 
712	 0.159474291557872 
713	 0.164298006666457 
714	 0.16922987701071 
715	 0.174102720549058 
716	 0.179159843949562 
717	 0.184664747333225 
718	 0.190187962853841 
719	 0.195516753518532 
720	 0.200208567851932 
721	 0.204137789440391 
722	 0.208147805836332 
723	 0.212584184941619 
724	 0.217461762531421 
725	 0.221925555117573 
726	 0.225970527624384 
727	 0.229767137198719 
728	 0.233548485750225 
729	 0.237238027306323 
730	 0.240773556158402 
731	 0.243975518161569 
732	 0.246724664943821 
733	 0.249196974311607 
734	 0.251669704062782 
735	 0.254254926793657 
736	 0.256836780638492 
737	 0.259160013627788 
738	 0.26134184401254 
739	 0.263473695738897 
740	 0.265342242987695 
741	 0.267072520973089 
742	 0.268715336482255 
743	 0.270277583665034 
744	 0.271738641760146 
745	 0.273125050791156 
746	 0.274380305274074 
747	 0.27540916166199 
748	 0.276466865762276 
749	 0.277516622700992 
750	 0.278503495148517 
751	 0.27942281331574 
752	 0.280101494137352 
753	 0.28072282946208 
754	 0.281456846584728 
755	 0.282056050668921 
756	 0.282541213875221 
757	 0.282929696802811 
758	 0.283292547398285 
759	 0.284093935577779 
760	 0.285426871495909 
761	 0.28690228190405 
762	 0.287037822690156 
763	 0.28703691743227 
764	 0.287084495552764 
765	 0.287093405615005 
766	 0.28702934321763 
767	 0.287026957238533 
768	 0.287101001606475 
769	 0.287235853696097 
770	 0.287441225312939 
771	 0.287683549964951 
772	 0.287891463529709 
773	 0.287991165720356 
774	 0.288247151015145 
775	 0.288498185142985 
776	 0.288656737496623 
777	 0.28887553799449 
778	 0.28906926987185 
779	 0.28928069539781 
780	 0.28953900908157 
781	 0.28971692864761 
782	 0.289867389893807 
783	 0.29006619139525 
784	 0.290370184157072 
785	 0.29063319191134 
786	 0.290872915042211 
787	 0.291120677726521 
788	 0.291403645859952 
789	 0.291730326160324 
790	 0.292042655593225 
791	 0.292270748710928 
792	 0.292333923789841 
793	 0.292537742056042 
794	 0.292787320575531 
795	 0.292945426533721 
796	 0.29330443300206 
797	 0.293483081710765 
798	 0.293562832433007 
799	 0.293851083689644 
800	 0.29405365996589 
801	 0.294249227832866 
802	 0.294460953929944 
803	 0.294614529980455 
804	 0.294681478179972 
805	 0.294815039517434 
806	 0.295082192602271 
807	 0.295313755021002 
808	 0.295426019124309 
809	 0.295556765350025 
810	 0.295894895810527 
811	 0.296512163030901 
812	 0.297133230639806 
813	 0.297761362190707 
814	 0.298530403540632 
815	 0.299192595025989 
816	 0.299761180500116 
817	 0.3001031715603 
818	 0.299970198511771 
819	 0.299753668703781 
820	 0.299602932690534 
821	 0.299644012270444 
822	 0.300056951082638 
823	 0.300385134846039 
824	 0.300458758841446 
825	 0.300295061815664 
826	 0.300105035993222 
827	 0.300176853903384 
828	 0.300472235261214 
829	 0.30075352826858 
830	 0.30069035376025 
831	 0.300521708594095 
832	 0.300474011853383 
833	 0.300666355484909 
834	 0.300713021261594 
835	 0.300633525301159 
836	 0.300554884108474 
837	 0.300648536582393 
838	 0.300729787351484 
839	 0.30077824636948 
840	 0.300855077474229 
841	 0.3011249110178 
842	 0.301159295573255 
843	 0.301208461021082 
844	 0.301521972459747 
845	 0.301677928658617 
846	 0.301588050222142 
847	 0.301558444385902 
848	 0.301924415784444 
849	 0.302165344530013 
850	 0.302248905744812 
851	 0.30239043296211 
852	 0.302859601843375 
853	 0.302906568706434 
854	 0.30294437803012 
855	 0.303190494899797 
856	 0.30346705556967 
857	 0.303470177342887 
858	 0.303629689986335 
859	 0.303976158278934 
860	 0.303744469600159 
861	 0.303908089450439 
862	 0.304220274725827 
863	 0.304348855399094 
864	 0.304564592534909 
865	 0.304715159723848 
866	 0.304823846483387 
867	 0.304939692285287 
868	 0.304973760075619 
869	 0.304957651605376 
870	 0.304983955582888 
871	 0.305161120364265 
872	 0.305575209837302 
873	 0.305767168679308 
874	 0.30582070358698 
875	 0.306140773406079 
876	 0.306301060687342 
877	 0.306113749563686 
878	 0.305915834453875 
879	 0.306396475917894 
880	 0.306537919380772 
881	 0.306631558093074 
882	 0.306852291749157 
883	 0.306960177843736 
884	 0.307129309782277 
885	 0.307260115390718 
886	 0.307309256511544 
887	 0.307427100187599 
888	 0.307585418363885 
889	 0.307785984910266 
890	 0.307990315085173 
891	 0.308018895115338 
892	 0.308573514276145 
893	 0.309163064370317 
894	 0.309330477532977 
895	 0.31028637534644 
896	 0.310731663259653 
897	 0.311146777777586 
898	 0.312287326094055 
899	 0.312383310232365 
900	 0.312159525555561 
901	 0.311834254903006 
902	 0.311426900124747 
903	 0.311576553052655 
904	 0.311634893139926 
905	 0.31162037644905 
906	 0.311917295424152 
907	 0.312032458986134 
908	 0.312514070556218 
909	 0.313237998292725 
910	 0.313536795538639 
911	 0.313873949050559 
912	 0.313872316566776 
913	 0.313609910991532 
914	 0.31362173242265 
915	 0.313785016010417 
916	 0.313410056978388 
917	 0.312795033056826 
918	 0.313204262177772 
919	 0.313153057208745 
920	 0.312644753195099 
921	 0.312100846315039 
922	 0.312084858373371 
923	 0.31206843491707 
924	 0.312208571705145 
925	 0.312611786215636 
926	 0.313122790229661 
927	 0.313735112646493 
928	 0.314676426607509 
929	 0.315875737794275 
930	 0.316612713117098 
931	 0.318377461877111 
932	 0.320098118091665 
933	 0.320558843029111 
934	 0.320149735081925 
935	 0.320540921206937 
936	 0.320934471457759 
937	 0.320286291882129 
938	 0.318626665101398 
939	 0.31866124402074 
940	 0.318176637134292 
941	 0.316187277603652 
942	 0.316022096925719 
943	 0.316027465044936 
944	 0.315468867820586 
945	 0.314465073832805 
946	 0.314476436526925 
947	 0.314275085170635 
948	 0.313608208463558 
949	 0.312825423598378 
950	 0.312887091013443 
951	 0.311232773547078 
952	 0.309637104270967 
953	 0.309518234994682 
954	 0.309256670135629 
955	 0.307290948432659 
956	 0.305776480857355 
957	 0.305909428545411 
958	 0.305152722833193 
959	 0.303735676685971 
960	 0.302880937885441 
961	 0.303040208922798 
962	 0.302847681182916 
963	 0.300992822612524 
964	 0.300106605442873 
965	 0.300732351097208 
966	 0.298747203345315 
967	 0.297877134705114 
968	 0.298030708619038 
969	 0.297942136547589 
970	 0.296101292592853 
971	 0.29591551159618 
972	 0.296999603193146 
973	 0.297740528020524 
974	 0.296313345200254 
975	 0.295940757336106 
976	 0.296853532452556 
977	 0.297892275666251 
978	 0.297259163458795 
979	 0.296881167054424 
980	 0.296631095849976 
981	 0.296212382438463 
982	 0.295656562819444 
983	 0.296521102961327 
984	 0.29663513773951 
985	 0.295426120943929 
986	 0.294464342291108 
987	 0.295958642317841 
988	 0.29649022877911 
989	 0.295819514340639 
990	 0.296368789187185 
991	 0.297507140103552 
992	 0.297856220623427 
993	 0.297228034202728 
994	 0.296523352433628 
995	 0.297421033782604 
996	 0.297084567500203 
997	 0.296478423743965 
998	 0.297740900421518 
999	 0.299139442262398 
1000	 0.298537693684282 
1001	 0.296014890306224 
1002	 0.29653199736206 
1003	 0.29696733934941 
1004	 0.297363950740099 
1005	 0.29775157094585 
1006	 0.29816799857976 
1007	 0.298508505563041 
1008	 0.29881088308224 
1009	 0.299156274441402 
1010	 0.29951436584917 
1011	 0.299735374409775 
1012	 0.300026263506946 
1013	 0.300240248559241 
1014	 0.300538211159476 
1015	 0.300956328819071 
1016	 0.3014146110322 
1017	 0.301996868288512 
1018	 0.302449305977585 
1019	 0.302833896146406 
1020	 0.303220647267047 
1021	 0.303592310329783 
1022	 0.303903891824915 
1023	 0.304210660838681 
1024	 0.30441597037824 
1025	 0.304602403357562 
1026	 0.304938967423634 
1027	 0.305312648353883 
1028	 0.305719081709302 
1029	 0.306097789860106 
1030	 0.306363981316936 
1031	 0.30656010306658 
1032	 0.306732676855475 
1033	 0.3069579967331 
1034	 0.307217292596367 
1035	 0.307481741817327 
1036	 0.307764347195953 
1037	 0.308054971537272 
1038	 0.308411426632075 
1039	 0.308610513456648 
1040	 0.308806473053568 
1041	 0.30899246385711 
1042	 0.309133507977655 
1043	 0.309451518170452 
1044	 0.30978545296115 
1045	 0.310150131715263 
1046	 0.310676695034381 
1047	 0.310990142277535 
1048	 0.311148939534016 
1049	 0.311376962375149 
1050	 0.311612728148712 
1051	 0.311756613708905 
1052	 0.311992813905148 
1053	 0.31236020898331 
1054	 0.312790605774312 
1055	 0.313159906026149 
1056	 0.313480856171625 
1057	 0.313864336377573 
1058	 0.314076256299498 
1059	 0.314284256723957 
1060	 0.314596577264499 
1061	 0.314778086307885 
1062	 0.314960421462637 
1063	 0.315171753355332 
1064	 0.315297907657937 
1065	 0.315471739723437 
1066	 0.315663318063622 
1067	 0.315893748277134 
1068	 0.316075783067109 
1069	 0.31628837977947 
1070	 0.31653399087742 
1071	 0.316808965303901 
1072	 0.31703484029894 
1073	 0.317260424641758 
1074	 0.317455831698042 
1075	 0.317561695558345 
1076	 0.31778030064056 
1077	 0.317944152120861 
1078	 0.31800769160314 
1079	 0.318116486259899 
1080	 0.318150198438129 
1081	 0.318228486442989 
1082	 0.318326456360843 
1083	 0.31848769069846 
1084	 0.31852825559359 
1085	 0.318594500963516 
1086	 0.318691068521285 
1087	 0.318647685652159 
1088	 0.318611044661955 
1089	 0.318635487914214 
1090	 0.31859264060388 
1091	 0.31866237607685 
1092	 0.318917027803288 
1093	 0.319203451763474 
1094	 0.319457360402423 
1095	 0.319603693643646 
1096	 0.319754387989384 
1097	 0.319841053229689 
1098	 0.319950301429931 
1099	 0.320036727194019 
1100	 0.320170698625336 
1101	 0.320342928224485 
1102	 0.32041185037477 
1103	 0.320582338352752 
1104	 0.320817690699252 
1105	 0.320970828229293 
1106	 0.321215800688968 
1107	 0.321449094994225 
1108	 0.321753791971895 
1109	 0.322201657332416 
1110	 0.322595770253081 
1111	 0.323151009269443 
1112	 0.323949044249803 
1113	 0.324653678772161 
1114	 0.325434320029133 
1115	 0.32627194225032 
1116	 0.327181807778635 
1117	 0.327976597326548 
1118	 0.328824323487249 
1119	 0.329827797036008 
1120	 0.330655853307486 
1121	 0.331163827177004 
1122	 0.331559942268893 
1123	 0.331794738933884 
1124	 0.331838013498474 
1125	 0.33160227226478 
1126	 0.331044835925567 
1127	 0.33029406905885 
1128	 0.329211117538615 
1129	 0.327752324371958 
1130	 0.326307652010735 
1131	 0.324720229341592 
1132	 0.323083858231711 
1133	 0.321312824998606 
1134	 0.3196278929934 
1135	 0.318078562905019 
1136	 0.31646009869767 
1137	 0.314846988869999 
1138	 0.313306329459498 
1139	 0.311748261059993 
1140	 0.310243194204087 
1141	 0.308793712118829 
1142	 0.30734609135603 
1143	 0.305909121477832 
1144	 0.304428497880327 
1145	 0.302931699993575 
1146	 0.30160849957769 
1147	 0.300018520505929 
1148	 0.29832931814757 
1149	 0.296593088905136 
1150	 0.294739985929429 
1151	 0.29297003648822 
1152	 0.291220782128748 
1153	 0.289625491831034 
1154	 0.288109567265879 
1155	 0.286768566938562 
1156	 0.285505081780355 
1157	 0.284319562499561 
1158	 0.283243446101413 
1159	 0.282259295235578 
1160	 0.281323777221759 
1161	 0.280408510323527 
1162	 0.279640851620403 
1163	 0.278899497394735 
1164	 0.278316011738594 
1165	 0.277908903426612 
1166	 0.277465049690646 
1167	 0.277065130702513 
1168	 0.276692943517044 
1169	 0.276318675719664 
1170	 0.275968455149305 
1171	 0.275723426623513 
1172	 0.275499892063398 
1173	 0.275310840312095 
1174	 0.275159008726728 
1175	 0.274993872758487 
1176	 0.274817522754446 
1177	 0.274670546075117 
1178	 0.274543440870468 
1179	 0.274380864462748 
1180	 0.274254625035507 
1181	 0.274069807956817 
1182	 0.273800878964546 
1183	 0.273592483769318 
1184	 0.273370509049436 
1185	 0.273181463605913 
1186	 0.273075811927157 
1187	 0.272894616979774 
1188	 0.272678122538708 
1189	 0.272479901102627 
1190	 0.272266726819357 
1191	 0.272095350239114 
1192	 0.271942453609613 
1193	 0.271846363417196 
1194	 0.271815981186757 
1195	 0.271829420158933 
1196	 0.271827562374815 
1197	 0.271924748720223 
1198	 0.271939064422053 
1199	 0.271857292046366 
1200	 0.27188221806729 
1201	 0.271941591638788 
1202	 0.272020982754047 
1203	 0.272196062451742 
1204	 0.272294394191353 
1205	 0.272378272290397 
1206	 0.272428576312312 
1207	 0.272350019599871 
1208	 0.272407871465256 
1209	 0.272505728683687 
1210	 0.272644763468815 
1211	 0.272907090483014 
1212	 0.273156327322442 
1213	 0.273314408063462 
1214	 0.273391951710703 
1215	 0.273591350784485 
1216	 0.273778105699971 
1217	 0.273991392093883 
1218	 0.274292047667353 
1219	 0.2745639400561 
1220	 0.274806232407935 
1221	 0.275079401811558 
1222	 0.275420343013273 
1223	 0.275702354040926 
1224	 0.275942189711165 
1225	 0.276202498471849 
1226	 0.276466903759615 
1227	 0.276717070837665 
1228	 0.276985528618051 
1229	 0.277214599657944 
1230	 0.277413251697763 
1231	 0.27759817965795 
1232	 0.277821104096555 
1233	 0.278049780616007 
1234	 0.278281612648544 
1235	 0.278548166246646 
1236	 0.278787961809304 
1237	 0.279006867871706 
1238	 0.279235214680765 
1239	 0.279466103233548 
1240	 0.279696054783719 
1241	 0.279932376375275 
1242	 0.280160409089398 
1243	 0.280374749280431 
1244	 0.280609555434891 
1245	 0.280876030453704 
1246	 0.281092662845071 
1247	 0.281274021427917 
1248	 0.281487906543553 
1249	 0.28171145803287 
1250	 0.281898156714226 
1251	 0.28207717030824 
1252	 0.282281557062719 
1253	 0.282471734671539 
1254	 0.28262784470148 
1255	 0.282779639794928 
1256	 0.282972409695516 
1257	 0.283090288603449 
1258	 0.283109559826292 
1259	 0.283212457779194 
1260	 0.283338754720429 
1261	 0.2834475136033 
1262	 0.283574042057912 
1263	 0.283698594142964 
1264	 0.283837507102923 
1265	 0.283920417511627 
1266	 0.283944831929544 
1267	 0.284037260045084 
1268	 0.284125713279741 
1269	 0.284202646183913 
1270	 0.284355524236784 
1271	 0.284455400301293 
1272	 0.284534996936267 
1273	 0.284528918730861 
1274	 0.284534727444921 
1275	 0.284516641817522 
1276	 0.284527765747122 
1277	 0.284494488323971 
1278	 0.284546678282888 
1279	 0.284712931651283 
1280	 0.284726436542015 
1281	 0.284660709546812 
1282	 0.284693907663959 
1283	 0.284711555873409 
1284	 0.284714728775637 
1285	 0.284869511595063 
1286	 0.284830567179501 
1287	 0.284612772391889 
1288	 0.284457873366539 
1289	 0.284256620689118 
1290	 0.284063383524027 
1291	 0.283886936739072 
1292	 0.283691667161696 
1293	 0.283498913034012 
1294	 0.283259426144574 
1295	 0.283022048318452 
1296	 0.282702381923648 
1297	 0.28239872026258 
1298	 0.282054393788247 
1299	 0.281700296216198 
1300	 0.281344620854971 
1301	 0.280952857265105 
1302	 0.280524844914615 
1303	 0.280074690872611 
1304	 0.279605710755168 
1305	 0.279105131472989 
1306	 0.278573011530746 
1307	 0.278001687374572 
1308	 0.277402717048333 
1309	 0.276767154240665 
1310	 0.276066604183681 
1311	 0.275373837379923 
1312	 0.274687860966768 
1313	 0.273934325573418 
1314	 0.27312987924063 
1315	 0.272328814587205 
1316	 0.271454394560308 
1317	 0.270619607069559 
1318	 0.26981894350646 
1319	 0.269001803480685 
1320	 0.268147392845287 
1321	 0.267359492823014 
1322	 0.266506476563925 
1323	 0.265582843985577 
1324	 0.264766273560122 
1325	 0.263980189452909 
1326	 0.263139095237314 
1327	 0.262364544019456 
1328	 0.261468271221313 
1329	 0.260449875972579 
1330	 0.259435604026626 
1331	 0.258369856208761 
1332	 0.257334132986412 
1333	 0.25626005762901 
1334	 0.255260203536001 
1335	 0.254296334195714 
1336	 0.253385265476526 
1337	 0.252381589726158 
1338	 0.251653383640617 
1339	 0.251160248994439 
1340	 0.250601212003734 
1341	 0.250063829821491 
1342	 0.249727333171243 
1343	 0.249347585217152 
1344	 0.249197012800803 
1345	 0.24943784179668 
1346	 0.250079963788542 
1347	 0.250717396666428 
1348	 0.251486622981724 
1349	 0.252415683284555 
1350	 0.253640381765648 
1351	 0.255122345521999 
1352	 0.25726220169879 
1353	 0.259608788580024 
1354	 0.262572284292073 
1355	 0.265806137393808 
1356	 0.267411457337895 
1357	 0.271609775594741 
1358	 0.275422960120793 
1359	 0.281702541154882 
1360	 0.289804804872188 
1361	 0.299465946172639 
1362	 0.294758194344345 
1363	 0.299544841778678 
1364	 0.307278525575889 
1365	 0.307953797458904 
1366	 0.303181329023754 
1367	 0.30258514881916 
1368	 0.299399002802931 
1369	 0.294857619061796 
1370	 0.295773986760841 
1371	 0.292322560523373 
1372	 0.282713741521593 
1373	 0.27791712307363 
1374	 0.27490045720365 
1375	 0.270586203310182 
1376	 0.269555547165957 
1377	 0.270749109416996 
1378	 0.267418291589317 
1379	 0.263210000107702 
1380	 0.257526981553112 
1381	 0.247923187150122 
1382	 0.241486796661896 
1383	 0.23836110853905 
1384	 0.230299455635664 
1385	 0.220042280783581 
1386	 0.213556261100702 
1387	 0.207336278859184 
1388	 0.20239291488045 
1389	 0.200993359166428 
1390	 0.197271812903009 
1391	 0.192000555750792 
1392	 0.187524942289946 
1393	 0.183628687114954 
1394	 0.178926353360157 
1395	 0.173159441183887 
1396	 0.168974231734851 
1397	 0.165083824734336 
1398	 0.161360804529742 
1399	 0.159386616842475 
1400	 0.155751190910411 
1401	 0.151010764030931 
1402	 0.14683790923369 
1403	 0.142621975706379 
1404	 0.138605110056593 
1405	 0.134845122313012 
1406	 0.131918627298464 
1407	 0.128752038009604 
1408	 0.125927230987759 
1409	 0.123907713327994 
1410	 0.121651838218076 
1411	 0.119539425373973 
1412	 0.117686788656487 
1413	 0.115715592051085 
1414	 0.11360826914113 
1415	 0.111990512547208 
1416	 0.110610482790099 
1417	 0.1091471247467 
1418	 0.107908096127934 
1419	 0.10643984367052 
1420	 0.10462788511395 
1421	 0.103458364571584 
1422	 0.102447389821517 
1423	 0.101572046878908 
1424	 0.100994452452527 
1425	 0.100332330192518 
1426	 9.96087177496251E-02 
1427	 9.89713460516547E-02 
1428	 9.83583982966739E-02 
1429	 9.78403477008706E-02 
1430	 9.73174981055528E-02 
1431	 9.68830799735615E-02 
1432	 9.64895453751155E-02 
1433	 9.62002855466063E-02 
1434	 9.60861007270939E-02 
1435	 9.58532112126392E-02 
1436	 9.57631754036993E-02 
1437	 9.54697917561667E-02 
1438	 9.49255130229159E-02 
1439	 0.094489747607135 
1440	 9.39972419078629E-02 
1441	 9.36056098137008E-02 
1442	 9.33117022934133E-02 
1443	 9.30530092312328E-02 
1444	 9.28175723565296E-02 
1445	 9.24749366724136E-02 
1446	 9.20540977411076E-02 
1447	 9.16977393170895E-02 
1448	 9.14806850549411E-02 
1449	 9.13561192449545E-02 
1450	 9.11042197366344E-02 
1451	 9.08853345662579E-02 
1452	 9.07181207294986E-02 
1453	 9.04485355468715E-02 
1454	 9.03380829604064E-02 
1455	 9.03868359950809E-02 
1456	 9.03346891865965E-02 
1457	 9.01998871261652E-02 
1458	 0.090228896177657 
1459	 9.03093760917587E-02 
1460	 9.04344841670824E-02 
1461	 9.06854818096277E-02 
1462	 9.09051176967973E-02 
1463	 9.11169641924863E-02 
1464	 9.14275618948992E-02 
1465	 9.18607968411788E-02 
1466	 9.22281621407926E-02 
1467	 0.09264847302925 
1468	 9.30129001859598E-02 
1469	 9.32557395427235E-02 
1470	 9.36057202664319E-02 
1471	 9.40068722559374E-02 
1472	 9.43462598885153E-02 
1473	 0.09470030155404 
1474	 9.49759300666365E-02 
1475	 9.51079830253629E-02 
1476	 0.095350101973367 
1477	 9.55601905213248E-02 
1478	 9.58751937629765E-02 
1479	 9.62852505718359E-02 
1480	 9.66732125719353E-02 
1481	 9.71404072337413E-02 
1482	 9.75329988609647E-02 
1483	 9.79238426957804E-02 
1484	 9.82526090235819E-02 
1485	 9.84382406385733E-02 
1486	 0.098724179458018 
1487	 9.90856204477954E-02 
1488	 9.93363987823772E-02 
1489	 9.95408478958371E-02 
1490	 9.98956638201372E-02 
1491	 0.100187937048751 
1492	 0.100498064768143 
1493	 0.100938205952846 
1494	 0.101309894519792 
1495	 0.101666202797258 
1496	 0.10196802815786 
1497	 0.102382853410069 
1498	 0.102808017911126 
1499	 0.103319719755116 
1500	 0.10397329616088 
1501	 0.104485342092832 
1502	 0.10496931211169 
1503	 0.105501910374085 
1504	 0.105940851079506 
1505	 0.106568117223757 
1506	 0.107367877897303 
1507	 0.10801660477191 
1508	 0.108722085746539 
1509	 0.109296048891082 
1510	 0.109695758744874 
1511	 0.110250253200911 
1512	 0.110841152934232 
1513	 0.111403135940374 
1514	 0.112028235965441 
1515	 0.112599682799665 
1516	 0.113089662981624 
1517	 0.113664844871152 
1518	 0.114296831531575 
1519	 0.114905906249748 
1520	 0.115530098463145 
1521	 0.116162471844615 
1522	 0.116786451255237 
1523	 0.117417388545464 
1524	 0.118120781146635 
1525	 0.11872222249995 
1526	 0.119236942589335 
1527	 0.11982940602961 
1528	 0.12039195377684 
1529	 0.120987710083454 
1530	 0.121654760184132 
1531	 0.12230445660546 
1532	 0.122979630311273 
1533	 0.123599914021438 
1534	 0.124185045509225 
1535	 0.124806061802423 
1536	 0.125388453886874 
1537	 0.125994834571461 
1538	 0.126669614248475 
1539	 0.127311595379546 
1540	 0.1279340922164 
1541	 0.128549079912144 
1542	 0.129148576337693 
1543	 0.129759901375791 
1544	 0.130359411371695 
1545	 0.130974126024755 
1546	 0.131642699289617 
1547	 0.13225514786395 
1548	 0.132818290089021 
1549	 0.133408656034878 
1550	 0.133985386783104 
1551	 0.13456709840921 
1552	 0.135167584488045 
1553	 0.135775470336897 
1554	 0.136403096103646 
1555	 0.136990518318246 
1556	 0.137546335993266 
1557	 0.138137198062551 
1558	 0.138736776271461 
1559	 0.139305980964903 
1560	 0.139897722913866 
1561	 0.140474495714344 
1562	 0.140959050325115 
1563	 0.141516957314931 
1564	 0.142143274451916 
1565	 0.142786314457797 
1566	 0.143319237754484 
1567	 0.143884158077748 
1568	 0.144414572464468 
1569	 0.144838496176884 
1570	 0.1454084428167 
1571	 0.146079533558103 
1572	 0.146636421728718 
1573	 0.147189987871846 
1574	 0.147715241861236 
1575	 0.148159750227532 
1576	 0.148679997916299 
1577	 0.149231614151012 
1578	 0.14974608243333 
1579	 0.150254981213947 
1580	 0.150755612304898 
1581	 0.15122025231782 
1582	 0.151743130810844 
1583	 0.152296688027342 
1584	 0.152819565384664 
1585	 0.153366255997763 
1586	 0.153874248674131 
1587	 0.154349237466817 
1588	 0.154834914436122 
1589	 0.155313722697099 
1590	 0.155806279940042 
1591	 0.156301695852107 
1592	 0.156789427830271 
1593	 0.157305249300056 
1594	 0.157750743095489 
1595	 0.158145287693929 
1596	 0.15858476099362 
1597	 0.159017632986879 
1598	 0.159437330216581 
1599	 0.159856691840647 
1600	 0.160324813815854 
1601	 0.160803461911448 
1602	 0.161243426267808 
1603	 0.16173262984648 
1604	 0.162166120014191 
1605	 0.162504616195516 
1606	 0.162916857076434 
1607	 0.163378719459954 
1608	 0.163777412770507 
1609	 0.164130801621467 
1610	 0.164552893077971 
1611	 0.164998419007458 
1612	 0.165390514918511 
1613	 0.165800655992577 
1614	 0.166195795715747 
1615	 0.166510440528817 
1616	 0.166913764638783 
1617	 0.167411578284883 
1618	 0.16778461203399 
1619	 0.168115736487434 
1620	 0.168474852565646 
1621	 0.16879089712174 
1622	 0.169118967093394 
1623	 0.169481617728908 
1624	 0.169809238081772 
1625	 0.170092154910121 
1626	 0.170398740073585 
1627	 0.170703828359788 
1628	 0.171058213711218 
1629	 0.171455802243424 
1630	 0.171791660294089 
1631	 0.172166646988501 
1632	 0.17244638018879 
1633	 0.172610603994489 
1634	 0.172870766965282 
1635	 0.173130028066288 
1636	 0.173442566477543 
1637	 0.173807280762733 
1638	 0.174165366263219 
1639	 0.174569102390783 
1640	 0.174874284593347 
1641	 0.175183544798387 
1642	 0.175389586392686 
1643	 0.17546944616222 
1644	 0.175667765164375 
1645	 0.175820079577097 
1646	 0.176050353445114 
1647	 0.176403270278062 
1648	 0.176604332629145 
1649	 0.17680120770539 
1650	 0.176922812686817 
1651	 0.176908222787734 
1652	 0.177016857405178 
1653	 0.177116063549036 
1654	 0.17727054724795 
1655	 0.177546038463457 
1656	 0.177644318677953 
1657	 0.177684078021874 
1658	 0.177665894291565 
1659	 0.177662358811736 
1660	 0.177829778639858 
1661	 0.177971355566963 
1662	 0.178120588451094 
1663	 0.178283241557766 
1664	 0.178264000991537 
1665	 0.178194898526837 
1666	 0.178169144455604 
1667	 0.178159179975062 
1668	 0.17821760207548 
1669	 0.178331644811827 
1670	 0.17833585612336 
1671	 0.178256410975854 
1672	 0.178272235554116 
1673	 0.178261872984133 
1674	 0.178232681685213 
1675	 0.178254620444929 
1676	 0.178123291974618 
1677	 0.178054298578099 
1678	 0.178122293937613 
1679	 0.177939057923657 
1680	 0.17765936670169 
1681	 0.177456010429673 
1682	 0.177304525607031 
1683	 0.177236355835648 
1684	 0.177202885248381 
1685	 0.177149180978472 
1686	 0.176902874619877 
1687	 0.176699973488311 
1688	 0.176667431212996 
1689	 0.176542385739073 
1690	 0.176452024617145 
1691	 0.176228944756034 
1692	 0.175756289477101 
1693	 0.175440680463244 
1694	 0.175130564807724 
1695	 0.174858723977384 
1696	 0.174725385168756 
1697	 0.174544651437843 
1698	 0.174343317213582 
1699	 0.174114973342244 
1700	 0.173911369551647 
1701	 0.173663039538497 
1702	 0.173366989825491 
1703	 0.173019381333918 
1704	 0.172511746109139 
1705	 0.172188076183739 
1706	 0.17198067903662 
1707	 0.171727749887223 
1708	 0.171606526685239 
1709	 0.171380027248424 
1710	 0.17104579059736 
1711	 0.170667983380297 
1712	 0.170214988504173 
1713	 0.16988490412021 
1714	 0.169546479648793 
1715	 0.169245532069314 
1716	 0.169053467205958 
1717	 0.168820537856056 
1718	 0.168581096091218 
1719	 0.168272911511514 
1720	 0.167982524421602 
1721	 0.167656264139178 
1722	 0.167173520007341 
1723	 0.166838324177168 
1724	 0.166591865468277 
1725	 0.16633057657206 
1726	 0.166110664124344 
1727	 0.165907765628081 
1728	 0.165713315283836 
1729	 0.165506581900819 
1730	 0.165307219094809 
1731	 0.165106675639172 
1732	 0.164942352461161 
1733	 0.164763327007286 
1734	 0.164630033511754 
1735	 0.164372705280972 
1736	 0.164193662945586 
1737	 0.164118241969938 
1738	 0.163809626247239 
1739	 0.163412492143433 
1740	 0.163054755524807 
1741	 0.162692292917217 
1742	 0.162320112700787 
1743	 0.162071096970739 
1744	 0.161876747185109 
1745	 0.161552608911415 
1746	 0.16133893075831 
1747	 0.160903242013577 
1748	 0.160121713723626 
1749	 0.159452887462653 
1750	 0.158892452199808 
1751	 0.158557072816819 
1752	 0.158426669670022 
1753	 0.1581264454332 
1754	 0.157568542580582 
1755	 0.157088024175117 
1756	 0.156735031542875 
1757	 0.156353496265613 
1758	 0.156044630942927 
1759	 0.155723615927497 
1760	 0.155480274655814 
1761	 0.155445780745724 
1762	 0.155196381193882 
1763	 0.154801110544401 
1764	 0.154489704225189 
1765	 0.15413083602962 
1766	 0.153818666721363 
1767	 0.153528747336782 
1768	 0.153357604603337 
1769	 0.153280369639507 
1770	 0.153027950691779 
1771	 0.152845294761999 
1772	 0.152706123894759 
1773	 0.152313502268517 
1774	 0.152364715343093 
1775	 0.152357341637864 
1776	 0.152246661180054 
1777	 0.152451662988846 
1778	 0.152440115709081 
1779	 0.1522845291598 
1780	 0.152302519426926 
1781	 0.152187150760774 
1782	 0.152354800741424 
1783	 0.152718228147238 
1784	 0.152773935058764 
1785	 0.152902399782797 
1786	 0.152798220965538 
1787	 0.152791370720054 
1788	 0.15319769745293 
1789	 0.153274135877253 
1790	 0.153819274764114 
1791	 0.154482190225394 
1792	 0.154792277225703 
1793	 0.155359609172973 
1794	 0.15554095497955 
1795	 0.155805488781032 
1796	 0.156357044979851 
1797	 0.157086869900099 
1798	 0.158210782206603 
1799	 0.158829845106626 
1800	 0.15948256852712 
1801	 0.156577762595507 
1802	 0.158118229886121 
1803	 0.159402713154987 
1804	 0.161399041589889 
1805	 0.162214540138782 
1806	 0.16099163735241 
1807	 0.161383111987218 
1808	 0.162537984519472 
1809	 0.162620775355347 
1810	 0.163501556892663 
1811	 0.166008590001372 
1812	 0.167742466277917 
1813	 0.169045575365811 
1814	 0.170285825533818 
1815	 0.172265381717645 
1816	 0.17317392826124 
1817	 0.171956333948644 
1818	 0.171734372576256 
1819	 0.171517567441221 
1820	 0.17048366840305 
1821	 0.171151360084753 
1822	 0.173384791175126 
1823	 0.175256334944397 
1824	 0.17928311569706 
1825	 0.181959850208651 
1826	 0.183506392475347 
1827	 0.186070039957646 
1828	 0.1890062000315 
1829	 0.192921709560326 
1830	 0.194771444939214 
1831	 0.196129335666993 
1832	 0.195802528427606 
1833	 0.172632990884536 
1834	 0.177787088574592 
1835	 0.237282411441765 
1836	 0.262142909062589 
1837	 0.294985958025015 
1838	 0.315256115194082 
1839	 0.305331390645667 
1840	 0.194900466020082 
1841	 0.17727415588771 
1842	 0.206619741984264 
1843	 0.200337064328512 
1844	 0.199995892204109 
1845	 0.200580040387588 
1846	 0.174327241451091 
1847	 0.175125533950088 
1848	 0.188169889987105 
1849	 0.236208153135082 
1850	 0.248174459553682 
1851	 0.25067323679954 
1852	 0.265489098777319 
1853	 0.276577694661032 
1854	 0.273381968055678 
1855	 0.272547104707306 
1856	 0.276165620425854 
1857	 0.259653760265718 
1858	 0.26349319301841 
1859	 0.249822442138714 
1860	 0.236683326438485 
1861	 0.223718624622029 
1862	 0.185938345125003 
1863	 0.177912801493576 
1864	 0.202185453502063 
1865	 0.207249224830806 
1866	 0.215051951456082 
1867	 0.219096632678779 
1868	 0.209855946170715 
1869	 0.17121570433098 
1870	 0.170711844613327 
1871	 0.198274368751981 
1872	 0.193256797094663 
1873	 0.206798797550901 
1874	 0.191721847975786 
1875	 0.150226999540296 
1876	 0.131284379996762 
1877	 0.116576444546603 
1878	 0.105113458021216 
1879	 0.109469915120565 
1880	 0.112704724742023 
1881	 0.110114507804823 
1882	 0.109906092997826 
1883	 0.106882791151029 
1884	 9.55063009505137E-02 
1885	 9.17812628447584E-02 
1886	 9.07001523873181E-02 
1887	 9.20808170140825E-02 
1888	 9.37578947096733E-02 
1889	 8.97263821460204E-02 
1890	 9.00576559455681E-02 
1891	 9.12379035047219E-02 
1892	 9.25795411235393E-02 
1893	 0.100572696204095 
1894	 0.101267756199877 
1895	 9.41022933631808E-02 
1896	 8.97775686176693E-02 
1897	 8.14742214689628E-02 
1898	 6.79102741399103E-02 
1899	 7.21699630057236E-02 
1900	 0.087743998720236 
1901	 0.095398082182775 
1902	 0.118139738773538 
1903	 0.125555677169042 
1904	 0.111577000925322 
1905	 0.104599968800738 
1906	 0.097783318646652 
1907	 8.37230765000773E-02 
1908	 7.24907593916715E-02 
1909	 7.54750156552441E-02 
1910	 8.39088969365421E-02 
1911	 8.31109496990386E-02 
1912	 8.27739801375376E-02 
1913	 8.58171350855586E-02 
1914	 8.03978606642222E-02 
1915	 6.99294136029666E-02 
1916	 6.61730847458785E-02 
1917	 6.17330409093581E-02 
1918	 0.059506761597591 
1919	 5.88024556055919E-02 
1920	 0.063051116492399 
1921	 6.73027090369294E-02 
1922	 6.82157727524939E-02 
1923	 6.79159077510427E-02 
1924	 6.62578963760866E-02 
1925	 6.45763033686397E-02 
1926	 6.09850917848742E-02 
1927	 5.98235918860588E-02 
1928	 5.88120301777835E-02 
1929	 6.09248334187644E-02 
1930	 6.24787789264523E-02 
1931	 5.86150476699202E-02 
1932	 5.79034681100212E-02 
1933	 5.95764256363674E-02 
1934	 0.058846096644502 
1935	 0.057739848393696 
1936	 0.057418152565833 
1937	 5.65730218291183E-02 
1938	 5.52825331207038E-02 
1939	 5.32368354172148E-02 
1940	 5.42046790803802E-02 
1941	 5.49208051558597E-02 
1942	 5.33506637209263E-02 
1943	 5.38876502251344E-02 
1944	 5.49941327305499E-02 
1945	 5.36681975039972E-02 
1946	 5.35446638576016E-02 
1947	 0.054156307714626 
1948	 5.55308078449871E-02 
1949	 0.055596472025685 
1950	 5.61706891029405E-02 
1951	 0.056391769791051 
1952	 5.42293897635933E-02 
1953	 5.24428726076369E-02 
1954	 5.25700139202643E-02 
1955	 5.29217254964549E-02 
1956	 5.36976406996877E-02 
1957	 5.46867844195798E-02 
1958	 5.51686954125919E-02 
1959	 5.54629212282907E-02 
1960	 5.50040829154594E-02 
1961	 5.39255791919586E-02 
1962	 5.35062069497426E-02 
1963	 5.33384586683567E-02 
1964	 5.30029075349295E-02 
1965	 5.37456957858153E-02 
1966	 5.42841456556852E-02 
1967	 5.39624363222044E-02 
1968	 5.40683114207953E-02 
1969	 5.41180875297108E-02 
1970	 5.39325902407854E-02 
1971	 5.40626081609664E-02 
1972	 5.44847608328001E-02 
1973	 5.46621031259764E-02 
1974	 5.46546455717434E-02 
1975	 5.48975332634685E-02 
1976	 5.45503668051186E-02 
1977	 5.41939755040336E-02 
1978	 5.47192685693291E-02 
1979	 5.49945557299786E-02 
1980	 5.51144619121395E-02 
1981	 5.58432914661881E-02 
1982	 5.62021873089987E-02 
1983	 5.62680225367884E-02 
1984	 5.60525564630775E-02 
1985	 5.64826769182956E-02 
1986	 0.056691115582009 
1987	 5.65344470409409E-02 
1988	 5.69123106767004E-02 
1989	 5.71915030791287E-02 
1990	 5.71834541008792E-02 
1991	 5.73112247059053E-02 
1992	 5.72616533872536E-02 
1993	 5.72390400310585E-02 
1994	 5.76522152504267E-02 
1995	 5.78187177559356E-02 
1996	 5.79210761308647E-02 
1997	 5.81005339011651E-02 
1998	 5.88032810271303E-02 
1999	 5.88673497419983E-02 
2000	 5.90586236977878E-02 
2001	 6.00867471881711E-02 
2002	 6.06381482471872E-02 
2003	 6.08605515434463E-02 
2004	 6.16327803309017E-02 
2005	 6.18304758164172E-02 
2006	 6.18831061961687E-02 
2007	 6.14459591179757E-02 
2008	 6.15164449183337E-02 
2009	 6.13119244621097E-02 
2010	 6.20388287707812E-02 
2011	 6.32769461387542E-02 
2012	 0.063311405811402 
2013	 6.39388246095093E-02 
2014	 6.42723771379592E-02 
2015	 0.06355773787138 
2016	 6.34440351404468E-02 
2017	 6.30702384144833E-02 
2018	 6.25790716998354E-02 
2019	 6.24079052882128E-02 
2020	 0.062284117171091 
2021	 6.27046298195706E-02 
2022	 6.35126928409026E-02 
2023	 6.38665420019711E-02 
2024	 6.42224418289536E-02 
2025	 6.44859064567939E-02 
2026	 6.42933363331461E-02 
2027	 6.42022580999429E-02 
2028	 6.45354676823228E-02 
2029	 6.45458227813177E-02 
2030	 6.44074980578594E-02 
2031	 6.47179723677523E-02 
2032	 6.49336421473856E-02 
2033	 6.50862558784335E-02 
2034	 6.52191716085325E-02 
2035	 6.56772839936907E-02 
2036	 6.60173101541011E-02 
2037	 6.59478084525407E-02 
2038	 6.62243580938563E-02 
2039	 6.65692006556259E-02 
2040	 6.63731361721692E-02 
2041	 0.066580810420098 
2042	 6.68834117333028E-02 
2043	 6.69178436715576E-02 
2044	 6.72278126613039E-02 
2045	 6.75014846253161E-02 
2046	 6.78232766110435E-02 
2047	 0.068032411795567 
2048	 6.80373279730468E-02 
2049	 6.79420048855595E-02 
2050	 6.76659242207295E-02 
2051	 6.72504019008267E-02 
2052	 0.067407040809122 
2053	 6.76577402537348E-02 
2054	 6.77855721394273E-02 
2055	 6.80935417582953E-02 
2056	 6.84297660846899E-02 
2057	 6.85638355430108E-02 
2058	 0.068484017123942 
2059	 6.84853834735283E-02 
2060	 6.84668601054419E-02 
2061	 6.82332336785359E-02 
2062	 0.068178099565516 
2063	 0.068714334635147 
2064	 6.91944590631147E-02 
2065	 0.069935833827971 
2066	 7.08825817505737E-02 
2067	 7.11801364065308E-02 
2068	 7.14961863660416E-02 
2069	 7.16528718305224E-02 
2070	 7.12945002037388E-02 
2071	 7.11108026091538E-02 
2072	 7.10773662215828E-02 
2073	 7.11290774676527E-02 
2074	 7.10685323621618E-02 
2075	 7.12400896180179E-02 
2076	 7.18449228881864E-02 
2077	 7.24424019538364E-02 
2078	 7.28174928436702E-02 
2079	 7.30209097370442E-02 
2080	 0.072966676892108 
2081	 7.27378873102864E-02 
2082	 7.27381833324738E-02 
2083	 7.29437866200258E-02 
2084	 7.29922513269545E-02 
2085	 7.33383713554368E-02 
2086	 7.35853009171664E-02 
2087	 7.37972975117018E-02 
2088	 7.39645509192758E-02 
2089	 7.45480061333279E-02 
2090	 7.46917665644882E-02 
2091	 7.47128374397445E-02 
2092	 7.51758606379364E-02 
2093	 7.53136500341473E-02 
2094	 7.53008196794016E-02 
2095	 7.57691042983125E-02 
2096	 7.58599090753488E-02 
2097	 7.58271061259435E-02 
2098	 7.62357184816042E-02 
2099	 7.64077183318686E-02 
2100	 7.66078579485111E-02 
2101	 7.68492684438785E-02 
2102	 7.72097925945323E-02 
2103	 7.75628252888987E-02 
2104	 7.81814756289585E-02 
2105	 7.86132778444435E-02 
2106	 7.89243984240122E-02 
2107	 7.91510941635304E-02 
2108	 7.90699044648049E-02 
2109	 7.90708049708704E-02 
2110	 7.91915345983712E-02 
2111	 7.91471927818986E-02 
2112	 7.92181874620412E-02 
2113	 7.95791568140269E-02 
2114	 7.99364788174373E-02 
2115	 8.04982100593659E-02 
2116	 8.10334061618887E-02 
2117	 8.13315152130987E-02 
2118	 8.13840066504769E-02 
2119	 8.15477599437515E-02 
2120	 8.15804587661793E-02 
2121	 0.081708901911568 
2122	 8.19815859194204E-02 
2123	 8.23534661714711E-02 
2124	 0.082595238797377 
2125	 8.26562028488414E-02 
2126	 8.29626033588117E-02 
2127	 8.31801176624422E-02 
2128	 8.36173312298466E-02 
2129	 8.41806232252498E-02 
2130	 8.41637713980073E-02 
2131	 0.084253860130212 
2132	 8.43499295311177E-02 
2133	 8.41130776710986E-02 
2134	 0.084108874810669 
2135	 8.43001819704051E-02 
2136	 8.43596066527807E-02 
2137	 8.43382653932459E-02 
2138	 8.47197174538573E-02 
2139	 8.51685742083803E-02 
2140	 8.55048619657766E-02 
2141	 0.085663866560978 
2142	 0.085626701277689 
2143	 8.57015718758003E-02 
2144	 8.59799223752111E-02 
2145	 0.086421240239024 
2146	 8.71652415853614E-02 
2147	 8.75736297371781E-02 
2148	 8.75066030232656E-02 
2149	 8.78474030280666E-02 
2150	 8.80582019972124E-02 
2151	 8.82516419305213E-02 
2152	 8.87887053619276E-02 
2153	 8.89817781136465E-02 
2154	 8.88814511610685E-02 
2155	 8.86950620286007E-02 
2156	 8.86212399976229E-02 
2157	 8.86355039385225E-02 
2158	 8.90988665422781E-02 
2159	 8.95136277110642E-02 
2160	 8.97387565896882E-02 
2161	 8.98695546707911E-02 
2162	 8.95515698932665E-02 
2163	 8.94385019479568E-02 
2164	 8.98656822025054E-02 
2165	 9.02636618913041E-02 
2166	 9.05052582818054E-02 
2167	 9.04151650158163E-02 
2168	 9.02816796955573E-02 
2169	 8.95071890968932E-02 
2170	 8.94012534702935E-02 
2171	 8.94527210898782E-02 
2172	 9.00857884489216E-02 
2173	 9.05920030217823E-02 
2174	 9.06762867173907E-02 
2175	 9.05887967682441E-02 
2176	 9.03733363996967E-02 
2177	 9.08668798249466E-02 
2178	 9.15613991458532E-02 
2179	 9.20971233782525E-02 
2180	 9.26004357211814E-02 
2181	 9.25431003410086E-02 
2182	 9.25457140186336E-02 
2183	 0.092445016763543 
2184	 9.22782837672988E-02 
2185	 9.21724063245862E-02 
2186	 0.091681589141644 
2187	 9.16490064450405E-02 
2188	 9.21009599387043E-02 
2189	 9.24597297297697E-02 
2190	 9.28851580197392E-02 
2191	 9.35709270287562E-02 
2192	 9.39757077306108E-02 
2193	 9.37830139848934E-02 
2194	 9.37104630047636E-02 
2195	 9.37373052779172E-02 
2196	 9.37274817371844E-02 
2197	 9.36863431568168E-02 
2198	 9.36584996523106E-02 
2199	 9.37388768665893E-02 
2200	 0.093727566517279 
2201	 9.39369167188533E-02 
2202	 9.40326634528659E-02 
2203	 9.38581691119541E-02 
2204	 9.37846836978493E-02 
2205	 9.37772301921793E-02 
2206	 9.38185198504977E-02 
2207	 9.37021145338758E-02 
2208	 9.35711999386427E-02 
2209	 0.093318546147234 
2210	 9.30522591932071E-02 
2211	 9.26083748429643E-02 
2212	 9.26445622508774E-02 
2213	 0.093025968573324 
2214	 9.35162763904728E-02 
2215	 0.094279966929583 
2216	 9.45637369223853E-02 
2217	 9.41945639799852E-02 
2218	 9.37347381809613E-02 
2219	 9.33367586239189E-02 
2220	 9.34407675601815E-02 
2221	 9.37562416399652E-02 
2222	 9.40511698634969E-02 
2223	 9.42574156679853E-02 
2224	 9.40509366294145E-02 
2225	 9.37712897977381E-02 
2226	 9.34676870240688E-02 
2227	 9.33067930223584E-02 
2228	 9.35017604485559E-02 
2229	 9.33728620667943E-02 
2230	 9.32445783151217E-02 
2231	 9.32586906323905E-02 
2232	 9.33544716955171E-02 
2233	 9.29920704705259E-02 
2234	 9.24800282113316E-02 
2235	 9.23937102035163E-02 
2236	 9.16820410567456E-02 
2237	 9.07659357691803E-02 
2238	 9.08128830745955E-02 
2239	 9.08145659192798E-02 
2240	 9.04046303363428E-02 
2241	 9.04578244615897E-02 
2242	 0.090509889162245 
2243	 8.99991293309026E-02 
2244	 8.93971803471529E-02 
2245	 8.91716800402327E-02 
2246	 0.088643643422675 
2247	 8.79717149310365E-02 
2248	 8.77691087116239E-02 
2249	 8.79321337043619E-02 
2250	 0.087864651819141 
2251	 8.74031747350778E-02 
2252	 8.72008119334196E-02 
2253	 8.67014365923281E-02 
2254	 8.64768141342229E-02 
2255	 8.68215652184778E-02 
2256	 8.68513684466418E-02 
2257	 8.68730141767497E-02 
2258	 8.68350887660405E-02 
2259	 8.59387229700501E-02 
2260	 8.49093159508632E-02 
2261	 8.47953980418587E-02 
2262	 8.45940437859786E-02 
2263	 8.47583596832181E-02 
2264	 8.53167334567695E-02 
2265	 8.48441433625518E-02 
2266	 8.36689284168288E-02 
2267	 8.27201066246377E-02 
2268	 8.16687372411725E-02 
2269	 8.10176849590744E-02 
2270	 8.08455838295447E-02 
2271	 8.06382996493729E-02 
2272	 8.08692929859635E-02 
2273	 8.05841871850433E-02 
2274	 8.02822317652484E-02 
2275	 0.080729482314228 
2276	 8.05999500861764E-02 
2277	 0.079789896365846 
2278	 7.89887065643206E-02 
2279	 7.81206863260875E-02 
2280	 7.73497621295165E-02 
2281	 7.75693015274699E-02 
2282	 7.78824881608971E-02 
2283	 7.80052354372996E-02 
2284	 7.81256583791653E-02 
2285	 7.83980221726203E-02 
2286	 7.83526380566586E-02 
2287	 7.82756378915708E-02 
2288	 7.73527226722516E-02 
2289	 7.69815204429128E-02 
2290	 7.60138378889935E-02 
2291	 7.47311712790594E-02 
2292	 7.49068132086747E-02 
2293	 7.50749141806438E-02 
2294	 7.48465952264502E-02 
2295	 7.50140314402108E-02 
2296	 7.50893242587046E-02 
2297	 7.42073038555131E-02 
2298	 7.36445616789891E-02 
2299	 7.35190529323017E-02 
2300	 7.32339772633208E-02 
2301	 7.28688620944849E-02 
2302	 7.24570432333324E-02 
2303	 0.073029264058502 
2304	 7.32186791382238E-02 
2305	 7.26281758492625E-02 
2306	 7.21662574432269E-02 
2307	 0.071040001598517 
2308	 7.01337036611512E-02 
2309	 7.02222174090301E-02 
2310	 7.07820314517365E-02 
2311	 7.11455656638155E-02 
2312	 7.11121021297788E-02 
2313	 0.070775367316363 
2314	 7.00553240809347E-02 
2315	 6.90099352615097E-02 
2316	 6.86528973761285E-02 
2317	 6.89550557196128E-02 
2318	 6.94007367318379E-02 
2319	 7.04721093487508E-02 
2320	 7.04278807053118E-02 
2321	 7.02672664017135E-02 
2322	 6.91152044532488E-02 
2323	 6.93860756802739E-02 
2324	 6.99009187558425E-02 
2325	 7.12477252450362E-02 
2326	 7.29185828327255E-02 
2327	 7.32718079994763E-02 
2328	 7.15506479031494E-02 
2329	 6.96288554947116E-02 
2330	 6.85595148328201E-02 
2331	 6.85718802849487E-02 
2332	 7.00905721546616E-02 
2333	 7.08079686968703E-02 
2334	 7.03516968005732E-02 
2335	 6.93601756827442E-02 
2336	 6.80591009386817E-02 
2337	 6.83362876616798E-02 
2338	 6.84008131943845E-02 
2339	 6.68973150706472E-02 
2340	 6.52340415831657E-02 
2341	 6.43880365491614E-02 
2342	 6.46201576099794E-02 
2343	 6.60382612698115E-02 
2344	 6.76992512321499E-02 
2345	 6.83516728522711E-02 
2346	 6.81106488109038E-02 
2347	 6.76955417592211E-02 
2348	 6.85178572881642E-02 
2349	 6.84173255019099E-02 
2350	 6.80501517697226E-02 
2351	 0.06756956332793 
2352	 6.52597187366456E-02 
2353	 6.35057795031109E-02 
2354	 6.26617191251707E-02 
2355	 6.28079894937558E-02 
2356	 6.29783773480155E-02 
2357	 6.39185295986517E-02 
2358	 6.48130560169818E-02 
2359	 0.063839309334776 
2360	 6.50244260908638E-02 
2361	 6.69598621267277E-02 
2362	 6.70378165247335E-02 
2363	 6.83191011659796E-02 
2364	 6.87854875626478E-02 
2365	 6.74710090252706E-02 
2366	 6.66549531545735E-02 
2367	 6.48441614467012E-02 
2368	 6.25533063552804E-02 
2369	 6.18715178680975E-02 
2370	 6.16658055249956E-02 
2371	 6.19401654799787E-02 
2372	 6.22245422595596E-02 
2373	 6.24986648140111E-02 
2374	 6.28118228459544E-02 
2375	 0.063179772669063 
2376	 6.35978822950548E-02 
2377	 6.55891664498152E-02 
2378	 6.58529834042219E-02 
2379	 6.49289245873882E-02 
2380	 6.43987744386548E-02 
2381	 6.22934072491501E-02 
2382	 6.10603673929842E-02 
2383	 5.97518673498581E-02 
2384	 5.96685965635755E-02 
2385	 6.12582956765079E-02 
2386	 6.17455605390433E-02 
2387	 0.064293942291172 
2388	 6.38102014165889E-02 
2389	 5.85799881553915E-02 
2390	 5.77745863042844E-02 
2391	 5.76349853937084E-02 
2392	 5.80629111782672E-02 
2393	 6.33889458257058E-02 
2394	 6.48102468492729E-02 
2395	 6.24178373002521E-02 
2396	 6.17543412641725E-02 
2397	 6.07779034800968E-02 
2398	 5.94865113133339E-02 
2399	 5.96092776660268E-02 
2400	 0.059790562631167 
2401	 5.88960304890109E-02 
2402	 5.89289354018543E-02 
2403	 5.92301518330093E-02 
2404	 5.74458714205697E-02 
2405	 5.55731833217772E-02 
2406	 5.27983288006068E-02 
2407	 5.23757365057907E-02 
2408	 5.31076506106164E-02 
2409	 5.35422754693873E-02 
2410	 5.76102497508719E-02 
2411	 6.07667873026741E-02 
2412	 6.02916245850564E-02 
2413	 6.25277246547396E-02 
2414	 6.26583649041957E-02 
2415	 6.03219734138499E-02 
2416	 6.17710104146865E-02 
2417	 6.19254117864592E-02 
2418	 6.14462455818226E-02 
2419	 0.063400654522664 
2420	 0.063886088879927 
2421	 6.25205165141009E-02 
2422	 5.92779673677897E-02 
2423	 5.42425105600011E-02 
2424	 5.08079288827223E-02 
2425	 4.97473012942688E-02 
2426	 4.80979293413537E-02 
2427	 4.73267797859245E-02 
2428	 5.04211270051279E-02 
2429	 5.19308762233312E-02 
2430	 5.33725488677192E-02 
2431	 5.48761000144289E-02 
2432	 5.22588093948824E-02 
2433	 5.27691520337245E-02 
2434	 5.21796105973075E-02 
2435	 5.39934912817109E-02 
2436	 5.53130926022368E-02 
2437	 5.17502251565744E-02 
2438	 5.24887075272124E-02 
2439	 5.85896935092718E-02 
2440	 5.87884554374535E-02 
2441	 0.056208299096974 
2442	 5.59865729608278E-02 
2443	 5.47884867403929E-02 
2444	 5.36074320684841E-02 
2445	 5.73265121355043E-02 
2446	 5.72713901740502E-02 
2447	 4.68643568683361E-02 
2448	 4.49104186814538E-02 
2449	 4.61683176840302E-02 
2450	 4.91618963042692E-02 
2451	 6.20796337539209E-02 
2452	 6.78501442716179E-02 
2453	 7.09525121773897E-02 
2454	 7.23907028189915E-02 
2455	 7.05518689302583E-02 
2456	 7.00522611573983E-02 
2457	 7.01263652516935E-02 
2458	 6.59707940967232E-02 
2459	 5.61900124564684E-02 
2460	 5.27803971831862E-02 
2461	 5.01131954524044E-02 
2462	 4.81162825168438E-02 
2463	 5.22264197926227E-02 
2464	 5.23737635974449E-02 
2465	 4.71123361436813E-02 
2466	 4.54508462538571E-02 
2467	 4.53263968681256E-02 
2468	 0.046996013665102 
2469	 5.33017331921856E-02 
2470	 0.05674946742396 
2471	 6.48104262254576E-02 
2472	 6.33421693970049E-02 
2473	 4.74393793987077E-02 
2474	 4.55398147265972E-02 
2475	 4.05218701671371E-02 
2476	 4.38563533224672E-02 
2477	 7.24912349341202E-02 
2478	 7.66509559430437E-02 
2479	 0.07264103614028 
2480	 6.10933188022955E-02 
2481	 1.44746137661597E-02 
2482	 8.35058203331063E-03 
2483	 2.50684083777437E-02 
2484	 2.83689704504292E-02 
2485	 6.03883531040103E-02 
2486	 7.81523060358186E-02 
2487	 6.77768372565436E-02 
2488	 7.95302109126853E-02 
2489	 0.109839172042107 
2490	 0.126503078236925 
2491	 0.120182499224375 
2492	 0.124591877171579 
2493	 0.110993526771744 
2494	 0.068942075361207 
2495	 7.23947588848369E-02 
2496	 0.102648967559836 
2497	 0.112027257272239 
2498	 0.149003240592898 
2499	 0.181694431195204 
2500	 0.178331427302885 
