Wavelength	ref00027.asd
350	 2.03057195665008E-02 
351	 2.01208116715285E-02 
352	 2.01342418413288E-02 
353	 2.04562142354483E-02 
354	 0.020641133800227 
355	 2.07688142525915E-02 
356	 0.020957390979338 
357	 2.12160338006863E-02 
358	 2.12365513429764E-02 
359	 2.10406097356572E-02 
360	 2.08417634998082E-02 
361	 2.11576167726798E-02 
362	 2.11243779064559E-02 
363	 2.07503995504605E-02 
364	 2.06568800696561E-02 
365	 2.12354259875866E-02 
366	 2.12805630943883E-02 
367	 2.06808887608375E-02 
368	 2.10638807857128E-02 
369	 2.12603520309277E-02 
370	 2.14458816879867E-02 
371	 0.02190328181745 
372	 2.22915474063249E-02 
373	 2.24212376563605E-02 
374	 2.24476397202048E-02 
375	 2.26987586442046E-02 
376	 2.32986577997325E-02 
377	 2.38508783282243E-02 
378	 2.42953129059585E-02 
379	 2.50170346415599E-02 
380	 2.57532366862405E-02 
381	 2.65200096047939E-02 
382	 2.73919172526284E-02 
383	 2.84258434552017E-02 
384	 2.97573888718229E-02 
385	 3.11865552892583E-02 
386	 3.24377027306939E-02 
387	 3.38400478851484E-02 
388	 3.54716481085936E-02 
389	 3.73405589394018E-02 
390	 3.93935682294572E-02 
391	 4.18739762748253E-02 
392	 4.45029908433248E-02 
393	 4.72067577054103E-02 
394	 5.05495750249867E-02 
395	 5.42452174837754E-02 
396	 0.057920981749645 
397	 0.061348728212451 
398	 6.51799172434303E-02 
399	 0.068745750602603 
400	 7.21345674600725E-02 
401	 7.60635140702423E-02 
402	 8.01690937086989E-02 
403	 8.44933286647237E-02 
404	 8.91217684105326E-02 
405	 9.41574056358576E-02 
406	 9.93813951207621E-02 
407	 0.104816183653012 
408	 0.110509521086816 
409	 0.116306134193845 
410	 0.121975565019202 
411	 0.127436270395423 
412	 0.132765312848129 
413	 0.138147808634171 
414	 0.143415160323368 
415	 0.148445175448949 
416	 0.153329771098197 
417	 0.158088917635778 
418	 0.162673201599724 
419	 0.167019429527189 
420	 0.171076976214255 
421	 0.174876827976543 
422	 0.178384890803874 
423	 0.181543627959846 
424	 0.184663410258687 
425	 0.187656429585029 
426	 0.190456685783197 
427	 0.193184106334799 
428	 0.196078078586585 
429	 0.198841259886362 
430	 0.20106368897125 
431	 0.202883075465717 
432	 0.204258168129866 
433	 0.205269625859856 
434	 0.206113721899144 
435	 0.20702429707746 
436	 0.208205938008916 
437	 0.209583128134306 
438	 0.21056038451734 
439	 0.211480836904934 
440	 0.212204535956005 
441	 0.212546163717244 
442	 0.212951718916498 
443	 0.213360790183762 
444	 0.213807879757524 
445	 0.214428688791897 
446	 0.214861271385844 
447	 0.215077346512734 
448	 0.215147196207986 
449	 0.215181771342035 
450	 0.215261656204507 
451	 0.215471611865774 
452	 0.215855510193973 
453	 0.216274856557761 
454	 0.216590205464827 
455	 0.216733152008606 
456	 0.216719114088262 
457	 0.216746963657141 
458	 0.216812716544414 
459	 0.216871320267031 
460	 0.216928537684817 
461	 0.216940893434633 
462	 0.216877350873356 
463	 0.216758805153091 
464	 0.216933445683625 
465	 0.217208061655603 
466	 0.217426139929898 
467	 0.217581197510356 
468	 0.217645421828052 
469	 0.217673264269999 
470	 0.21770706236228 
471	 0.21763881858081 
472	 0.217571095511358 
473	 0.21752360203462 
474	 0.21746761461899 
475	 0.217574703449637 
476	 0.217675903829417 
477	 0.217689031851152 
478	 0.217788285429403 
479	 0.217823679415162 
480	 0.217781238274787 
481	 0.217696840247823 
482	 0.217559773375925 
483	 0.217681166600915 
484	 0.218180454078872 
485	 0.218937867754337 
486	 0.21947162306875 
487	 0.219604293660902 
488	 0.219365724880425 
489	 0.21902941893886 
490	 0.218944364595526 
491	 0.219178670482818 
492	 0.219590763750371 
493	 0.219779291311536 
494	 0.21986751970705 
495	 0.219976696861538 
496	 0.220165939491911 
497	 0.220393880663836 
498	 0.220766739531468 
499	 0.221312269239241 
500	 0.221693823227012 
501	 0.22210567218772 
502	 0.222547452729114 
503	 0.222896142788797 
504	 0.223087985027102 
505	 0.223260687489797 
506	 0.223560460840636 
507	 0.224106730387032 
508	 0.224780870702153 
509	 0.225396841974603 
510	 0.225850626487784 
511	 0.226467131999458 
512	 0.227202182516693 
513	 0.227960319907193 
514	 0.228639285383612 
515	 0.229573836289485 
516	 0.230868157323825 
517	 0.232361725559449 
518	 0.233440936448275 
519	 0.234167223257911 
520	 0.234822735296054 
521	 0.235720628347355 
522	 0.236652392554241 
523	 0.237557298436076 
524	 0.23847891817523 
525	 0.239554450884055 
526	 0.240967319810581 
527	 0.242312143372697 
528	 0.24319499531093 
529	 0.243623656190652 
530	 0.244192797909155 
531	 0.245062389156608 
532	 0.24609148295795 
533	 0.24697342705334 
534	 0.247584221216495 
535	 0.247975422156555 
536	 0.248421160549791 
537	 0.249007556756968 
538	 0.249611896568319 
539	 0.250116081971457 
540	 0.250810854394078 
541	 0.251423189648077 
542	 0.251820023911873 
543	 0.252032148244331 
544	 0.252350523716705 
545	 0.252746060780518 
546	 0.253169800400276 
547	 0.253687855328879 
548	 0.254134015012776 
549	 0.254431274439876 
550	 0.254596177105167 
551	 0.254930470123217 
552	 0.255230387214783 
553	 0.255389254040312 
554	 0.255464390987133 
555	 0.255412207593747 
556	 0.255379787295584 
557	 0.255489755093586 
558	 0.255655423455528 
559	 0.25569690341699 
560	 0.255547137923023 
561	 0.255265386383077 
562	 0.255250714611006 
563	 0.255237154858618 
564	 0.255090946415963 
565	 0.255087161758858 
566	 0.254858665989201 
567	 0.254397593502896 
568	 0.253853815269318 
569	 0.253443942559442 
570	 0.253159203140219 
571	 0.252893293439519 
572	 0.252474011241181 
573	 0.25202792567323 
574	 0.251749077064922 
575	 0.251644395587533 
576	 0.251237087823666 
577	 0.250722074641982 
578	 0.250194075093308 
579	 0.249675063778191 
580	 0.248953696506176 
581	 0.24821700649297 
582	 0.247560412497589 
583	 0.246906216660378 
584	 0.246439208794319 
585	 0.246106951897065 
586	 0.245786477998844 
587	 0.245292009570518 
588	 0.245258947124988 
589	 0.245689115735963 
590	 0.246057068855758 
591	 0.245963235098857 
592	 0.245895348017862 
593	 0.246102648433497 
594	 0.246167923602734 
595	 0.246278812235422 
596	 0.24630962175893 
597	 0.246126868597111 
598	 0.246060888427354 
599	 0.245946207311143 
600	 0.245780616276511 
601	 0.245740706853654 
602	 0.245745911488951 
603	 0.245697159322145 
604	 0.245579638304433 
605	 0.245600568727236 
606	 0.245693976248072 
607	 0.245792280955522 
608	 0.245838907320316 
609	 0.245921003332336 
610	 0.246016759846532 
611	 0.246080323307326 
612	 0.246047594237623 
613	 0.246142518430862 
614	 0.246204794794284 
615	 0.246098312437201 
616	 0.246208483496321 
617	 0.246171626571915 
618	 0.245982735409185 
619	 0.245884300108336 
620	 0.245753877056347 
621	 0.245703599125956 
622	 0.245764065120417 
623	 0.245752984273624 
624	 0.245785144062376 
625	 0.245850178631632 
626	 0.245908569861815 
627	 0.246003926518625 
628	 0.246118086727061 
629	 0.246217527337123 
630	 0.246262847363029 
631	 0.246403660700277 
632	 0.246424383112616 
633	 0.24622456271026 
634	 0.246173508831925 
635	 0.246086210921098 
636	 0.245955838447977 
637	 0.245822059836681 
638	 0.245501299730834 
639	 0.24513065887912 
640	 0.244812532976013 
641	 0.244578523876913 
642	 0.244281412065785 
643	 0.243954519013114 
644	 0.243647104255375 
645	 0.243304082906697 
646	 0.242971492266312 
647	 0.242689782570869 
648	 0.242501168903914 
649	 0.242515529373596 
650	 0.242515381272326 
651	 0.242415752749655 
652	 0.242406805506588 
653	 0.242321810843116 
654	 0.242216561064416 
655	 0.242264566001612 
656	 0.242898242305893 
657	 0.243352717042618 
658	 0.243309852815135 
659	 0.24300858004255 
660	 0.242860687708615 
661	 0.24275899440632 
662	 0.242629464535334 
663	 0.242603928396969 
664	 0.242684136969754 
665	 0.242732501551761 
666	 0.242647057753226 
667	 0.242764742663505 
668	 0.242901035362619 
669	 0.242963898933329 
670	 0.242980826805598 
671	 0.243094758061291 
672	 0.243342127975043 
673	 0.243669593850663 
674	 0.243876018139031 
675	 0.244151095123569 
676	 0.244497123386446 
677	 0.24485098615788 
678	 0.245230202664243 
679	 0.245645905889915 
680	 0.246127974655405 
681	 0.246715722043791 
682	 0.247241147562144 
683	 0.247813143169747 
684	 0.248520021318818 
685	 0.249200551401301 
686	 0.250270647711757 
687	 0.25194202203403 
688	 0.254033628631938 
689	 0.255714226489987 
690	 0.257304905596466 
691	 0.25911757779966 
692	 0.261180562049929 
693	 0.263611796476246 
694	 0.266524517785769 
695	 0.269929045143036 
696	 0.273660945451323 
697	 0.277625487898767 
698	 0.281783162834649 
699	 0.286110247568463 
700	 0.290631892888924 
701	 0.295509645185098 
702	 0.300613744600807 
703	 0.305458508810165 
704	 0.310163447704805 
705	 0.314781315318027 
706	 0.319403349877891 
707	 0.324100390078428 
708	 0.328868719035912 
709	 0.333581953453727 
710	 0.338082245055895 
711	 0.342693480936119 
712	 0.347370758091105 
713	 0.351975731624599 
714	 0.356311360074399 
715	 0.360491537016864 
716	 0.364430809488083 
717	 0.368261887361814 
718	 0.372471804392462 
719	 0.377028682500724 
720	 0.381760088238304 
721	 0.386360874275389 
722	 0.390094101028134 
723	 0.393607307150887 
724	 0.39730026623531 
725	 0.400806999476733 
726	 0.404254855487801 
727	 0.407613033585388 
728	 0.41088795088572 
729	 0.41394101752634 
730	 0.416851457333061 
731	 0.419689195040099 
732	 0.422493268859935 
733	 0.425065426545108 
734	 0.427384494240765 
735	 0.429544708636022 
736	 0.431655409759713 
737	 0.433498933744014 
738	 0.435262758396027 
739	 0.437078775427875 
740	 0.438748371726612 
741	 0.440210547291827 
742	 0.441473344054928 
743	 0.4425983571921 
744	 0.443769497698324 
745	 0.444767406912492 
746	 0.445575002157872 
747	 0.446335885518532 
748	 0.447034857686514 
749	 0.44773239516321 
750	 0.448435230223982 
751	 0.44905227462578 
752	 0.449577945909045 
753	 0.450027376533223 
754	 0.450411102228493 
755	 0.450695487638209 
756	 0.450858867035932 
757	 0.450788142895224 
758	 0.450524759467931 
759	 0.451959879150697 
760	 0.455095926303832 
761	 0.458500696157731 
762	 0.457768936634027 
763	 0.457402979974164 
764	 0.457160072167261 
765	 0.456340564765543 
766	 0.455395462477652 
767	 0.454689750909985 
768	 0.454356818116783 
769	 0.454372588709158 
770	 0.454287417041024 
771	 0.45431735416511 
772	 0.454470000937116 
773	 0.454564754878887 
774	 0.454708066835494 
775	 0.454813139790627 
776	 0.454870807557336 
777	 0.455047782208608 
778	 0.455221535096658 
779	 0.455341883007947 
780	 0.455411693354422 
781	 0.45554448082533 
782	 0.455636828076761 
783	 0.455743554390774 
784	 0.455956019729043 
785	 0.455985921168772 
786	 0.456064842354567 
787	 0.45620976914489 
788	 0.456179227781497 
789	 0.456204604845524 
790	 0.45632432993086 
791	 0.45652351584656 
792	 0.45675891634161 
793	 0.457060597853158 
794	 0.457297276459652 
795	 0.457352667397016 
796	 0.457359243021392 
797	 0.457404840845734 
798	 0.457536474084244 
799	 0.457743241577022 
800	 0.457835210291161 
801	 0.457913257801509 
802	 0.458018487327237 
803	 0.45809871861662 
804	 0.45833923173236 
805	 0.458587090010556 
806	 0.458713234531648 
807	 0.458773318016985 
808	 0.458900046201101 
809	 0.459039687056591 
810	 0.459030960217551 
811	 0.458560713554737 
812	 0.458156715803355 
813	 0.458001057066649 
814	 0.458014258149631 
815	 0.457947869651767 
816	 0.457954974771246 
817	 0.458126490789098 
818	 0.45840856809974 
819	 0.458424955729603 
820	 0.458323262476454 
821	 0.458436074894863 
822	 0.459251013796935 
823	 0.459661369047027 
824	 0.459407737354646 
825	 0.458846267641565 
826	 0.459173730768908 
827	 0.459714074915621 
828	 0.46003998563125 
829	 0.459954631433501 
830	 0.459990688108621 
831	 0.460214209053819 
832	 0.460528354974733 
833	 0.460751229751925 
834	 0.460974967841921 
835	 0.461059980448868 
836	 0.461113544418529 
837	 0.461515588833713 
838	 0.461668521774589 
839	 0.461834358196123 
840	 0.462143033648528 
841	 0.462122883592646 
842	 0.462324941842007 
843	 0.462665452423605 
844	 0.462890658727478 
845	 0.462850487280564 
846	 0.462856836650673 
847	 0.462976132776736 
848	 0.463177877544883 
849	 0.463650379852404 
850	 0.463779386379222 
851	 0.463580078768962 
852	 0.463605629207199 
853	 0.464275025679562 
854	 0.465060370197103 
855	 0.465251440085128 
856	 0.464279952492896 
857	 0.463789377153999 
858	 0.464073955971927 
859	 0.464737698180542 
860	 0.464773996947057 
861	 0.46480748739793 
862	 0.464829396140386 
863	 0.464807707924618 
864	 0.464999036802883 
865	 0.465562578760019 
866	 0.466241785758477 
867	 0.466557671119249 
868	 0.46589281137752 
869	 0.465327282136922 
870	 0.465287662243914 
871	 0.465692428250979 
872	 0.465994761227101 
873	 0.466247993750393 
874	 0.466381791907582 
875	 0.466282702497713 
876	 0.466282928389683 
877	 0.466235751629334 
878	 0.466163984862528 
879	 0.466288427221845 
880	 0.466616698148448 
881	 0.466727077525794 
882	 0.466483636282488 
883	 0.466232935574028 
884	 0.466370106767586 
885	 0.466628941022072 
886	 0.466736962621825 
887	 0.466702629250383 
888	 0.466468183435546 
889	 0.466196675040263 
890	 0.46603543963343 
891	 0.465948160926295 
892	 0.465811956530208 
893	 0.46558844495319 
894	 0.465344241204791 
895	 0.465381210703513 
896	 0.465372589179137 
897	 0.465379705729208 
898	 0.465583230729951 
899	 0.46591147833434 
900	 0.465737029637439 
901	 0.465039800208275 
902	 0.464209537820194 
903	 0.463560338983082 
904	 0.463487355447672 
905	 0.463937855814361 
906	 0.46456072120876 
907	 0.465192625482806 
908	 0.465318819099666 
909	 0.464983896093801 
910	 0.464659815310023 
911	 0.463793476427474 
912	 0.463467781617403 
913	 0.463913651963566 
914	 0.464387095898687 
915	 0.464947049410414 
916	 0.464748026547069 
917	 0.46408297281275 
918	 0.464375047466532 
919	 0.46375667863965 
920	 0.463210391399922 
921	 0.463384752234773 
922	 0.463883576340729 
923	 0.463770448427216 
924	 0.462959788517183 
925	 0.46174052386625 
926	 0.46065705214569 
927	 0.459629532448012 
928	 0.458917195568629 
929	 0.458689903884871 
930	 0.458827163524183 
931	 0.459046173845188 
932	 0.458760863368035 
933	 0.457831970011783 
934	 0.457270204107356 
935	 0.455669976067281 
936	 0.453772119303699 
937	 0.451977021305993 
938	 0.448943012573914 
939	 0.447630117868058 
940	 0.447553863552279 
941	 0.447984719209482 
942	 0.449376732280969 
943	 0.450442304825889 
944	 0.450681134344489 
945	 0.450067695896987 
946	 0.449089807514091 
947	 0.447825789853029 
948	 0.446407523077805 
949	 0.44531509446634 
950	 0.445660637561454 
951	 0.444559352388481 
952	 0.44346469626502 
953	 0.443524536695626 
954	 0.442935172040266 
955	 0.442599609251171 
956	 0.442294140763308 
957	 0.44175516713024 
958	 0.441175006701178 
959	 0.439977886511272 
960	 0.439692503807411 
961	 0.440872640669469 
962	 0.441527407322075 
963	 0.44136035931154 
964	 0.440987344995813 
965	 0.440646279024093 
966	 0.439586789003098 
967	 0.440253083777656 
968	 0.441046761391573 
969	 0.440907618663069 
970	 0.440992457584408 
971	 0.441511130174535 
972	 0.442409677151982 
973	 0.44323861740151 
974	 0.443210907355982 
975	 0.442600065980228 
976	 0.443053232546612 
977	 0.444172272735691 
978	 0.443105151139683 
979	 0.443471271306006 
980	 0.443491722727209 
981	 0.442953681061769 
982	 0.443880899552658 
983	 0.443995150570545 
984	 0.444154958306653 
985	 0.444515552358669 
986	 0.444497442883717 
987	 0.446183467758411 
988	 0.446456930885801 
989	 0.445703744719415 
990	 0.446780653775538 
991	 0.447288495221029 
992	 0.447538893511405 
993	 0.448034064509835 
994	 0.448885498106883 
995	 0.44826513816191 
996	 0.44869721291939 
997	 0.449235722450914 
998	 0.448314802490432 
999	 0.449836107096435 
1000	 0.450829741548922 
1001	 0.456782451240513 
1002	 0.457116581513032 
1003	 0.457457381327795 
1004	 0.45781316503033 
1005	 0.458158165251513 
1006	 0.458528082627575 
1007	 0.458864635341933 
1008	 0.459173645705306 
1009	 0.459559761446746 
1010	 0.459980923842194 
1011	 0.460395549204186 
1012	 0.46078113112624 
1013	 0.461162846285359 
1014	 0.461497719713152 
1015	 0.461725677360453 
1016	 0.462017215492785 
1017	 0.462499028496704 
1018	 0.46291559562903 
1019	 0.463379841747706 
1020	 0.463753487786915 
1021	 0.464093849300634 
1022	 0.464408314320067 
1023	 0.464630796041441 
1024	 0.464983317762706 
1025	 0.465379680532076 
1026	 0.465657926828552 
1027	 0.465843012254468 
1028	 0.466111027085204 
1029	 0.466357498620629 
1030	 0.466614118263831 
1031	 0.46688986752614 
1032	 0.467065569952922 
1033	 0.467257595216179 
1034	 0.467341194584903 
1035	 0.467513389326062 
1036	 0.467811136993111 
1037	 0.468010173952876 
1038	 0.468184573271011 
1039	 0.468326755460189 
1040	 0.468424039094312 
1041	 0.468508511780157 
1042	 0.468641484420397 
1043	 0.468705535228029 
1044	 0.468755139667522 
1045	 0.468824404894959 
1046	 0.468840431398795 
1047	 0.468922934892637 
1048	 0.469107414269944 
1049	 0.469252128687846 
1050	 0.469389144998655 
1051	 0.469517682348774 
1052	 0.469725258015473 
1053	 0.469900576709248 
1054	 0.470020525752306 
1055	 0.470185887768244 
1056	 0.470347979886006 
1057	 0.470471267829233 
1058	 0.470748270187814 
1059	 0.471024766810857 
1060	 0.471118986062115 
1061	 0.471240388363283 
1062	 0.471285990884224 
1063	 0.471383258474434 
1064	 0.471662190383494 
1065	 0.471841821458653 
1066	 0.472016946750406 
1067	 0.472213028762772 
1068	 0.472426439089726 
1069	 0.472498220730277 
1070	 0.472647346775261 
1071	 0.472897561722994 
1072	 0.472942590194047 
1073	 0.472958274791354 
1074	 0.473124289318461 
1075	 0.473177993953121 
1076	 0.473263063103509 
1077	 0.473442191046227 
1078	 0.473508394433791 
1079	 0.473539179797324 
1080	 0.473548114861394 
1081	 0.473571695077093 
1082	 0.473564905941147 
1083	 0.47363651268805 
1084	 0.473774306807143 
1085	 0.473847267444571 
1086	 0.47384043495605 
1087	 0.47382577614476 
1088	 0.473700389438524 
1089	 0.473595325071869 
1090	 0.473629772856507 
1091	 0.473618817142017 
1092	 0.473492256393185 
1093	 0.473275402144561 
1094	 0.472960657757385 
1095	 0.472638759279365 
1096	 0.472335851065759 
1097	 0.472050154505011 
1098	 0.471761329788351 
1099	 0.471501436544678 
1100	 0.471162319581175 
1101	 0.470830780472511 
1102	 0.470534506131252 
1103	 0.47014326013122 
1104	 0.469784430866277 
1105	 0.46934583277605 
1106	 0.468846342642561 
1107	 0.468442745303046 
1108	 0.467968016335321 
1109	 0.467422216408845 
1110	 0.466701839281348 
1111	 0.465876772372093 
1112	 0.464771490863145 
1113	 0.463735014076613 
1114	 0.462531550848004 
1115	 0.461402479987094 
1116	 0.460362699292294 
1117	 0.458978356071029 
1118	 0.457678171051675 
1119	 0.456460150398526 
1120	 0.455090164735069 
1121	 0.453970654360153 
1122	 0.452951952749861 
1123	 0.451949264802567 
1124	 0.451122621510069 
1125	 0.450311996183193 
1126	 0.449473415293315 
1127	 0.448729173548104 
1128	 0.447934868913445 
1129	 0.447241185353625 
1130	 0.446382800272144 
1131	 0.445480983627566 
1132	 0.444542315600129 
1133	 0.443569525979236 
1134	 0.442532353006601 
1135	 0.441370114422589 
1136	 0.440208914825814 
1137	 0.438919228182597 
1138	 0.437430501111128 
1139	 0.435905033551136 
1140	 0.434241374799488 
1141	 0.432417987943873 
1142	 0.43047273609356 
1143	 0.428576540112669 
1144	 0.426613656230358 
1145	 0.424714603185755 
1146	 0.4227206675095 
1147	 0.420996112301923 
1148	 0.419360525664458 
1149	 0.417956996835661 
1150	 0.416795719258772 
1151	 0.415828919427378 
1152	 0.415076568786826 
1153	 0.414433549660369 
1154	 0.41408263015017 
1155	 0.41391625957564 
1156	 0.413721912237263 
1157	 0.41359252899268 
1158	 0.413459638434214 
1159	 0.413308806686958 
1160	 0.413193096931938 
1161	 0.413125191234541 
1162	 0.413060112419682 
1163	 0.412998455006965 
1164	 0.412923960390316 
1165	 0.412902470635991 
1166	 0.412806730781268 
1167	 0.412659230770434 
1168	 0.412517559697026 
1169	 0.412346760874289 
1170	 0.412161636618893 
1171	 0.412002972988239 
1172	 0.411827241399106 
1173	 0.411656911850927 
1174	 0.411536199843588 
1175	 0.411390269110043 
1176	 0.411182044253748 
1177	 0.4110171320668 
1178	 0.410866241966062 
1179	 0.41066320339318 
1180	 0.410442960565556 
1181	 0.41026569158079 
1182	 0.410056437710842 
1183	 0.409859523462603 
1184	 0.409709051867237 
1185	 0.409542258618951 
1186	 0.4093220625255 
1187	 0.409168265753169 
1188	 0.409043200976406 
1189	 0.408978487455087 
1190	 0.408906020652598 
1191	 0.408858741273195 
1192	 0.408694384519871 
1193	 0.408542176236328 
1194	 0.408428183065334 
1195	 0.408271433724292 
1196	 0.408154973981477 
1197	 0.408074467821311 
1198	 0.408052780891698 
1199	 0.408039933392531 
1200	 0.40809294278636 
1201	 0.408267693147766 
1202	 0.408379844741786 
1203	 0.408465973963801 
1204	 0.408600523517784 
1205	 0.408733782116631 
1206	 0.408908907360822 
1207	 0.409153756543735 
1208	 0.409359481253798 
1209	 0.409514039291535 
1210	 0.40979692873329 
1211	 0.410037359118611 
1212	 0.410246488739659 
1213	 0.410489729742092 
1214	 0.410771564544267 
1215	 0.411010272630113 
1216	 0.411232610749736 
1217	 0.411469284536955 
1218	 0.411708406199335 
1219	 0.411928602214422 
1220	 0.41212224478888 
1221	 0.41236788211326 
1222	 0.41264561834889 
1223	 0.412878961718198 
1224	 0.41311739052976 
1225	 0.413372670093019 
1226	 0.413596164369626 
1227	 0.41383447564212 
1228	 0.414130826092719 
1229	 0.414379951797213 
1230	 0.414636817678068 
1231	 0.414877434091276 
1232	 0.41511295601941 
1233	 0.415339343201927 
1234	 0.415614086417738 
1235	 0.415901992013759 
1236	 0.416163286046379 
1237	 0.416471201798444 
1238	 0.416725518332659 
1239	 0.416938363624934 
1240	 0.417130813981035 
1241	 0.417293384969222 
1242	 0.417476964116826 
1243	 0.417619365897106 
1244	 0.417798156643744 
1245	 0.41802358993022 
1246	 0.418228106043408 
1247	 0.418461846848929 
1248	 0.418638549398848 
1249	 0.418815274000356 
1250	 0.4189382860706 
1251	 0.418986898820011 
1252	 0.41900736893022 
1253	 0.419062456902854 
1254	 0.419102381511238 
1255	 0.419147492126953 
1256	 0.41921786160164 
1257	 0.419263239255302 
1258	 0.419278565460778 
1259	 0.419318051898511 
1260	 0.419396267414364 
1261	 0.419406538557049 
1262	 0.419387389942818 
1263	 0.419365051080505 
1264	 0.419282145208769 
1265	 0.419232293389473 
1266	 0.419202329199623 
1267	 0.419164585257442 
1268	 0.419191345617343 
1269	 0.419105663276999 
1270	 0.418909979606752 
1271	 0.418785816680953 
1272	 0.418607429554281 
1273	 0.418463850628027 
1274	 0.418358477197812 
1275	 0.418358320564252 
1276	 0.418247760232705 
1277	 0.418108700965019 
1278	 0.417948663197734 
1279	 0.417745092749203 
1280	 0.417562174060176 
1281	 0.417351050954302 
1282	 0.417178391963443 
1283	 0.417017533617497 
1284	 0.416875475864086 
1285	 0.416774960817972 
1286	 0.416641691799629 
1287	 0.416544098023906 
1288	 0.416373728842873 
1289	 0.416176280390662 
1290	 0.415928958181207 
1291	 0.415650781283167 
1292	 0.415300188802517 
1293	 0.414813918395903 
1294	 0.414402969668146 
1295	 0.41397072600738 
1296	 0.413547171285881 
1297	 0.413119617482845 
1298	 0.412766431380258 
1299	 0.412290565797583 
1300	 0.411743922557851 
1301	 0.411187485044786 
1302	 0.410590023333928 
1303	 0.409970572567531 
1304	 0.409326245592023 
1305	 0.408636036149572 
1306	 0.407934812270732 
1307	 0.407138182724674 
1308	 0.406248808500513 
1309	 0.405360752506906 
1310	 0.404438442154926 
1311	 0.40344172223304 
1312	 0.40241313903385 
1313	 0.401323808364201 
1314	 0.400090643125179 
1315	 0.398917167483067 
1316	 0.397787965935924 
1317	 0.396585703366557 
1318	 0.395391372367422 
1319	 0.394122923507875 
1320	 0.392740406483057 
1321	 0.39134017699347 
1322	 0.389903655675866 
1323	 0.388396177163372 
1324	 0.386871374760791 
1325	 0.385308520192442 
1326	 0.383643340474889 
1327	 0.381866378470684 
1328	 0.380081302467757 
1329	 0.378159894559134 
1330	 0.376304574175374 
1331	 0.374438936449539 
1332	 0.372639249241345 
1333	 0.37088094045645 
1334	 0.369192076210106 
1335	 0.367602288518219 
1336	 0.366033612035963 
1337	 0.364530481034854 
1338	 0.362986609014302 
1339	 0.361297224952941 
1340	 0.359753331842077 
1341	 0.358152633822075 
1342	 0.356542654048924 
1343	 0.354870578673941 
1344	 0.353150715643992 
1345	 0.351137585056127 
1346	 0.348987473184226 
1347	 0.346730042606355 
1348	 0.344454799029376 
1349	 0.34211840377745 
1350	 0.339853913776051 
1351	 0.337036231301535 
1352	 0.334173974425363 
1353	 0.33078873172792 
1354	 0.327233378293168 
1355	 0.322656420824807 
1356	 0.319607400075242 
1357	 0.314712171397317 
1358	 0.312324431327254 
1359	 0.305769863444141 
1360	 0.301538921301625 
1361	 0.294979994313121 
1362	 0.292745783021874 
1363	 0.285346410044004 
1364	 0.290196242732633 
1365	 0.285556967578112 
1366	 0.274041591353037 
1367	 0.264705661724023 
1368	 0.256280823676336 
1369	 0.253114975484385 
1370	 0.25074281386508 
1371	 0.250856930125979 
1372	 0.256574236452241 
1373	 0.2574046174767 
1374	 0.255195475251423 
1375	 0.25639947216704 
1376	 0.256559674475624 
1377	 0.251898469204441 
1378	 0.248945154709425 
1379	 0.246815256882653 
1380	 0.241655099079261 
1381	 0.234294421880543 
1382	 0.227579939758235 
1383	 0.219678009743228 
1384	 0.213569352138728 
1385	 0.209288958842779 
1386	 0.204087363209366 
1387	 0.19846357169887 
1388	 0.19570027654601 
1389	 0.195235909710761 
1390	 0.19210363988991 
1391	 0.19058638625078 
1392	 0.186209421681367 
1393	 0.176552346123601 
1394	 0.172546598374527 
1395	 0.170554602257369 
1396	 0.16819185867749 
1397	 0.169136763543213 
1398	 0.167339797820635 
1399	 0.163254808318572 
1400	 0.160119956126843 
1401	 0.157459430318477 
1402	 0.153974965468286 
1403	 0.1504324343696 
1404	 0.147082906353099 
1405	 0.143035843698584 
1406	 0.139769326697495 
1407	 0.138132532863804 
1408	 0.137388064935161 
1409	 0.136153634171677 
1410	 0.134613810195359 
1411	 0.133439846997147 
1412	 0.131853033390481 
1413	 0.13076133888789 
1414	 0.130328212674684 
1415	 0.129350597286079 
1416	 0.127947957633195 
1417	 0.127199998785289 
1418	 0.126652775792661 
1419	 0.126063487188749 
1420	 0.125728756902531 
1421	 0.125223587056867 
1422	 0.124531464318356 
1423	 0.124061313399803 
1424	 0.123741375083969 
1425	 0.123271875265458 
1426	 0.12271851573342 
1427	 0.122323036227836 
1428	 0.121935510322705 
1429	 0.121484826938839 
1430	 0.121088615870979 
1431	 0.120716889638316 
1432	 0.120256522333018 
1433	 0.119837940248052 
1434	 0.119516648652822 
1435	 0.119149019203463 
1436	 0.118641066620522 
1437	 0.118307184440136 
1438	 0.11814224063579 
1439	 0.117910645084727 
1440	 0.117638548510044 
1441	 0.117504599746603 
1442	 0.117352650494826 
1443	 0.117290709202 
1444	 0.11746196864451 
1445	 0.117784303244779 
1446	 0.118122192943447 
1447	 0.118397034437913 
1448	 0.118522920153935 
1449	 0.118519335778781 
1450	 0.118624530873091 
1451	 0.118612792482022 
1452	 0.118850359092856 
1453	 0.119269584700571 
1454	 0.119534942253781 
1455	 0.119869655305659 
1456	 0.120047001526703 
1457	 0.120114247259421 
1458	 0.120208721380562 
1459	 0.120243848215344 
1460	 0.120383204733431 
1461	 0.120545663776769 
1462	 0.120746949952205 
1463	 0.121008567356022 
1464	 0.121320719906904 
1465	 0.121652693046629 
1466	 0.122108463267496 
1467	 0.122715401093433 
1468	 0.123310503552286 
1469	 0.123928570044607 
1470	 0.124622621049733 
1471	 0.125294832944372 
1472	 0.126051410564734 
1473	 0.126810110592404 
1474	 0.127692755288233 
1475	 0.128663649373834 
1476	 0.129600686848105 
1477	 0.130595665706154 
1478	 0.131565521264908 
1479	 0.13241278404759 
1480	 0.133398119165532 
1481	 0.134436575808306 
1482	 0.135512641500607 
1483	 0.136617477689341 
1484	 0.137785541983869 
1485	 0.139013436878483 
1486	 0.140202799954385 
1487	 0.141421659370141 
1488	 0.142586011696191 
1489	 0.143688754543389 
1490	 0.144848894292026 
1491	 0.146031732508629 
1492	 0.147146445191675 
1493	 0.148291843235773 
1494	 0.149434270805117 
1495	 0.150480969578247 
1496	 0.151490711488216 
1497	 0.152551138636044 
1498	 0.153556312337745 
1499	 0.154676604220423 
1500	 0.155913246511528 
1501	 0.157103367778985 
1502	 0.158330085801401 
1503	 0.159545870416927 
1504	 0.160768091867743 
1505	 0.161980657850079 
1506	 0.163165609923324 
1507	 0.164401521583666 
1508	 0.16567399257452 
1509	 0.166890660494334 
1510	 0.168130204499194 
1511	 0.169321054499997 
1512	 0.170434622520349 
1513	 0.171603720528855 
1514	 0.172782311140948 
1515	 0.173991966784534 
1516	 0.175249060388849 
1517	 0.176487641672356 
1518	 0.177740914375771 
1519	 0.17900778909444 
1520	 0.180305188627269 
1521	 0.181551554232652 
1522	 0.182804541132678 
1523	 0.184030368362293 
1524	 0.185198328322301 
1525	 0.186395830059986 
1526	 0.187614801947276 
1527	 0.188818498354025 
1528	 0.190026840102557 
1529	 0.191214474646977 
1530	 0.19235285804245 
1531	 0.193563198533396 
1532	 0.194818740221166 
1533	 0.19604546928416 
1534	 0.197353293987114 
1535	 0.198565524357742 
1536	 0.199668495933453 
1537	 0.200832723804914 
1538	 0.201979210766267 
1539	 0.203147958320105 
1540	 0.204389859884803 
1541	 0.205566077043192 
1542	 0.206691264569069 
1543	 0.207841300047241 
1544	 0.208972367817124 
1545	 0.210114985216632 
1546	 0.211303264466429 
1547	 0.212453522114028 
1548	 0.213566804319277 
1549	 0.214702392758603 
1550	 0.215843264475604 
1551	 0.216975643282927 
1552	 0.21816765185932 
1553	 0.219273462929221 
1554	 0.220321594926388 
1555	 0.221351840516674 
1556	 0.222272005615289 
1557	 0.223259020677118 
1558	 0.224299701382971 
1559	 0.225299196766651 
1560	 0.226348594185384 
1561	 0.227332373396628 
1562	 0.228210448611191 
1563	 0.229136864148608 
1564	 0.230024882440536 
1565	 0.230994733599176 
1566	 0.231987950128318 
1567	 0.23294443441215 
1568	 0.233919837270528 
1569	 0.234910868363792 
1570	 0.235832968217385 
1571	 0.236724073415849 
1572	 0.237650678428898 
1573	 0.238519810255295 
1574	 0.239463070592837 
1575	 0.24047065701536 
1576	 0.241422788165641 
1577	 0.242364593266314 
1578	 0.243258526746251 
1579	 0.24410592241697 
1580	 0.244986077018516 
1581	 0.245859507655855 
1582	 0.246667741167042 
1583	 0.24748261910812 
1584	 0.24823268247739 
1585	 0.24886409876431 
1586	 0.249622178994461 
1587	 0.250424250859552 
1588	 0.251204971739334 
1589	 0.252062944498103 
1590	 0.252768014788877 
1591	 0.253381784036526 
1592	 0.254053072665617 
1593	 0.254675298406021 
1594	 0.255322802318926 
1595	 0.256008218869557 
1596	 0.256689015790588 
1597	 0.257362334530483 
1598	 0.258006879598563 
1599	 0.258666361504826 
1600	 0.259321443104951 
1601	 0.259928798921681 
1602	 0.26057135777663 
1603	 0.261250214049065 
1604	 0.261918663722933 
1605	 0.262567389566775 
1606	 0.26323309258712 
1607	 0.263939833145866 
1608	 0.264571267160387 
1609	 0.265170039250746 
1610	 0.265751101504678 
1611	 0.266299910678646 
1612	 0.266816890844114 
1613	 0.267264725831684 
1614	 0.267811791512047 
1615	 0.268378403382939 
1616	 0.26892699984908 
1617	 0.269553072402281 
1618	 0.270082508309301 
1619	 0.270515457481966 
1620	 0.271019611257044 
1621	 0.271575410261614 
1622	 0.272021449834806 
1623	 0.27241405050124 
1624	 0.272871168638192 
1625	 0.273298541298123 
1626	 0.273692245556208 
1627	 0.274158636908863 
1628	 0.274516292176432 
1629	 0.274699471346137 
1630	 0.275110602051289 
1631	 0.275624052294239 
1632	 0.276063457602641 
1633	 0.27659942814324 
1634	 0.277026635238037 
1635	 0.277327492217465 
1636	 0.277751090014277 
1637	 0.278243457081218 
1638	 0.278636744082985 
1639	 0.279025154872922 
1640	 0.27939431817205 
1641	 0.279676324348588 
1642	 0.28003744782152 
1643	 0.280488586365141 
1644	 0.280780937282582 
1645	 0.280983605332275 
1646	 0.281258420764583 
1647	 0.28149009447173 
1648	 0.281719959459262 
1649	 0.281990414054437 
1650	 0.282264347671146 
1651	 0.282490461439723 
1652	 0.28273536506552 
1653	 0.283093770569298 
1654	 0.283238961847718 
1655	 0.283205563231834 
1656	 0.283376466693125 
1657	 0.283522350463654 
1658	 0.283812199822898 
1659	 0.284184613895603 
1660	 0.284341788932866 
1661	 0.284493620085046 
1662	 0.284689248904929 
1663	 0.284727933472431 
1664	 0.284846573640453 
1665	 0.285037264038458 
1666	 0.285158083963847 
1667	 0.285386315890115 
1668	 0.285584242058233 
1669	 0.28566069625063 
1670	 0.285680226004144 
1671	 0.285619772081129 
1672	 0.285585884358809 
1673	 0.285628605945467 
1674	 0.285705160892582 
1675	 0.285757681964088 
1676	 0.285839000310652 
1677	 0.285893641205792 
1678	 0.285819179337946 
1679	 0.285849416326036 
1680	 0.285878508283487 
1681	 0.285760962500973 
1682	 0.285778349646911 
1683	 0.285688586619197 
1684	 0.285398074303677 
1685	 0.285236462764187 
1686	 0.285042802516223 
1687	 0.284876985534085 
1688	 0.28480881211039 
1689	 0.284674692400731 
1690	 0.284426258504845 
1691	 0.284189970380546 
1692	 0.283861487868965 
1693	 0.283635613291509 
1694	 0.283486966257379 
1695	 0.283339685678771 
1696	 0.283328251282881 
1697	 0.283163153460059 
1698	 0.282868672894771 
1699	 0.282622082347433 
1700	 0.282355497646644 
1701	 0.282019701104243 
1702	 0.281655019616897 
1703	 0.281335130860222 
1704	 0.280915841602357 
1705	 0.280593955244086 
1706	 0.280411863069162 
1707	 0.280142514694259 
1708	 0.279842086802026 
1709	 0.279571211510834 
1710	 0.279331856677173 
1711	 0.279006821552345 
1712	 0.278650410302082 
1713	 0.278316247979815 
1714	 0.27793214412148 
1715	 0.27752878434305 
1716	 0.277172696598214 
1717	 0.276721239806394 
1718	 0.276160636502197 
1719	 0.27567063255539 
1720	 0.275188789510448 
1721	 0.274659332024869 
1722	 0.274088131124537 
1723	 0.273532577126152 
1724	 0.272973520047012 
1725	 0.27243064604894 
1726	 0.271928370104176 
1727	 0.271387059875072 
1728	 0.270800077912165 
1729	 0.270235058651689 
1730	 0.269678613589893 
1731	 0.269113036299909 
1732	 0.268404385352299 
1733	 0.267755864697455 
1734	 0.267364395432824 
1735	 0.266726408821514 
1736	 0.266063718695804 
1737	 0.265396424050954 
1738	 0.264381945812517 
1739	 0.263549436356868 
1740	 0.262987772927916 
1741	 0.262390733248438 
1742	 0.261727260150262 
1743	 0.261045489388258 
1744	 0.260361246532788 
1745	 0.259538333484061 
1746	 0.258677947126113 
1747	 0.257787761038049 
1748	 0.256777728681345 
1749	 0.25599903042779 
1750	 0.255475286763849 
1751	 0.254717347123414 
1752	 0.253915434605034 
1753	 0.253130785136191 
1754	 0.252024893724648 
1755	 0.251078756263899 
1756	 0.250358873026431 
1757	 0.249420293375215 
1758	 0.248577735863787 
1759	 0.247847972616531 
1760	 0.247151026451983 
1761	 0.246572985955867 
1762	 0.245861981049767 
1763	 0.245109207616637 
1764	 0.244314045524444 
1765	 0.243280305556616 
1766	 0.242478608631689 
1767	 0.241889604823143 
1768	 0.24120742245089 
1769	 0.240596457781592 
1770	 0.239917158092758 
1771	 0.239051761144792 
1772	 0.238417153895408 
1773	 0.237908923711148 
1774	 0.237393577250281 
1775	 0.236923558452979 
1776	 0.236315093418897 
1777	 0.235798779562635 
1778	 0.235390058492421 
1779	 0.234807823350264 
1780	 0.234317075172269 
1781	 0.233898097058365 
1782	 0.233424568902391 
1783	 0.233136080126742 
1784	 0.232765104482124 
1785	 0.23235523869927 
1786	 0.231979217255144 
1787	 0.231528560301437 
1788	 0.231096643422443 
1789	 0.230515535523597 
1790	 0.229697842650594 
1791	 0.228934516217027 
1792	 0.22836136226345 
1793	 0.22764548181332 
1794	 0.227150961467885 
1795	 0.226930350198856 
1796	 0.226277284802406 
1797	 0.225542596207611 
1798	 0.225047152044018 
1799	 0.224190265818292 
1800	 0.223912049168903 
1801	 0.228080457120477 
1802	 0.228237664614302 
1803	 0.227763204115796 
1804	 0.225444447855624 
1805	 0.224603911758552 
1806	 0.224629852794256 
1807	 0.224184490709139 
1808	 0.224033191631259 
1809	 0.2241202780617 
1810	 0.223642638859348 
1811	 0.222080548283411 
1812	 0.221886462999471 
1813	 0.222988451657647 
1814	 0.222614965889217 
1815	 0.22163465114298 
1816	 0.221543465341972 
1817	 0.221243283967404 
1818	 0.220321699743045 
1819	 0.219428086099864 
1820	 0.219641912017479 
1821	 0.219909835065937 
1822	 0.218918445342329 
1823	 0.218936338924656 
1824	 0.221410782012288 
1825	 0.223329711241714 
1826	 0.225154859538076 
1827	 0.226796162615469 
1828	 0.228808001502358 
1829	 0.233295370837903 
1830	 0.236644731344286 
1831	 0.238302234568189 
1832	 0.240039986962761 
1833	 0.242662021891687 
1834	 0.242980097644627 
1835	 0.234211699421996 
1836	 0.224949551751905 
1837	 0.205590020230928 
1838	 0.194636704597913 
1839	 0.189289742423361 
1840	 0.192825874857528 
1841	 0.19413290515139 
1842	 0.209645122333365 
1843	 0.213488383449559 
1844	 0.19676011895899 
1845	 0.206376087564892 
1846	 0.248161524063886 
1847	 0.258863673473004 
1848	 0.263467801629563 
1849	 0.279600603203216 
1850	 0.273634882893674 
1851	 0.228346745757737 
1852	 0.21012906839518 
1853	 0.210330642069089 
1854	 0.191573045329905 
1855	 0.142828695640315 
1856	 0.135217918511483 
1857	 0.13402735511234 
1858	 0.154411487060818 
1859	 0.163642918126226 
1860	 0.200425687302973 
1861	 0.206173580335412 
1862	 0.185573712514267 
1863	 0.183063964428488 
1864	 0.185741121152179 
1865	 0.184836900409509 
1866	 0.190445333297394 
1867	 0.187327890479557 
1868	 0.179482066584853 
1869	 0.175203500244066 
1870	 0.155326524012527 
1871	 0.114603871619217 
1872	 0.101891693466745 
1873	 9.20150356179691E-02 
1874	 9.34345092151796E-02 
1875	 0.135457903618947 
1876	 0.132051979739764 
1877	 0.112211032137894 
1878	 9.38869137643721E-02 
1879	 8.99716825173883E-02 
1880	 8.60795337850651E-02 
1881	 8.19960517504152E-02 
1882	 8.62877102854929E-02 
1883	 0.082665987416343 
1884	 6.77617545706542E-02 
1885	 6.55640885210357E-02 
1886	 6.52166890927291E-02 
1887	 0.074270188820282 
1888	 8.27484507392837E-02 
1889	 8.30518544556735E-02 
1890	 0.083110163638271 
1891	 0.079102687642015 
1892	 7.67437574947891E-02 
1893	 7.18839063139808E-02 
1894	 6.89224994632015E-02 
1895	 6.50294985378025E-02 
1896	 6.33488270959767E-02 
1897	 6.23204766213139E-02 
1898	 0.066257414688241 
1899	 7.66244079261203E-02 
1900	 7.79744108413886E-02 
1901	 8.17226456312955E-02 
1902	 9.00486446128701E-02 
1903	 8.91625724228246E-02 
1904	 7.39558825003695E-02 
1905	 7.14771617712756E-02 
1906	 7.70358020500891E-02 
1907	 0.068940706235823 
1908	 0.056245246165385 
1909	 5.58453331673889E-02 
1910	 0.044486568492537 
1911	 3.67642500825402E-02 
1912	 3.78898633992053E-02 
1913	 4.66501316762425E-02 
1914	 4.78121676342131E-02 
1915	 4.85634960650296E-02 
1916	 4.77996627731136E-02 
1917	 4.55247267714909E-02 
1918	 4.55209154802318E-02 
1919	 4.08040837144746E-02 
1920	 4.36468828345001E-02 
1921	 4.69201003149267E-02 
1922	 0.045112095959077 
1923	 4.52344921975891E-02 
1924	 4.48792149733884E-02 
1925	 4.62742122195897E-02 
1926	 4.98499351890485E-02 
1927	 5.07686534459183E-02 
1928	 5.12798281748648E-02 
1929	 0.053252581342585 
1930	 5.22033269399814E-02 
1931	 4.93267253731669E-02 
1932	 4.96313748558502E-02 
1933	 4.80167197009466E-02 
1934	 4.71594793960319E-02 
1935	 4.65042624446145E-02 
1936	 4.66507702814267E-02 
1937	 4.70667175448128E-02 
1938	 4.73185791131836E-02 
1939	 4.81605251279684E-02 
1940	 4.80323093693425E-02 
1941	 4.71246364886172E-02 
1942	 0.047302372407726 
1943	 4.83791598879213E-02 
1944	 4.90861141886558E-02 
1945	 4.94861177134762E-02 
1946	 5.03945559078976E-02 
1947	 5.08523387938537E-02 
1948	 5.04264055563159E-02 
1949	 5.04530300172847E-02 
1950	 5.09608009402571E-02 
1951	 5.10718790552251E-02 
1952	 5.05052053030038E-02 
1953	 0.050569027759918 
1954	 5.03294923894619E-02 
1955	 5.00480235822152E-02 
1956	 5.06788493901772E-02 
1957	 5.16073586803968E-02 
1958	 5.22952254685677E-02 
1959	 5.32938764242108E-02 
1960	 5.38455934270037E-02 
1961	 5.41770259031984E-02 
1962	 0.054404880402219 
1963	 5.40487721369208E-02 
1964	 5.36358540969613E-02 
1965	 5.38476625787601E-02 
1966	 5.40322741066067E-02 
1967	 5.45289190698757E-02 
1968	 5.52551943775008E-02 
1969	 5.56101896992506E-02 
1970	 5.55641650001516E-02 
1971	 5.58356921901892E-02 
1972	 5.61119966150124E-02 
1973	 5.64731893607186E-02 
1974	 5.70456330588287E-02 
1975	 5.75984627417776E-02 
1976	 5.82292261597279E-02 
1977	 5.90458763771897E-02 
1978	 5.97901440478896E-02 
1979	 5.99571814813256E-02 
1980	 6.00237843860026E-02 
1981	 6.02823532933043E-02 
1982	 6.04344197133126E-02 
1983	 6.03618627452288E-02 
1984	 6.07300724064935E-02 
1985	 6.14214600592234E-02 
1986	 6.19535867368037E-02 
1987	 6.24993558458672E-02 
1988	 6.31425055448113E-02 
1989	 6.34327220946948E-02 
1990	 6.33794370138068E-02 
1991	 6.37292665319253E-02 
1992	 6.44055604666057E-02 
1993	 6.50891586138145E-02 
1994	 6.57223270151636E-02 
1995	 0.066377926747615 
1996	 6.70252854148119E-02 
1997	 6.75687604478666E-02 
1998	 6.80040833919017E-02 
1999	 6.85832321746163E-02 
2000	 6.87304699167899E-02 
2001	 6.84758324904621E-02 
2002	 6.88784707816048E-02 
2003	 7.00120455436794E-02 
2004	 7.12877637288022E-02 
2005	 7.27033097318455E-02 
2006	 0.073571295916622 
2007	 7.40482269410003E-02 
2008	 7.35781808242009E-02 
2009	 7.35407396401514E-02 
2010	 7.37005871541074E-02 
2011	 7.39106827514564E-02 
2012	 7.45071898884196E-02 
2013	 7.52888051520086E-02 
2014	 7.65617234605312E-02 
2015	 0.077466039694838 
2016	 7.81036591873906E-02 
2017	 7.88958551069456E-02 
2018	 7.91568405444373E-02 
2019	 7.95122332454016E-02 
2020	 7.98135068365218E-02 
2021	 8.04235617731072E-02 
2022	 8.09532191710475E-02 
2023	 8.12602869040661E-02 
2024	 8.15264225632297E-02 
2025	 8.17406093894286E-02 
2026	 8.19595163242669E-02 
2027	 0.082763628776561 
2028	 8.35269143974742E-02 
2029	 8.42144131632557E-02 
2030	 8.51075653822193E-02 
2031	 8.54902839272257E-02 
2032	 8.59448641800589E-02 
2033	 0.086331055301611 
2034	 0.087093839186781 
2035	 8.75867143000337E-02 
2036	 8.81058271278612E-02 
2037	 0.088752354278249 
2038	 8.92026417843052E-02 
2039	 8.97435287681904E-02 
2040	 9.04445484194834E-02 
2041	 9.12202868405413E-02 
2042	 9.19093182272591E-02 
2043	 9.22039960867613E-02 
2044	 9.25120147158333E-02 
2045	 9.29187238694398E-02 
2046	 9.32327204477686E-02 
2047	 9.35041915787665E-02 
2048	 0.094183107484738 
2049	 9.49580979632903E-02 
2050	 9.53314044526945E-02 
2051	 9.59267950758261E-02 
2052	 9.70950246487031E-02 
2053	 0.097763847169826 
2054	 9.84177074267307E-02 
2055	 9.93375178966142E-02 
2056	 9.95994478791173E-02 
2057	 9.99752824857692E-02 
2058	 0.100648635231239 
2059	 0.101228344734195 
2060	 0.101820342762028 
2061	 0.102322028392902 
2062	 0.102507049843402 
2063	 0.102770958816213 
2064	 0.103209727784716 
2065	 0.103770870829903 
2066	 0.104639564651931 
2067	 0.10542566036417 
2068	 0.105908547535767 
2069	 0.106516120087438 
2070	 0.107405517245551 
2071	 0.108258020973085 
2072	 0.109017802755276 
2073	 0.109822906101853 
2074	 0.110562253399699 
2075	 0.111222770292403 
2076	 0.111781411546708 
2077	 0.112203072525308 
2078	 0.112855677432734 
2079	 0.113287929763446 
2080	 0.113463657487231 
2081	 0.11416619895872 
2082	 0.114793562667065 
2083	 0.115305249270014 
2084	 0.116154120707977 
2085	 0.116687377051567 
2086	 0.117069263268426 
2087	 0.117693947200833 
2088	 0.118406245164175 
2089	 0.119019333488045 
2090	 0.119712430038682 
2091	 0.120301275919526 
2092	 0.120513591077794 
2093	 0.12087639499241 
2094	 0.121381766044127 
2095	 0.122029806046283 
2096	 0.122711571116406 
2097	 0.123484732974655 
2098	 0.124188236326679 
2099	 0.124738669852589 
2100	 0.125646272723614 
2101	 0.126299121837325 
2102	 0.126824393277738 
2103	 0.127296853653697 
2104	 0.127781895925981 
2105	 0.127965476894125 
2106	 0.128424762985691 
2107	 0.129029670643103 
2108	 0.129799282618519 
2109	 0.130808577310448 
2110	 0.131725350282387 
2111	 0.132493014423048 
2112	 0.13305718189247 
2113	 0.133359553841044 
2114	 0.133680187773584 
2115	 0.134167166596245 
2116	 0.134743827746008 
2117	 0.135230307913436 
2118	 0.135729402816056 
2119	 0.136201636996748 
2120	 0.136569936175845 
2121	 0.136947038935999 
2122	 0.137537876496736 
2123	 0.138268393267453 
2124	 0.138880106684584 
2125	 0.139658165576531 
2126	 0.140521505754554 
2127	 0.141078078410491 
2128	 0.141581963596383 
2129	 0.142172725368283 
2130	 0.142585295701688 
2131	 0.142880958744046 
2132	 0.143528111420482 
2133	 0.144175976619705 
2134	 0.144645592104902 
2135	 0.145036885169011 
2136	 0.145626024097493 
2137	 0.145885869340153 
2138	 0.146123905850665 
2139	 0.146356572004272 
2140	 0.146606586984791 
2141	 0.147188660809025 
2142	 0.147386693920062 
2143	 0.147674737321917 
2144	 0.148133790329496 
2145	 0.148169599750803 
2146	 0.148512337983627 
2147	 0.149008546391069 
2148	 0.149263167809558 
2149	 0.149575866900803 
2150	 0.149902723783247 
2151	 0.150231142519184 
2152	 0.150386682216566 
2153	 0.150920414600388 
2154	 0.15183444707673 
2155	 0.152400708090674 
2156	 0.152538842191054 
2157	 0.152737598545492 
2158	 0.15280018063781 
2159	 0.152503246739156 
2160	 0.152175396228225 
2161	 0.152332775931527 
2162	 0.152369957227864 
2163	 0.152473567869498 
2164	 0.153260674114458 
2165	 0.15387574869095 
2166	 0.154208928893685 
2167	 0.154599959717857 
2168	 0.154733339984625 
2169	 0.154553119290303 
2170	 0.154595036427552 
2171	 0.154561324894194 
2172	 0.154510361468062 
2173	 0.154720604458762 
2174	 0.155189244275364 
2175	 0.155433085598723 
2176	 0.1555069977902 
2177	 0.155724297195411 
2178	 0.155803582711837 
2179	 0.155754341802063 
2180	 0.155850785202995 
2181	 0.155807218636072 
2182	 0.155791643124832 
2183	 0.156057599916567 
2184	 0.156327914567559 
2185	 0.156551233069428 
2186	 0.156732458463643 
2187	 0.15683335047273 
2188	 0.156776356384528 
2189	 0.156628613029648 
2190	 0.156400389006836 
2191	 0.156159099671901 
2192	 0.156044960225587 
2193	 0.156438901361202 
2194	 0.156829364111539 
2195	 0.157263168584875 
2196	 0.157447834382876 
2197	 0.157167546039367 
2198	 0.157097265944421 
2199	 0.157391980217074 
2200	 0.157610499107495 
2201	 0.157648115308258 
2202	 0.157871135350709 
2203	 0.157626801529381 
2204	 0.157121841900042 
2205	 0.157102555193127 
2206	 0.156924202259115 
2207	 0.156759003295255 
2208	 0.156636676784392 
2209	 0.156690575698533 
2210	 0.15669247884066 
2211	 0.156653085902667 
2212	 0.156430077980678 
2213	 0.156809067969577 
2214	 0.156712961219451 
2215	 0.156560622512204 
2216	 0.156902497082893 
2217	 0.156841706502006 
2218	 0.157090996178733 
2219	 0.157475664749565 
2220	 0.157489474445128 
2221	 0.15714759760643 
2222	 0.156695532864243 
2223	 0.156638544200552 
2224	 0.156613197458329 
2225	 0.156675409901128 
2226	 0.156701761036041 
2227	 0.156290731442669 
2228	 0.155913884064389 
2229	 0.155847776474662 
2230	 0.155794096039247 
2231	 0.155824878052557 
2232	 0.156025688779267 
2233	 0.155977673215848 
2234	 0.155842074783981 
2235	 0.155912273095148 
2236	 0.155682096514363 
2237	 0.155556746649938 
2238	 0.155077760651874 
2239	 0.154339490362671 
2240	 0.153706888703296 
2241	 0.153048368344565 
2242	 0.152757540016861 
2243	 0.152795476136193 
2244	 0.152814277304466 
2245	 0.152404433061867 
2246	 0.152035951917836 
2247	 0.151774402624272 
2248	 0.151264407858932 
2249	 0.150982402577723 
2250	 0.151062430472007 
2251	 0.150601567554016 
2252	 0.15028236532163 
2253	 0.150242338111714 
2254	 0.149552861267628 
2255	 0.149385215730142 
2256	 0.149164690024362 
2257	 0.148928599701071 
2258	 0.148533170103433 
2259	 0.148478829595442 
2260	 0.148076701771662 
2261	 0.147852820179137 
2262	 0.147446992431962 
2263	 0.146780393748508 
2264	 0.146264614262544 
2265	 0.14529691417995 
2266	 0.144513922042499 
2267	 0.144526517386272 
2268	 0.144459191489134 
2269	 0.144477395259409 
2270	 0.144656430736465 
2271	 0.144461840653159 
2272	 0.143813964876887 
2273	 0.142977108587037 
2274	 0.142707322821463 
2275	 0.142588495659308 
2276	 0.142046802704194 
2277	 0.141586248158947 
2278	 0.141360706876189 
2279	 0.14053389420225 
2280	 0.139493213946394 
2281	 0.139583250570808 
2282	 0.139635551818176 
2283	 0.139447718805581 
2284	 0.139507605813232 
2285	 0.139689025142207 
2286	 0.139724436921444 
2287	 0.13958635577752 
2288	 0.138672007139665 
2289	 0.138142250580761 
2290	 0.137218239808227 
2291	 0.134831449162926 
2292	 0.133731432968036 
2293	 0.133429652768578 
2294	 0.132565315436521 
2295	 0.132722864020159 
2296	 0.132803538881513 
2297	 0.132333967808637 
2298	 0.132477964594402 
2299	 0.132683800036728 
2300	 0.132508300099214 
2301	 0.131802214539521 
2302	 0.130727289678864 
2303	 0.129942339047339 
2304	 0.12920227603208 
2305	 0.128359896171505 
2306	 0.127450950923113 
2307	 0.126321219037279 
2308	 0.125609680831371 
2309	 0.125429163172979 
2310	 0.125334138016702 
2311	 0.125149482366373 
2312	 0.125218785602179 
2313	 0.124852078698237 
2314	 0.124482312735626 
2315	 0.124889000254246 
2316	 0.124554793111481 
2317	 0.123400048209906 
2318	 0.123020144494248 
2319	 0.122763148235115 
2320	 0.121407993290567 
2321	 0.120832185282621 
2322	 0.12147953886902 
2323	 0.120972060832146 
2324	 0.119698474018527 
2325	 0.119837975319897 
2326	 0.118989046654331 
2327	 0.118470573041962 
2328	 0.118641215125017 
2329	 0.117926015499379 
2330	 0.117683292511651 
2331	 0.117449272350701 
2332	 0.11712146259172 
2333	 0.117212804126134 
2334	 0.117536067686555 
2335	 0.117253343813746 
2336	 0.116194661152065 
2337	 0.116189655992798 
2338	 0.115871042365838 
2339	 0.115527569251765 
2340	 0.116038209560348 
2341	 0.114776450384473 
2342	 0.113206723880205 
2343	 0.11175499187701 
2344	 0.110453480887872 
2345	 0.109811960902225 
2346	 0.10930578914061 
2347	 0.109248619212862 
2348	 0.108586208361661 
2349	 0.108124454144033 
2350	 0.107765399303775 
2351	 0.106895663447298 
2352	 0.105790260900601 
2353	 0.104591627719309 
2354	 0.103843534942059 
2355	 0.104035430676175 
2356	 0.104883578610406 
2357	 0.105716858856105 
2358	 0.106066677978053 
2359	 0.105453353005884 
2360	 0.10497738979163 
2361	 0.104234216475433 
2362	 0.102391216038202 
2363	 0.101104079588824 
2364	 0.100756060597604 
2365	 0.100750444681294 
2366	 0.102016269694727 
2367	 0.102803734162275 
2368	 0.102259785117824 
2369	 0.101795665511631 
2370	 0.100273598011527 
2371	 9.92819603606972E-02 
2372	 9.83911921669645E-02 
2373	 9.74040074567168E-02 
2374	 9.62373841145622E-02 
2375	 9.53443100109903E-02 
2376	 9.43321864874288E-02 
2377	 9.34948794885414E-02 
2378	 9.23106238105123E-02 
2379	 8.97524840038133E-02 
2380	 8.97174657263372E-02 
2381	 9.13085818316501E-02 
2382	 9.16500486665187E-02 
2383	 9.36111634259068E-02 
2384	 9.39768733856453E-02 
2385	 9.22457386004881E-02 
2386	 9.11619341242485E-02 
2387	 9.06193026881841E-02 
2388	 9.00888985702114E-02 
2389	 8.87913089439374E-02 
2390	 8.79899131747433E-02 
2391	 8.73893693914176E-02 
2392	 8.70562817107007E-02 
2393	 8.60715573465139E-02 
2394	 8.57193516981103E-02 
2395	 8.76806321952968E-02 
2396	 8.83567810015695E-02 
2397	 8.92171629320949E-02 
2398	 9.00315520824225E-02 
2399	 8.92021708143785E-02 
2400	 0.087836791670196 
2401	 0.086356470030905 
2402	 8.38503194261243E-02 
2403	 8.07798885873855E-02 
2404	 0.07961212997857 
2405	 8.00076661345573E-02 
2406	 8.01760857803184E-02 
2407	 8.09722945259969E-02 
2408	 8.19460995412907E-02 
2409	 8.00100716058263E-02 
2410	 7.99910546117157E-02 
2411	 8.18928672800316E-02 
2412	 8.26656137265513E-02 
2413	 8.15761171585719E-02 
2414	 7.92463461901013E-02 
2415	 7.53712871066323E-02 
2416	 7.09668684897731E-02 
2417	 7.13696367519665E-02 
2418	 7.27502920797071E-02 
2419	 7.36038792381874E-02 
2420	 7.65458896509167E-02 
2421	 7.57907351452904E-02 
2422	 7.34602235085442E-02 
2423	 0.071902435716862 
2424	 6.90239909408956E-02 
2425	 6.76322396688246E-02 
2426	 0.067155623626479 
2427	 6.70467289267361E-02 
2428	 6.62782513369856E-02 
2429	 6.34053195083829E-02 
2430	 0.061564722851936 
2431	 0.062075509552644 
2432	 6.39161361384832E-02 
2433	 6.81135395577634E-02 
2434	 6.87309944949707E-02 
2435	 6.48000775640022E-02 
2436	 6.42722843902378E-02 
2437	 6.41882965398392E-02 
2438	 6.54760293796938E-02 
2439	 0.069971310174955 
2440	 7.15997234011636E-02 
2441	 0.072554171164213 
2442	 7.24854018629897E-02 
2443	 7.03312675988649E-02 
2444	 7.14411255232022E-02 
2445	 7.35604291274226E-02 
2446	 7.41481312170894E-02 
2447	 7.43218886255496E-02 
2448	 7.42180853951138E-02 
2449	 7.50310523101502E-02 
2450	 7.52476974415795E-02 
2451	 7.81234909773035E-02 
2452	 7.84112230548124E-02 
2453	 7.25763581160642E-02 
2454	 6.85835237877593E-02 
2455	 6.40767463625242E-02 
2456	 6.16391658023743E-02 
2457	 6.21336880260692E-02 
2458	 6.17908895234366E-02 
2459	 6.28021629911935E-02 
2460	 6.04882241008054E-02 
2461	 5.40763303910438E-02 
2462	 5.23254027159167E-02 
2463	 5.08833911370212E-02 
2464	 5.24410305908971E-02 
2465	 6.05183585575832E-02 
2466	 6.28224571319062E-02 
2467	 6.24855159250984E-02 
2468	 6.21984909362253E-02 
2469	 5.89196187455746E-02 
2470	 5.46940563756325E-02 
2471	 5.00664345950624E-02 
2472	 5.05209370384505E-02 
2473	 0.050224061626244 
2474	 5.25669286596872E-02 
2475	 6.52403784524487E-02 
2476	 6.38418183025863E-02 
2477	 5.26441012176683E-02 
2478	 5.24773250887198E-02 
2479	 5.33417102773844E-02 
2480	 5.18188592508463E-02 
2481	 5.05732076128789E-02 
2482	 5.46311267979729E-02 
2483	 5.31699331466668E-02 
2484	 6.10554636642332E-02 
2485	 9.97416067633192E-02 
2486	 9.87121733885847E-02 
2487	 9.66453126758866E-02 
2488	 0.096036946126641 
2489	 0.062220333938522 
2490	 6.54086581482994E-02 
2491	 9.32334938730885E-02 
2492	 0.104397137701127 
2493	 0.145418542687844 
2494	 0.166045342451131 
2495	 0.118769655606198 
2496	 9.64945572845897E-02 
2497	 8.82966684527594E-02 
2498	 1.78389323357887E-02 
2499	 2.83437335194094E-02 
2500	 9.51452139008559E-02 
