Wavelength	ref00005.asd
350	 7.80778649837901E-02 
351	 7.85687289838023E-02 
352	 7.89352473738335E-02 
353	 7.95333303386246E-02 
354	 7.95419134378943E-02 
355	 7.94301217046333E-02 
356	 7.95775028652338E-02 
357	 7.96658487117746E-02 
358	 0.080028684870507 
359	 8.03893214735033E-02 
360	 8.03936441564605E-02 
361	 8.00972567141021E-02 
362	 8.04407511390603E-02 
363	 8.11866599876005E-02 
364	 8.14004984578832E-02 
365	 8.16133834567713E-02 
366	 8.16298845583498E-02 
367	 8.15175889382957E-02 
368	 8.18035111705157E-02 
369	 8.21813636625141E-02 
370	 8.23546098582863E-02 
371	 8.22581004974707E-02 
372	 8.24750075799835E-02 
373	 8.28253053189137E-02 
374	 8.32646399682003E-02 
375	 8.37580174317906E-02 
376	 8.38176300437372E-02 
377	 0.083971394869635 
378	 8.44088784413895E-02 
379	 0.084802317926132 
380	 8.48615151691382E-02 
381	 8.52812427902783E-02 
382	 0.086326842382608 
383	 8.65385801060735E-02 
384	 8.68043338552287E-02 
385	 8.71338084835951E-02 
386	 8.72524506392807E-02 
387	 8.76316292887691E-02 
388	 8.82895224064539E-02 
389	 8.89902405631987E-02 
390	 0.089306388340281 
391	 8.95155884596449E-02 
392	 8.97702479069965E-02 
393	 9.01174572578357E-02 
394	 9.04122522829815E-02 
395	 9.08541375496419E-02 
396	 9.13902687930287E-02 
397	 9.18999095751254E-02 
398	 9.24500850665908E-02 
399	 0.092826844645726 
400	 0.09311248513984 
401	 9.35922847030001E-02 
402	 9.36437832131124E-02 
403	 9.36998761034319E-02 
404	 9.40588478594355E-02 
405	 0.094467692938869 
406	 0.09477140710112 
407	 0.094962456397994 
408	 9.51418736182751E-02 
409	 0.095587799033065 
410	 9.60346674179503E-02 
411	 9.64158719140012E-02 
412	 9.68524831641125E-02 
413	 9.71609570714681E-02 
414	 9.74696249491621E-02 
415	 9.78204169666999E-02 
416	 9.79456269727309E-02 
417	 9.83168232016834E-02 
418	 9.87746665099123E-02 
419	 0.099019712494525 
420	 9.92316531930185E-02 
421	 9.95592037225588E-02 
422	 9.99707229896478E-02 
423	 0.100287470974786 
424	 0.100570727394925 
425	 0.100952374415415 
426	 0.101425169666822 
427	 0.101646152274304 
428	 0.101963198791806 
429	 0.102289680653564 
430	 0.102478671767383 
431	 0.102909811147906 
432	 0.10327939275623 
433	 0.10351621843885 
434	 0.103775067816032 
435	 0.103933311595426 
436	 0.104184897440682 
437	 0.104577950172443 
438	 0.104753276677582 
439	 0.105028691562761 
440	 0.105394571478085 
441	 0.105716362273578 
442	 0.105869423830329 
443	 0.105992843178776 
444	 0.106194379389471 
445	 0.10652302876834 
446	 0.106762463227127 
447	 0.106948265709297 
448	 0.107154095434817 
449	 0.107423632846213 
450	 0.107696524620391 
451	 0.107932022375143 
452	 0.108117060853409 
453	 0.108341319608827 
454	 0.108601924901969 
455	 0.108876418125513 
456	 0.109130477565683 
457	 0.109355570140676 
458	 0.10956298874453 
459	 0.109775501258134 
460	 0.110034177730153 
461	 0.110277240509829 
462	 0.110477951226021 
463	 0.110639355757438 
464	 0.110827096831975 
465	 0.111024156721168 
466	 0.11123582834653 
467	 0.111518917258888 
468	 0.111640700320084 
469	 0.111730953470888 
470	 0.111960447963486 
471	 0.112239756907895 
472	 0.112438684311637 
473	 0.112595597360006 
474	 0.112851165450959 
475	 0.113034089268448 
476	 0.113164670849116 
477	 0.113305914889934 
478	 0.113554167044916 
479	 0.113761884214577 
480	 0.11394282123409 
481	 0.114150540440558 
482	 0.114332045322488 
483	 0.114523701375918 
484	 0.114748978624146 
485	 0.115004951326577 
486	 0.115094109585065 
487	 0.115280718859618 
488	 0.115696235116254 
489	 0.115893226604975 
490	 0.116105434132224 
491	 0.116341756755028 
492	 0.1165387581232 
493	 0.116771999429061 
494	 0.117010170878292 
495	 0.117236424859298 
496	 0.117462676263305 
497	 0.117696738779707 
498	 0.117942851012585 
499	 0.118193167024587 
500	 0.118398012325718 
501	 0.118672453602782 
502	 0.118972328117773 
503	 0.119176363129399 
504	 0.119462780622836 
505	 0.119716338315833 
506	 0.119899344487348 
507	 0.120155576971656 
508	 0.120411644715517 
509	 0.120614900837135 
510	 0.120773224926166 
511	 0.121138527469715 
512	 0.121467089778292 
513	 0.121687737745538 
514	 0.121898067862433 
515	 0.122177351958537 
516	 0.122466290008618 
517	 0.122715244805133 
518	 0.122959931621821 
519	 0.123309972074594 
520	 0.123640839554354 
521	 0.12380683695421 
522	 0.124126738502942 
523	 0.124452620796936 
524	 0.124704526409051 
525	 0.124909711544521 
526	 0.125185044707367 
527	 0.125514598271847 
528	 0.125847344473599 
529	 0.126136898742368 
530	 0.12643465581867 
531	 0.126703736006478 
532	 0.126882535029051 
533	 0.127144004858378 
534	 0.127474641670042 
535	 0.12782078358191 
536	 0.128106135256154 
537	 0.128401890770796 
538	 0.128673729455789 
539	 0.128888990349614 
540	 0.129160525258285 
541	 0.129517397165158 
542	 0.129880214223835 
543	 0.130096560771744 
544	 0.130321586713793 
545	 0.130601832870119 
546	 0.130926212548003 
547	 0.131201207632054 
548	 0.131430776981241 
549	 0.131696396232818 
550	 0.132071518488652 
551	 0.132344092407084 
552	 0.132606746153903 
553	 0.132896369075236 
554	 0.133154262740462 
555	 0.133461050139275 
556	 0.133770828674945 
557	 0.134039122072587 
558	 0.13433129151777 
559	 0.134636678153858 
560	 0.134914886956571 
561	 0.135128641473426 
562	 0.13546434481287 
563	 0.135689280738699 
564	 0.135741976681209 
565	 0.135950180946607 
566	 0.136173968522453 
567	 0.136426521568308 
568	 0.136731053400349 
569	 0.136947747384517 
570	 0.137161583554344 
571	 0.137395173079546 
572	 0.137604426910915 
573	 0.137772522989007 
574	 0.137984068559361 
575	 0.13826617482733 
576	 0.138449562745037 
577	 0.138601069962012 
578	 0.138773025612087 
579	 0.138997643680675 
580	 0.139187970574445 
581	 0.139349842070605 
582	 0.139508519547471 
583	 0.139702199127009 
584	 0.139887299961891 
585	 0.140048360426284 
586	 0.140187489595821 
587	 0.140352009229214 
588	 0.140444833850351 
589	 0.140486650565781 
590	 0.140584217947589 
591	 0.140732065449838 
592	 0.140866786824566 
593	 0.140978356829121 
594	 0.141162834778205 
595	 0.141347231054635 
596	 0.141483851467419 
597	 0.141560753723178 
598	 0.141684135587335 
599	 0.141829445145432 
600	 0.141992839881916 
601	 0.142191251243584 
602	 0.142277592629281 
603	 0.142356420582065 
604	 0.142508615688981 
605	 0.142610193361204 
606	 0.142746016301651 
607	 0.142862174543667 
608	 0.142863712150957 
609	 0.142885640049474 
610	 0.143011951053783 
611	 0.143192867445123 
612	 0.143207233276137 
613	 0.143236623740717 
614	 0.143308330256818 
615	 0.143396441986435 
616	 0.143437761966969 
617	 0.143492649457415 
618	 0.143570914389783 
619	 0.143645126204827 
620	 0.143702233206963 
621	 0.14378462587304 
622	 0.143902604441609 
623	 0.14399309592541 
624	 0.144036200213029 
625	 0.144063897229961 
626	 0.144124612907405 
627	 0.144230641739965 
628	 0.144294884490876 
629	 0.144340065303334 
630	 0.144489350688626 
631	 0.144598786921282 
632	 0.144625134221188 
633	 0.144611401262103 
634	 0.144769482329463 
635	 0.144897192294238 
636	 0.144974257957791 
637	 0.145052450883474 
638	 0.145066590277575 
639	 0.145121675165666 
640	 0.145238635650025 
641	 0.145313833427369 
642	 0.145427835384332 
643	 0.145491011097958 
644	 0.145458338943145 
645	 0.145563188311088 
646	 0.145598778337338 
647	 0.145607428330347 
648	 0.145756955313914 
649	 0.145835142917286 
650	 0.145849860310103 
651	 0.145864888762041 
652	 0.145986848280498 
653	 0.146131080639504 
654	 0.146246928162294 
655	 0.146308677311957 
656	 0.146343196165109 
657	 0.146375069659833 
658	 0.146428284225897 
659	 0.146522313379345 
660	 0.146625392309608 
661	 0.14668845126714 
662	 0.146705670639319 
663	 0.14676399367021 
664	 0.146803479960423 
665	 0.146784177758336 
666	 0.146717820949437 
667	 0.146821389585094 
668	 0.14691813933066 
669	 0.146974364870309 
670	 0.147093054863682 
671	 0.147071664016396 
672	 0.14706612615793 
673	 0.147173684685948 
674	 0.147194529917657 
675	 0.147303878303109 
676	 0.147439252202936 
677	 0.147480140877881 
678	 0.147538640401971 
679	 0.147674729081032 
680	 0.147825163680591 
681	 0.147821174851067 
682	 0.148042858558449 
683	 0.148296795175296 
684	 0.148426999127048 
685	 0.148689328525958 
686	 0.14896218325259 
687	 0.149221200510544 
688	 0.149466414745741 
689	 0.149789374019087 
690	 0.150032514601909 
691	 0.150222541750297 
692	 0.150559429084987 
693	 0.150937818109157 
694	 0.151290609855843 
695	 0.151584644792701 
696	 0.151860665060185 
697	 0.152204204811107 
698	 0.152564185869232 
699	 0.152840825798647 
700	 0.153116485141635 
701	 0.153381883364359 
702	 0.153661190859578 
703	 0.154017404809954 
704	 0.154228871816123 
705	 0.154372804163054 
706	 0.154564075190807 
707	 0.154835105575971 
708	 0.155072788893284 
709	 0.155249688570967 
710	 0.155401773079859 
711	 0.155679392786531 
712	 0.155931611588474 
713	 0.156097636966224 
714	 0.156252757184537 
715	 0.156493035684304 
716	 0.1567126739171 
717	 0.156850604670644 
718	 0.157119463998196 
719	 0.157297255102837 
720	 0.157436092957729 
721	 0.157669001706877 
722	 0.15769724655883 
723	 0.157789497878772 
724	 0.158027940697767 
725	 0.158246424571295 
726	 0.158370511763351 
727	 0.158515141445897 
728	 0.158739139735571 
729	 0.158836896586543 
730	 0.159050398970259 
731	 0.159300151641516 
732	 0.159431818130316 
733	 0.159600747293975 
734	 0.159775941310632 
735	 0.159938383487143 
736	 0.160081916873911 
737	 0.160157274631256 
738	 0.16027773125281 
739	 0.160493341716178 
740	 0.16066543495769 
741	 0.160803558528689 
742	 0.160911462107925 
743	 0.161017097534612 
744	 0.161251427544757 
745	 0.161399089640344 
746	 0.161455655979333 
747	 0.161578371560461 
748	 0.161714104058926 
749	 0.161843423406445 
750	 0.161982393896633 
751	 0.162203860621274 
752	 0.16232022086303 
753	 0.162398891911894 
754	 0.162534127648794 
755	 0.162632146490075 
756	 0.162736274753423 
757	 0.162956501479103 
758	 0.163388520935651 
759	 0.163599473368685 
760	 0.163742728402747 
761	 0.163974934450731 
762	 0.164228116963621 
763	 0.164358113537786 
764	 0.164333039036432 
765	 0.164240275617481 
766	 0.164386430075022 
767	 0.164486546837089 
768	 0.164518220051329 
769	 0.164550807987526 
770	 0.164730563761285 
771	 0.164917915662021 
772	 0.165048930075059 
773	 0.165141008994553 
774	 0.165232149196271 
775	 0.165347127237482 
776	 0.165481593894896 
777	 0.16558848090062 
778	 0.165738908084892 
779	 0.165890081554907 
780	 0.165996757263231 
781	 0.166128121202672 
782	 0.166222380661564 
783	 0.166341185648054 
784	 0.166569841514423 
785	 0.166674850235763 
786	 0.166773024824914 
787	 0.166919047695956 
788	 0.167069963198089 
789	 0.167303200380863 
790	 0.167453585116097 
791	 0.167487338577064 
792	 0.167741856552904 
793	 0.16790253472194 
794	 0.167978479051682 
795	 0.168074618905661 
796	 0.168217021791313 
797	 0.168409876473037 
798	 0.168593706990503 
799	 0.168695223864176 
800	 0.168837089512813 
801	 0.168936190254408 
802	 0.169004461508166 
803	 0.169175773279679 
804	 0.169362339925347 
805	 0.169534782631361 
806	 0.169681540018781 
807	 0.169810034181196 
808	 0.169847668423 
809	 0.169948554750027 
810	 0.17024123446257 
811	 0.170478894014646 
812	 0.170665040689439 
813	 0.170787183557072 
814	 0.170841988897233 
815	 0.170935897600151 
816	 0.171089131822102 
817	 0.171295277606613 
818	 0.171519293157852 
819	 0.171594328400552 
820	 0.171659767401789 
821	 0.171797601359483 
822	 0.171902370753553 
823	 0.17208944769358 
824	 0.17225137910684 
825	 0.172331980611201 
826	 0.17263227992432 
827	 0.172829191974845 
828	 0.172959138186216 
829	 0.173164750361829 
830	 0.173307519733884 
831	 0.17337760177743 
832	 0.173488401108289 
833	 0.173783116480132 
834	 0.1739131203742 
835	 0.173986486938569 
836	 0.174110626823573 
837	 0.17431367592877 
838	 0.174427832195737 
839	 0.174541234394712 
840	 0.174737158428242 
841	 0.174996220407386 
842	 0.175045256869314 
843	 0.175092198325628 
844	 0.175325711947735 
845	 0.175368016440512 
846	 0.175405614134203 
847	 0.175566907595615 
848	 0.175870861397099 
849	 0.175931784687278 
850	 0.176115696717347 
851	 0.176327336611704 
852	 0.176196177749611 
853	 0.176316294265157 
854	 0.176534154304631 
855	 0.176717863674229 
856	 0.176862157013897 
857	 0.177006116055177 
858	 0.177137061296302 
859	 0.177249560562687 
860	 0.177355475408621 
861	 0.177697509011806 
862	 0.177935176206488 
863	 0.177865633581808 
864	 0.17802379222038 
865	 0.177995074739706 
866	 0.178055826688813 
867	 0.178484971008354 
868	 0.178665636174003 
869	 0.178649044381151 
870	 0.178617691602447 
871	 0.178765787703605 
872	 0.179022995954116 
873	 0.17925086183852 
874	 0.17932284075021 
875	 0.17921098812547 
876	 0.179432614453734 
877	 0.179625138338142 
878	 0.179661872800404 
879	 0.179739634314917 
880	 0.17985114840777 
881	 0.180079889154448 
882	 0.180347259142179 
883	 0.180371926224452 
884	 0.1804030351694 
885	 0.180404903226738 
886	 0.180399174034188 
887	 0.180603204446622 
888	 0.180910390661422 
889	 0.181099346187546 
890	 0.18110328871191 
891	 0.181307484861708 
892	 0.181431500522266 
893	 0.181399825718612 
894	 0.181308886494267 
895	 0.181617151857349 
896	 0.181730492552382 
897	 0.181620581384045 
898	 0.181565552030047 
899	 0.18188794104958 
900	 0.182142000630463 
901	 0.18216236676147 
902	 0.182083552248016 
903	 0.182553588629725 
904	 0.182565226446214 
905	 0.182396990727481 
906	 0.182909961093707 
907	 0.182779050206973 
908	 0.182975810191773 
909	 0.183476731618736 
910	 0.183378527772517 
911	 0.183093729016359 
912	 0.18318024379005 
913	 0.183491525844402 
914	 0.183333537932721 
915	 0.183764596614266 
916	 0.18401198154892 
917	 0.183892501657657 
918	 0.184079660155246 
919	 0.183997377167487 
920	 0.184117687482092 
921	 0.184489084992621 
922	 0.184476513281556 
923	 0.184243651391571 
924	 0.18450198100373 
925	 0.185201731691009 
926	 0.185038337230714 
927	 0.18483731992223 
928	 0.184900107824662 
929	 0.185138467986578 
930	 0.184931954964916 
931	 0.184867796722638 
932	 0.185165004620816 
933	 0.185553258827948 
934	 0.185011462590342 
935	 0.185169546107934 
936	 0.185761363616208 
937	 0.186179464661981 
938	 0.186336743240254 
939	 0.186100038875229 
940	 0.185786565500699 
941	 0.185845101395762 
942	 0.186761345530865 
943	 0.187288971250838 
944	 0.186614453750575 
945	 0.185409985360493 
946	 0.187069196589174 
947	 0.18726125462752 
948	 0.186926360078475 
949	 0.187440968072662 
950	 0.187985672541521 
951	 0.187591476271145 
952	 0.187356811678965 
953	 0.188044603401373 
954	 0.188618618568162 
955	 0.188227610447216 
956	 0.188208646014526 
957	 0.188840757088709 
958	 0.187349602186136 
959	 0.1878191195759 
960	 0.188502731812782 
961	 0.188051943886267 
962	 0.188409244070211 
963	 0.188192778158128 
964	 0.188432845644657 
965	 0.189310455170947 
966	 0.188899500332411 
967	 0.189259519682179 
968	 0.189573758852235 
969	 0.189135613904453 
970	 0.188410086098291 
971	 0.188481301541102 
972	 0.188959812080913 
973	 0.189412694440699 
974	 0.189811266837342 
975	 0.18936770438677 
976	 0.189211955453437 
977	 0.189604092013352 
978	 0.189375442280927 
979	 0.190169925486912 
980	 0.189892998275568 
981	 0.188867280737348 
982	 0.190051659648634 
983	 0.190115467981936 
984	 0.18963150086796 
985	 0.189655548827197 
986	 0.190794538866875 
987	 0.190994982217711 
988	 0.189898689471038 
989	 0.189656149079692 
990	 0.192603643717241 
991	 0.19156471096248 
992	 0.190287217596155 
993	 0.190567983887871 
994	 0.19175308425225 
995	 0.191029587828848 
996	 0.191730178727834 
997	 0.192430836877623 
998	 0.190815478444017 
999	 0.191821563710043 
1000	 0.192182218078302 
1001	 0.190911812351307 
1002	 0.19098865717787 
1003	 0.191026082676421 
1004	 0.190997330317827 
1005	 0.191032966939177 
1006	 0.191008752260822 
1007	 0.19105055285873 
1008	 0.19119657104916 
1009	 0.191293539685614 
1010	 0.191335534579654 
1011	 0.191487308380444 
1012	 0.191680129758203 
1013	 0.191715296933472 
1014	 0.191789781137337 
1015	 0.19186786855504 
1016	 0.191880449580632 
1017	 0.191940747145426 
1018	 0.191988705305392 
1019	 0.192022555527446 
1020	 0.192105320259561 
1021	 0.192156213697358 
1022	 0.192272824687821 
1023	 0.192471485177606 
1024	 0.192664082990684 
1025	 0.192739831602649 
1026	 0.192861411742714 
1027	 0.192917815887699 
1028	 0.192909852500165 
1029	 0.192995170096569 
1030	 0.19315624649149 
1031	 0.193204448702023 
1032	 0.19317239145186 
1033	 0.19326234943027 
1034	 0.193358598091413 
1035	 0.193495969996349 
1036	 0.193842902870353 
1037	 0.193969976873562 
1038	 0.193999213174409 
1039	 0.193972594407058 
1040	 0.19391850160392 
1041	 0.193999656288799 
1042	 0.194227594185516 
1043	 0.194453732269697 
1044	 0.194586751065555 
1045	 0.19459330677139 
1046	 0.194558794398604 
1047	 0.19450203254142 
1048	 0.194498096561906 
1049	 0.194668206821722 
1050	 0.194794835623991 
1051	 0.194954864039086 
1052	 0.195038283427128 
1053	 0.195256466096584 
1054	 0.195426190684559 
1055	 0.195476921930423 
1056	 0.195591711981679 
1057	 0.195608195996562 
1058	 0.19555141363775 
1059	 0.195579722111443 
1060	 0.195593775911554 
1061	 0.195705877549852 
1062	 0.195874501551427 
1063	 0.195922041515368 
1064	 0.196075548409863 
1065	 0.196196186825058 
1066	 0.19629394679693 
1067	 0.196290674830918 
1068	 0.196399838649661 
1069	 0.196458889593803 
1070	 0.196460497581481 
1071	 0.196482556004563 
1072	 0.196555061997621 
1073	 0.196656763488411 
1074	 0.196824779798134 
1075	 0.197061093324872 
1076	 0.197183012326779 
1077	 0.197202955457254 
1078	 0.197180625422054 
1079	 0.197164510682403 
1080	 0.197220646211805 
1081	 0.197291999053522 
1082	 0.197429911074749 
1083	 0.197610770851429 
1084	 0.197714902942478 
1085	 0.197749170277296 
1086	 0.19786319665466 
1087	 0.197912116574369 
1088	 0.197872730141589 
1089	 0.197951601254451 
1090	 0.19804503915597 
1091	 0.198129536006623 
1092	 0.198323480470406 
1093	 0.198436300756161 
1094	 0.198415768256156 
1095	 0.198427597045123 
1096	 0.198482250869545 
1097	 0.198581797707938 
1098	 0.198631683809514 
1099	 0.198703076610625 
1100	 0.19872987784297 
1101	 0.198763354293951 
1102	 0.198809006836773 
1103	 0.198912814913437 
1104	 0.199095004049656 
1105	 0.199227923851948 
1106	 0.199313729645087 
1107	 0.199410279826916 
1108	 0.199432803677694 
1109	 0.199427610080702 
1110	 0.199487019219351 
1111	 0.199495365083421 
1112	 0.199441081059175 
1113	 0.199459559231986 
1114	 0.199471801299195 
1115	 0.199512980086385 
1116	 0.199623895504183 
1117	 0.199769949971393 
1118	 0.199820237925787 
1119	 0.199876229073651 
1120	 0.199890811446191 
1121	 0.199937357607538 
1122	 0.199986254884204 
1123	 0.199967643740378 
1124	 0.200047064809126 
1125	 0.20011148369466 
1126	 0.200228830187515 
1127	 0.200508630372233 
1128	 0.200631010755653 
1129	 0.200632078115785 
1130	 0.200755679455607 
1131	 0.200841356998861 
1132	 0.200974899523576 
1133	 0.201226738285743 
1134	 0.201393312926951 
1135	 0.201441337318089 
1136	 0.20155840767976 
1137	 0.201670118621112 
1138	 0.201751301171937 
1139	 0.201752463495776 
1140	 0.201783340614772 
1141	 0.201855520338349 
1142	 0.201897747726783 
1143	 0.201923323276893 
1144	 0.201967824250124 
1145	 0.202058555848962 
1146	 0.202098601844394 
1147	 0.202220549951789 
1148	 0.202525487612775 
1149	 0.202659486411804 
1150	 0.202683355802253 
1151	 0.202751826134351 
1152	 0.202728338534239 
1153	 0.202816570945469 
1154	 0.203070611538112 
1155	 0.203195744910998 
1156	 0.203319522690894 
1157	 0.203492212141871 
1158	 0.203527643438063 
1159	 0.203587463549499 
1160	 0.20364690234649 
1161	 0.20367690676255 
1162	 0.203745189208666 
1163	 0.203859162509175 
1164	 0.203945204115867 
1165	 0.204066740844875 
1166	 0.204125771583911 
1167	 0.204113968849589 
1168	 0.204133614876807 
1169	 0.20411231864338 
1170	 0.204178218369651 
1171	 0.204236530984883 
1172	 0.204277157957016 
1173	 0.204319199391697 
1174	 0.204372511305953 
1175	 0.204496416230243 
1176	 0.204588456106716 
1177	 0.204641886496765 
1178	 0.20468503465696 
1179	 0.204724215496658 
1180	 0.204674782708935 
1181	 0.204737278142208 
1182	 0.20489313124685 
1183	 0.204968103036966 
1184	 0.205040276800322 
1185	 0.205134949291572 
1186	 0.205211098677859 
1187	 0.205267992012496 
1188	 0.205364350777991 
1189	 0.205403657115686 
1190	 0.205423779617658 
1191	 0.205454123279267 
1192	 0.205430357837841 
1193	 0.205476276528933 
1194	 0.205508472536832 
1195	 0.205496285435096 
1196	 0.205550922038804 
1197	 0.205679695819235 
1198	 0.205742261172811 
1199	 0.205816308493868 
1200	 0.205860722292519 
1201	 0.205845105996173 
1202	 0.205884082816794 
1203	 0.205919143463278 
1204	 0.205984896300665 
1205	 0.206104547937848 
1206	 0.206186679230761 
1207	 0.206266249112904 
1208	 0.20634683937526 
1209	 0.206380765784752 
1210	 0.206488135114359 
1211	 0.206621035056497 
1212	 0.206678570499189 
1213	 0.20673439977646 
1214	 0.206762012162308 
1215	 0.206820802622962 
1216	 0.206862564906385 
1217	 0.20693274209826 
1218	 0.207047835549708 
1219	 0.207126504522134 
1220	 0.207187086242546 
1221	 0.207258896810049 
1222	 0.207344245352776 
1223	 0.207402319245476 
1224	 0.207420643709836 
1225	 0.207490478253771 
1226	 0.207563315070578 
1227	 0.207643946569163 
1228	 0.207753189036316 
1229	 0.207909285806066 
1230	 0.207981484975507 
1231	 0.2080251374284 
1232	 0.208064531997312 
1233	 0.208060371290861 
1234	 0.208095159887547 
1235	 0.208133393130888 
1236	 0.208186197254917 
1237	 0.208273777367336 
1238	 0.20832117205911 
1239	 0.20835078281371 
1240	 0.208399114857338 
1241	 0.208425909568867 
1242	 0.208475735097655 
1243	 0.208553202110961 
1244	 0.208624051608017 
1245	 0.208699465567418 
1246	 0.208772795192031 
1247	 0.208857806524703 
1248	 0.20892999259889 
1249	 0.208994620762002 
1250	 0.209057101739773 
1251	 0.209127909962564 
1252	 0.209163086784291 
1253	 0.209216080795945 
1254	 0.209273166445562 
1255	 0.209314069165793 
1256	 0.209334869483078 
1257	 0.209392294757646 
1258	 0.209448151870827 
1259	 0.209528567770029 
1260	 0.209665477608543 
1261	 0.209754070692724 
1262	 0.209815752564786 
1263	 0.209903952058161 
1264	 0.210000447149815 
1265	 0.210075376816005 
1266	 0.210143775425177 
1267	 0.21022902761186 
1268	 0.210322257875576 
1269	 0.210378988017644 
1270	 0.210428956782273 
1271	 0.210483213840944 
1272	 0.210468112482091 
1273	 0.210501578277615 
1274	 0.210579098147568 
1275	 0.210728635498109 
1276	 0.210793785035587 
1277	 0.210864145463918 
1278	 0.210908509308269 
1279	 0.210878955950478 
1280	 0.210925534980546 
1281	 0.211013075847464 
1282	 0.211078302972462 
1283	 0.211154750944849 
1284	 0.211230085096959 
1285	 0.211312701708128 
1286	 0.211368654382901 
1287	 0.211411704712625 
1288	 0.211464477582089 
1289	 0.211488835010168 
1290	 0.211536173014977 
1291	 0.211645691395724 
1292	 0.211689958519613 
1293	 0.211665594627732 
1294	 0.211695247265208 
1295	 0.211728341580023 
1296	 0.21174930585642 
1297	 0.211795705603761 
1298	 0.211907189401879 
1299	 0.211942493771499 
1300	 0.211918103933191 
1301	 0.211970002125052 
1302	 0.212046764810583 
1303	 0.212097766059144 
1304	 0.212157324285708 
1305	 0.212246833310874 
1306	 0.212375688452792 
1307	 0.212406365904923 
1308	 0.212401945140903 
1309	 0.212439214661229 
1310	 0.212390416793 
1311	 0.212406420033111 
1312	 0.212518130377927 
1313	 0.212608412624555 
1314	 0.212680774441362 
1315	 0.212758544701783 
1316	 0.212897239248387 
1317	 0.212979582308645 
1318	 0.213011532756261 
1319	 0.213055934182595 
1320	 0.213116989409576 
1321	 0.213108209510285 
1322	 0.213105865719787 
1323	 0.213071620545489 
1324	 0.213103146687461 
1325	 0.213141537190771 
1326	 0.213180419531869 
1327	 0.213305286806884 
1328	 0.213319032472767 
1329	 0.213219759518216 
1330	 0.213231868366869 
1331	 0.213279098586967 
1332	 0.213283621120728 
1333	 0.213277573258892 
1334	 0.213348769948818 
1335	 0.21344890167491 
1336	 0.213502520078863 
1337	 0.213626523646114 
1338	 0.213720167105004 
1339	 0.213720801405767 
1340	 0.21375936675915 
1341	 0.213902384794567 
1342	 0.213961542072593 
1343	 0.213996128456694 
1344	 0.213944243488844 
1345	 0.213756320404751 
1346	 0.213494690286827 
1347	 0.21328983339751 
1348	 0.212903852180727 
1349	 0.212643984198222 
1350	 0.212557865927318 
1351	 0.212407700763713 
1352	 0.212293977192228 
1353	 0.212156752033649 
1354	 0.212119868902979 
1355	 0.212382126787811 
1356	 0.213371392103155 
1357	 0.214089465677147 
1358	 0.215970492262619 
1359	 0.216960504308772 
1360	 0.213573002022954 
1361	 0.211224097065643 
1362	 0.205442861106307 
1363	 0.204233680825805 
1364	 0.2115016935557 
1365	 0.216240849579551 
1366	 0.229904443058068 
1367	 0.230375112306118 
1368	 0.220227958007556 
1369	 0.216240213824367 
1370	 0.210596558971448 
1371	 0.208258931451161 
1372	 0.20876036213798 
1373	 0.209070146623724 
1374	 0.209201876131932 
1375	 0.209276266850284 
1376	 0.211862091536298 
1377	 0.215542659823529 
1378	 0.215937602847848 
1379	 0.216622748405886 
1380	 0.215180026482677 
1381	 0.209073181106465 
1382	 0.208060144936465 
1383	 0.209710602769395 
1384	 0.2090711579723 
1385	 0.208493724595079 
1386	 0.208944489594463 
1387	 0.20926590812809 
1388	 0.208853688872142 
1389	 0.208805345898809 
1390	 0.209190815224176 
1391	 0.208453167770014 
1392	 0.208976906278435 
1393	 0.211679362277975 
1394	 0.212268361752162 
1395	 0.211763977908516 
1396	 0.211748957553596 
1397	 0.211134382224516 
1398	 0.210965293735519 
1399	 0.211415179835281 
1400	 0.211545572708972 
1401	 0.211442766002038 
1402	 0.211510499457783 
1403	 0.211941664031634 
1404	 0.211776577531987 
1405	 0.211354864044589 
1406	 0.210963320700821 
1407	 0.210591078046824 
1408	 0.209847884176634 
1409	 0.209092215989111 
1410	 0.208965779955064 
1411	 0.209265048911165 
1412	 0.209686556506888 
1413	 0.210166790377774 
1414	 0.211280164807598 
1415	 0.211527358809083 
1416	 0.211381841168923 
1417	 0.211427646815912 
1418	 0.21130674881461 
1419	 0.211304726217358 
1420	 0.211312228198333 
1421	 0.211505638996473 
1422	 0.211925879609194 
1423	 0.211966688965597 
1424	 0.211959719275508 
1425	 0.211943155940956 
1426	 0.21149216052131 
1427	 0.21157360728001 
1428	 0.212171603171647 
1429	 0.212310164952492 
1430	 0.212452733274055 
1431	 0.212519530522665 
1432	 0.212239492275481 
1433	 0.212143091858763 
1434	 0.212152360010307 
1435	 0.212186350581099 
1436	 0.212242518464306 
1437	 0.212332747123132 
1438	 0.212496897067323 
1439	 0.212625832045615 
1440	 0.212737221306861 
1441	 0.21284432178839 
1442	 0.212965883404921 
1443	 0.213067372561177 
1444	 0.213145247204845 
1445	 0.213129490602022 
1446	 0.213110798558002 
1447	 0.213328749539536 
1448	 0.213479615366756 
1449	 0.213701508027137 
1450	 0.21384564639051 
1451	 0.213966592947012 
1452	 0.214075782470906 
1453	 0.214183418144479 
1454	 0.214260373367943 
1455	 0.214297949103844 
1456	 0.21438952982315 
1457	 0.214508688716711 
1458	 0.214566402084364 
1459	 0.214671255626077 
1460	 0.21468056780356 
1461	 0.214570052824417 
1462	 0.214538194718031 
1463	 0.214461998744396 
1464	 0.214477421168536 
1465	 0.214568226068078 
1466	 0.214667303755472 
1467	 0.214826111483669 
1468	 0.214981633793757 
1469	 0.215171904966636 
1470	 0.215312555283378 
1471	 0.215434344891146 
1472	 0.215578449991367 
1473	 0.215705952320325 
1474	 0.215796565483502 
1475	 0.215859978101379 
1476	 0.21596211508392 
1477	 0.216041850437237 
1478	 0.216137839798068 
1479	 0.216298257157709 
1480	 0.216412546494155 
1481	 0.216510602924418 
1482	 0.216577357370116 
1483	 0.216569052347828 
1484	 0.216634595038391 
1485	 0.216712046440041 
1486	 0.216795310541954 
1487	 0.21689891161305 
1488	 0.217064578653069 
1489	 0.217226782291515 
1490	 0.217260463504327 
1491	 0.217425835436023 
1492	 0.217648604495337 
1493	 0.217757141604433 
1494	 0.21791312333938 
1495	 0.21796318012595 
1496	 0.217920738770695 
1497	 0.217928237455901 
1498	 0.217894751352679 
1499	 0.217945734871418 
1500	 0.218020256080977 
1501	 0.218129735407576 
1502	 0.218304863545197 
1503	 0.218443098615703 
1504	 0.218605301841155 
1505	 0.218719268362544 
1506	 0.218821558276327 
1507	 0.218892280512381 
1508	 0.218903665856187 
1509	 0.218973186462268 
1510	 0.21903857695002 
1511	 0.219128891483721 
1512	 0.219284076077423 
1513	 0.219365984094721 
1514	 0.219404925775985 
1515	 0.219479138259598 
1516	 0.219547779051832 
1517	 0.219612761564043 
1518	 0.219690202503325 
1519	 0.219774201842908 
1520	 0.219846233958441 
1521	 0.219923413554091 
1522	 0.220016917911063 
1523	 0.220115301047784 
1524	 0.220195647056109 
1525	 0.220303854989073 
1526	 0.220488586249835 
1527	 0.220578407554482 
1528	 0.220601207306132 
1529	 0.220675516205462 
1530	 0.220740895400404 
1531	 0.220782523166624 
1532	 0.220841506901104 
1533	 0.220904278840474 
1534	 0.22089497973101 
1535	 0.220955105110087 
1536	 0.22112008067263 
1537	 0.221210144570875 
1538	 0.22127223315189 
1539	 0.221347676793971 
1540	 0.221425665405997 
1541	 0.221455837628869 
1542	 0.221427081006916 
1543	 0.221474338933631 
1544	 0.221515174697701 
1545	 0.221569481509173 
1546	 0.221690459424441 
1547	 0.221812383051909 
1548	 0.221958434756788 
1549	 0.222048728004634 
1550	 0.222131084056999 
1551	 0.222216380709232 
1552	 0.222211206271646 
1553	 0.222274276958549 
1554	 0.222455054738241 
1555	 0.22254383710108 
1556	 0.222573959024176 
1557	 0.222639802198062 
1558	 0.222674345219051 
1559	 0.222709007056673 
1560	 0.222766633792699 
1561	 0.22284453413451 
1562	 0.222925469652338 
1563	 0.22299002648111 
1564	 0.22309366199995 
1565	 0.223170069549179 
1566	 0.22316354756461 
1567	 0.223203059294916 
1568	 0.223273149371541 
1569	 0.223362866638048 
1570	 0.223449857764992 
1571	 0.223586098176869 
1572	 0.223654894581707 
1573	 0.223675857052563 
1574	 0.223752816232097 
1575	 0.223850426204411 
1576	 0.223879155698747 
1577	 0.223895915464323 
1578	 0.223934297476444 
1579	 0.223919004528204 
1580	 0.223955627017898 
1581	 0.22403681426055 
1582	 0.224138853985527 
1583	 0.224259816395976 
1584	 0.224331599487888 
1585	 0.224433726374043 
1586	 0.224500678904308 
1587	 0.224483337203353 
1588	 0.224557382999894 
1589	 0.22470674970499 
1590	 0.224764674288196 
1591	 0.224779996175189 
1592	 0.224866658193138 
1593	 0.224939848450821 
1594	 0.22504405461795 
1595	 0.225239530846562 
1596	 0.22533246467416 
1597	 0.225386406238187 
1598	 0.225408447956612 
1599	 0.225367888816449 
1600	 0.225396016408523 
1601	 0.225403194889146 
1602	 0.225472692815009 
1603	 0.225618996558218 
1604	 0.225709997317733 
1605	 0.225803529936608 
1606	 0.225878852274443 
1607	 0.225933904866642 
1608	 0.225996977119603 
1609	 0.226021619935333 
1610	 0.226142405164049 
1611	 0.226336332079952 
1612	 0.226436323248399 
1613	 0.226574424262131 
1614	 0.226637558569553 
1615	 0.226574373223019 
1616	 0.226622190990403 
1617	 0.226738892056335 
1618	 0.226751887268492 
1619	 0.22669876786395 
1620	 0.22677248531199 
1621	 0.226848405481464 
1622	 0.226944299687594 
1623	 0.227176756401908 
1624	 0.227271433163294 
1625	 0.227255201352004 
1626	 0.227315621324956 
1627	 0.227386733046499 
1628	 0.227472210923083 
1629	 0.227603515780708 
1630	 0.22765399538988 
1631	 0.227672429909094 
1632	 0.227693977320979 
1633	 0.227649534657848 
1634	 0.22769747469455 
1635	 0.227786319222475 
1636	 0.227897741034055 
1637	 0.228062314009891 
1638	 0.228181204182492 
1639	 0.228327052229356 
1640	 0.22839182896515 
1641	 0.228391502219442 
1642	 0.228451908600967 
1643	 0.228476360445108 
1644	 0.22857818266122 
1645	 0.228752520578335 
1646	 0.228873116460483 
1647	 0.229017899199629 
1648	 0.229098197842474 
1649	 0.229138413229982 
1650	 0.229156533295552 
1651	 0.229130308769401 
1652	 0.229146818559751 
1653	 0.229149370780848 
1654	 0.229191112394443 
1655	 0.229249944999315 
1656	 0.229340344612309 
1657	 0.229482363816508 
1658	 0.229487055069193 
1659	 0.229575425630931 
1660	 0.229605380118451 
1661	 0.229591747348981 
1662	 0.229623670221742 
1663	 0.22961456446726 
1664	 0.229585109459334 
1665	 0.229577793715612 
1666	 0.229644727876457 
1667	 0.229783747610298 
1668	 0.229890164604791 
1669	 0.229938181618636 
1670	 0.230005492448 
1671	 0.230020071561465 
1672	 0.230010897207157 
1673	 0.230128256459088 
1674	 0.230199531202506 
1675	 0.230247322323872 
1676	 0.230236147235381 
1677	 0.230127100464932 
1678	 0.230202457868859 
1679	 0.230280642082157 
1680	 0.230358926062274 
1681	 0.230538785818658 
1682	 0.230557499641384 
1683	 0.230475134425051 
1684	 0.230432107377812 
1685	 0.230332366092174 
1686	 0.230183401619166 
1687	 0.230155678085716 
1688	 0.230316767723138 
1689	 0.230519563107605 
1690	 0.230632639773925 
1691	 0.230672635323113 
1692	 0.230408434735024 
1693	 0.230364571032162 
1694	 0.230521259397528 
1695	 0.230584423820148 
1696	 0.230715787769291 
1697	 0.230783600885098 
1698	 0.230766481519532 
1699	 0.230729536662001 
1700	 0.230635760614125 
1701	 0.230583591837975 
1702	 0.230483422898852 
1703	 0.230465258545414 
1704	 0.230551047573893 
1705	 0.23060808551464 
1706	 0.230714516694195 
1707	 0.230754623295111 
1708	 0.230731225669118 
1709	 0.230731310383389 
1710	 0.230654925930552 
1711	 0.230698553462467 
1712	 0.230886622436959 
1713	 0.230955374707042 
1714	 0.231043525620566 
1715	 0.231087765575192 
1716	 0.231074306992025 
1717	 0.231010406667992 
1718	 0.230817180332729 
1719	 0.230793304036749 
1720	 0.230743932833135 
1721	 0.230800150398446 
1722	 0.231167334895454 
1723	 0.231231434916042 
1724	 0.231102303899521 
1725	 0.231176123667884 
1726	 0.231224734238983 
1727	 0.231270515596381 
1728	 0.231496750300843 
1729	 0.231509503830717 
1730	 0.231262358826813 
1731	 0.231375440649599 
1732	 0.231491683333952 
1733	 0.231592121425489 
1734	 0.231673664713882 
1735	 0.231636853854597 
1736	 0.231668073403665 
1737	 0.231795266042544 
1738	 0.231900708668202 
1739	 0.23191183197821 
1740	 0.231872914695908 
1741	 0.231793159472344 
1742	 0.231687702153661 
1743	 0.231646313545422 
1744	 0.231575817203734 
1745	 0.231505370393676 
1746	 0.231533545463693 
1747	 0.231608853341126 
1748	 0.23166386196105 
1749	 0.231660190366288 
1750	 0.231622904076398 
1751	 0.231562865718942 
1752	 0.231487167013049 
1753	 0.231426364497403 
1754	 0.23146770926687 
1755	 0.231579096619772 
1756	 0.231561608929916 
1757	 0.231664119330662 
1758	 0.231782984898313 
1759	 0.23191564219235 
1760	 0.232071421011886 
1761	 0.23227643555841 
1762	 0.232295341405224 
1763	 0.232205560146327 
1764	 0.232163570691032 
1765	 0.231955398977205 
1766	 0.232009211657449 
1767	 0.232299740082731 
1768	 0.232410306009842 
1769	 0.232560196442489 
1770	 0.232754137544955 
1771	 0.232869090977669 
1772	 0.233021161041989 
1773	 0.233346014795597 
1774	 0.233240779639217 
1775	 0.233009614350271 
1776	 0.232689518143369 
1777	 0.232673397255232 
1778	 0.232686296875965 
1779	 0.232718638545063 
1780	 0.232862635767268 
1781	 0.232752948751143 
1782	 0.232933871858653 
1783	 0.233287759629876 
1784	 0.233413145230927 
1785	 0.23356150329245 
1786	 0.23347063235557 
1787	 0.233254318729633 
1788	 0.233320885492418 
1789	 0.233500824813136 
1790	 0.233592716444699 
1791	 0.23369928212015 
1792	 0.233637978129376 
1793	 0.233244795535904 
1794	 0.233017085030909 
1795	 0.233066173635694 
1796	 0.23293135381154 
1797	 0.233050890524272 
1798	 0.233693947676613 
1799	 0.233853577912037 
1800	 0.233800070945002 
1801	 0.232798249298875 
1802	 0.231998093636102 
1803	 0.231847803502821 
1804	 0.231204452466788 
1805	 0.230983734710002 
1806	 0.231742365196818 
1807	 0.232504188904391 
1808	 0.23325169674019 
1809	 0.234642087770422 
1810	 0.23507799362273 
1811	 0.235462628324643 
1812	 0.236161356078914 
1813	 0.23623125000431 
1814	 0.236051117132506 
1815	 0.236243109819546 
1816	 0.236492384975517 
1817	 0.235664282739701 
1818	 0.235091491134029 
1819	 0.234734866235614 
1820	 0.235428132831194 
1821	 0.235893829803057 
1822	 0.236375975104854 
1823	 0.236105184606127 
1824	 0.236285751337247 
1825	 0.235990390552914 
1826	 0.232444551244374 
1827	 0.23074278344343 
1828	 0.2298545225372 
1829	 0.230159779744836 
1830	 0.233249498260045 
1831	 0.245867487046374 
1832	 0.250402128074872 
1833	 0.253834305396373 
1834	 0.257826035032393 
1835	 0.231717401668954 
1836	 0.227014151962735 
1837	 0.268999734115212 
1838	 0.279403003847502 
1839	 0.278894805702683 
1840	 0.265487933286866 
1841	 0.266385582812408 
1842	 0.242073740443158 
1843	 0.242049384903911 
1844	 0.271848430612434 
1845	 0.284595763095056 
1846	 0.293361792603245 
1847	 0.298445694353194 
1848	 0.301851266660724 
1849	 0.319476538815429 
1850	 0.298072879573793 
1851	 0.244098220217075 
1852	 0.221171643756717 
1853	 0.174430088952379 
1854	 0.16334077197186 
1855	 0.189645936222029 
1856	 0.204483427978333 
1857	 0.235713067958393 
1858	 0.25313952142488 
1859	 0.249342216594513 
1860	 0.228573515277709 
1861	 0.222707574707594 
1862	 0.197034244478617 
1863	 0.200651559904199 
1864	 0.239365178902186 
1865	 0.250050564155018 
1866	 0.259878883038372 
1867	 0.260114421569134 
1868	 0.24646387881183 
1869	 0.261644810079049 
1870	 0.271103596816422 
1871	 0.30181913512071 
1872	 0.302534083965143 
1873	 0.285898208811469 
1874	 0.280164269767802 
1875	 0.274191499908548 
1876	 0.267151342052481 
1877	 0.2664277094994 
1878	 0.255428568823323 
1879	 0.256537400463748 
1880	 0.25563838142728 
1881	 0.253076324751571 
1882	 0.254710732377042 
1883	 0.25270412933726 
1884	 0.244918125923281 
1885	 0.241247686947086 
1886	 0.241277916946569 
1887	 0.236178993136896 
1888	 0.231321331390292 
1889	 0.22927185168711 
1890	 0.228537490165911 
1891	 0.230812264046484 
1892	 0.230550463980557 
1893	 0.231197941029506 
1894	 0.230113789171992 
1895	 0.22338855758742 
1896	 0.219811924150845 
1897	 0.22024478230494 
1898	 0.218564560822167 
1899	 0.201158311437238 
1900	 0.189783950511323 
1901	 0.188963659973397 
1902	 0.190304225255747 
1903	 0.198412514038332 
1904	 0.246494150594632 
1905	 0.266515533700049 
1906	 0.269528250646939 
1907	 0.262293105656376 
1908	 0.269738863861434 
1909	 0.255659518599503 
1910	 0.235983112205468 
1911	 0.231751553859103 
1912	 0.226652075402171 
1913	 0.217889964960327 
1914	 0.216193588464326 
1915	 0.221931810686739 
1916	 0.220301650785306 
1917	 0.215440941903272 
1918	 0.214558009991338 
1919	 0.214204259210417 
1920	 0.212613803515248 
1921	 0.214128638606604 
1922	 0.215292916334529 
1923	 0.214630641552363 
1924	 0.211952877136096 
1925	 0.211859592338609 
1926	 0.211710056735665 
1927	 0.212191372496883 
1928	 0.214187022787052 
1929	 0.216176893289218 
1930	 0.215770214181727 
1931	 0.214183406534068 
1932	 0.213348527808206 
1933	 0.212457609138567 
1934	 0.212948727137892 
1935	 0.214823094800747 
1936	 0.215355966867855 
1937	 0.215981301184258 
1938	 0.216938217990938 
1939	 0.217271910284083 
1940	 0.218564172364858 
1941	 0.220133539043505 
1942	 0.219169951697617 
1943	 0.218438348687141 
1944	 0.218033473839619 
1945	 0.21765076999798 
1946	 0.218573965439237 
1947	 0.218512258557324 
1948	 0.217841641136684 
1949	 0.217689663454238 
1950	 0.217546530237053 
1951	 0.216784350093455 
1952	 0.217246139523228 
1953	 0.218815571231206 
1954	 0.220115826635887 
1955	 0.221588882633748 
1956	 0.223137257490003 
1957	 0.223450411756492 
1958	 0.223608757917527 
1959	 0.223218997738611 
1960	 0.223246007169047 
1961	 0.22287529882956 
1962	 0.223113652103637 
1963	 0.223755447483949 
1964	 0.224485539464744 
1965	 0.225509754270101 
1966	 0.226110288224799 
1967	 0.22672005486956 
1968	 0.227178817691735 
1969	 0.227274879616317 
1970	 0.227027775623775 
1971	 0.226988029552779 
1972	 0.226828385492785 
1973	 0.226619730023232 
1974	 0.226626523576834 
1975	 0.226791483149534 
1976	 0.227142026383254 
1977	 0.227422535417832 
1978	 0.227517534256615 
1979	 0.227904606404622 
1980	 0.228342999735609 
1981	 0.228420860055607 
1982	 0.228746392826764 
1983	 0.229301513782939 
1984	 0.229797428212321 
1985	 0.230124544276628 
1986	 0.230854448605614 
1987	 0.231206697343663 
1988	 0.231179790302237 
1989	 0.231206341346826 
1990	 0.231095787858839 
1991	 0.231345134566583 
1992	 0.231869610986153 
1993	 0.232336244471996 
1994	 0.232665827531284 
1995	 0.232837172770615 
1996	 0.232746022056084 
1997	 0.232596263885991 
1998	 0.232394362573563 
1999	 0.232952920025513 
2000	 0.233845293821621 
2001	 0.234383137929548 
2002	 0.235657883071571 
2003	 0.236716315030225 
2004	 0.237175661074196 
2005	 0.237562145509408 
2006	 0.2376788657274 
2007	 0.237238876967214 
2008	 0.236630375541558 
2009	 0.236501639510486 
2010	 0.236855799847108 
2011	 0.237294316296942 
2012	 0.23746065120364 
2013	 0.237711992225871 
2014	 0.237891558973493 
2015	 0.238507386388197 
2016	 0.239211773055972 
2017	 0.239366121928811 
2018	 0.240147473619333 
2019	 0.240442062588254 
2020	 0.240499698634095 
2021	 0.240309734175485 
2022	 0.240356512669301 
2023	 0.239666444010099 
2024	 0.239185189520091 
2025	 0.238936183287361 
2026	 0.238844102694804 
2027	 0.238868368384416 
2028	 0.2387017531676 
2029	 0.238745159498824 
2030	 0.238852332441952 
2031	 0.239158807510636 
2032	 0.239369373439003 
2033	 0.239803202334538 
2034	 0.239982774495467 
2035	 0.239828965640266 
2036	 0.239490015129927 
2037	 0.239409116553817 
2038	 0.239544813080903 
2039	 0.239664491179659 
2040	 0.239778079969857 
2041	 0.239925587317573 
2042	 0.239975694010743 
2043	 0.239964973405617 
2044	 0.240188007453146 
2045	 0.240406227695737 
2046	 0.240728465494055 
2047	 0.240598236650288 
2048	 0.240480657451915 
2049	 0.240716351727325 
2050	 0.240563251087029 
2051	 0.24066620992478 
2052	 0.240913199171047 
2053	 0.240499665761995 
2054	 0.240313627798732 
2055	 0.2402527594546 
2056	 0.240152976491454 
2057	 0.240484568564762 
2058	 0.240771447915196 
2059	 0.240831602914561 
2060	 0.240662501043141 
2061	 0.240867873140875 
2062	 0.240960721539738 
2063	 0.240822498680525 
2064	 0.24106604098011 
2065	 0.241231623465347 
2066	 0.241675004049874 
2067	 0.242210684154059 
2068	 0.242332838030592 
2069	 0.242484013796059 
2070	 0.242525794057695 
2071	 0.242401848303653 
2072	 0.24247015914225 
2073	 0.2427984682432 
2074	 0.243022132408394 
2075	 0.24287684370781 
2076	 0.242858665445961 
2077	 0.242609978712152 
2078	 0.242339347111615 
2079	 0.242344798221125 
2080	 0.242412506171978 
2081	 0.242734268189133 
2082	 0.243188149723087 
2083	 0.243468577192383 
2084	 0.243679075144039 
2085	 0.243798623435586 
2086	 0.243729195277189 
2087	 0.24380110268392 
2088	 0.243987576106621 
2089	 0.244105286725202 
2090	 0.244118501998488 
2091	 0.244147193972988 
2092	 0.244056309291636 
2093	 0.244079880990513 
2094	 0.243964859553605 
2095	 0.244023890897755 
2096	 0.244338562115349 
2097	 0.244454474821141 
2098	 0.244611666247284 
2099	 0.244580606673641 
2100	 0.244359351108243 
2101	 0.244248738675233 
2102	 0.244400817695378 
2103	 0.244800662206879 
2104	 0.245230635021282 
2105	 0.245384403422845 
2106	 0.245524573816418 
2107	 0.245171463520498 
2108	 0.245050030836652 
2109	 0.245336047341795 
2110	 0.2455285639363 
2111	 0.245867935360881 
2112	 0.246057260907917 
2113	 0.246241168949657 
2114	 0.246380831442185 
2115	 0.246700227174335 
2116	 0.24720885854202 
2117	 0.247514714697208 
2118	 0.247892507719143 
2119	 0.248073476939989 
2120	 0.248096661151111 
2121	 0.247883644791413 
2122	 0.247774456818727 
2123	 0.247567900291363 
2124	 0.247388508910644 
2125	 0.247295038549093 
2126	 0.247097399513467 
2127	 0.247098684425081 
2128	 0.247114129965401 
2129	 0.24734182706998 
2130	 0.247726777161986 
2131	 0.247657043059754 
2132	 0.247577067781684 
2133	 0.247694930695649 
2134	 0.247867399668375 
2135	 0.248029554980396 
2136	 0.248463476742698 
2137	 0.248683002494394 
2138	 0.24846181382654 
2139	 0.248040297553994 
2140	 0.247634235355359 
2141	 0.247460786830903 
2142	 0.247445595493563 
2143	 0.247457889992216 
2144	 0.247375792951312 
2145	 0.247381577781949 
2146	 0.247486045809565 
2147	 0.247504671872176 
2148	 0.247441786138427 
2149	 0.247219115459974 
2150	 0.246872169009155 
2151	 0.246634761509772 
2152	 0.246326287354007 
2153	 0.246255197177396 
2154	 0.246418198561236 
2155	 0.246495355331407 
2156	 0.246325788863557 
2157	 0.245979153118146 
2158	 0.245815566281923 
2159	 0.245433327135773 
2160	 0.24530574761147 
2161	 0.245388423722536 
2162	 0.245242854826574 
2163	 0.245127203554967 
2164	 0.244698237414891 
2165	 0.244426473547584 
2166	 0.244446134729745 
2167	 0.244495813759814 
2168	 0.244516369883468 
2169	 0.245033528022149 
2170	 0.244853635578109 
2171	 0.24421916957203 
2172	 0.243621212337007 
2173	 0.243017187579627 
2174	 0.242514872051845 
2175	 0.242436972494121 
2176	 0.242386445469711 
2177	 0.242336075634432 
2178	 0.242475220093091 
2179	 0.242422821089369 
2180	 0.242285505397638 
2181	 0.242174423086756 
2182	 0.241888002869592 
2183	 0.241457262096274 
2184	 0.241240758906731 
2185	 0.240937616069396 
2186	 0.240648561547493 
2187	 0.24068775005838 
2188	 0.24118439367544 
2189	 0.241154992216573 
2190	 0.241117982596166 
2191	 0.24099896521249 
2192	 0.240580452620104 
2193	 0.240448555427617 
2194	 0.240245078334023 
2195	 0.24010163720752 
2196	 0.240099611573127 
2197	 0.239568626315142 
2198	 0.239229594923229 
2199	 0.239561495481427 
2200	 0.239429436473064 
2201	 0.239151609081779 
2202	 0.239514874452764 
2203	 0.239354299917167 
2204	 0.239086067134299 
2205	 0.239229129753788 
2206	 0.238928204797048 
2207	 0.238652160657051 
2208	 0.238351361471761 
2209	 0.237977112033937 
2210	 0.237855576482528 
2211	 0.237784010935815 
2212	 0.237583214093486 
2213	 0.238265952075938 
2214	 0.238738643556863 
2215	 0.239006742859128 
2216	 0.23961286466321 
2217	 0.239388776537532 
2218	 0.23918810249733 
2219	 0.239023272897897 
2220	 0.238801635044917 
2221	 0.238963202181648 
2222	 0.238835780589078 
2223	 0.23902334066616 
2224	 0.239283909564159 
2225	 0.239330185391524 
2226	 0.239955557067147 
2227	 0.240083002015324 
2228	 0.239962546323784 
2229	 0.240214411110672 
2230	 0.239814794715646 
2231	 0.239610689392141 
2232	 0.239472615323235 
2233	 0.239374042661841 
2234	 0.239039758370779 
2235	 0.239636421516128 
2236	 0.240252116155975 
2237	 0.240672541487452 
2238	 0.240774130436666 
2239	 0.240526666478352 
2240	 0.239944472017473 
2241	 0.239519365109678 
2242	 0.239402180129487 
2243	 0.239182671297988 
2244	 0.239466069874627 
2245	 0.239533048781218 
2246	 0.239466003231603 
2247	 0.239238795838311 
2248	 0.238630117076993 
2249	 0.238773677879354 
2250	 0.239144312919199 
2251	 0.23948147841625 
2252	 0.239855802861955 
2253	 0.23988465057784 
2254	 0.239733619001938 
2255	 0.239719369150917 
2256	 0.239741980209936 
2257	 0.239807452965465 
2258	 0.23961246306931 
2259	 0.239301050272645 
2260	 0.238705403069843 
2261	 0.238352170156733 
2262	 0.238245679426537 
2263	 0.238188847745755 
2264	 0.238509951801395 
2265	 0.238164511152227 
2266	 0.237661756078319 
2267	 0.238069298526909 
2268	 0.238562861761187 
2269	 0.239406285284465 
2270	 0.240209947608419 
2271	 0.239887198779178 
2272	 0.239500813556668 
2273	 0.239083195453405 
2274	 0.238455075159902 
2275	 0.238485292684586 
2276	 0.238456600026897 
2277	 0.238352000020284 
2278	 0.238660347479951 
2279	 0.238483134564362 
2280	 0.23819424088642 
2281	 0.237767186433148 
2282	 0.236889480330714 
2283	 0.236569341042539 
2284	 0.237073477280474 
2285	 0.237870462343268 
2286	 0.238035693560649 
2287	 0.238196589695322 
2288	 0.238026487915173 
2289	 0.237673760015416 
2290	 0.237138094033459 
2291	 0.237356590231389 
2292	 0.237859108285887 
2293	 0.237687423519336 
2294	 0.237245822195161 
2295	 0.237240829783134 
2296	 0.237163761675475 
2297	 0.236263722014325 
2298	 0.236466118859763 
2299	 0.237714096410925 
2300	 0.237971664443282 
2301	 0.23849080030287 
2302	 0.238899985352014 
2303	 0.237964314281441 
2304	 0.237524045323446 
2305	 0.238092614324397 
2306	 0.239070149050528 
2307	 0.239665966821595 
2308	 0.239755369055704 
2309	 0.239730926552435 
2310	 0.238874200198117 
2311	 0.238430309021776 
2312	 0.238647078627863 
2313	 0.238651822970647 
2314	 0.239216738366943 
2315	 0.239918080912623 
2316	 0.239999695479171 
2317	 0.240302504322239 
2318	 0.240295307305058 
2319	 0.239930487796687 
2320	 0.239898144979907 
2321	 0.239369469866712 
2322	 0.23814443590233 
2323	 0.238159056101046 
2324	 0.238329646824733 
2325	 0.238471404399287 
2326	 0.240878675065286 
2327	 0.241987116551823 
2328	 0.242112921919593 
2329	 0.241899314051642 
2330	 0.239920197573655 
2331	 0.239215192509462 
2332	 0.239124505366931 
2333	 0.239291675559615 
2334	 0.240545326144716 
2335	 0.240322517096528 
2336	 0.23978428993655 
2337	 0.239724490913771 
2338	 0.239628088289015 
2339	 0.240121484475697 
2340	 0.23987197509794 
2341	 0.239267747238399 
2342	 0.23915435169296 
2343	 0.239638426819538 
2344	 0.240945095784673 
2345	 0.242283387776185 
2346	 0.242591409230679 
2347	 0.241737271066151 
2348	 0.23991943175615 
2349	 0.238947397246354 
2350	 0.239773430512394 
2351	 0.239779277784434 
2352	 0.240156148383822 
2353	 0.241488996572873 
2354	 0.241379919755186 
2355	 0.242066773684273 
2356	 0.243986570148272 
2357	 0.244527900095868 
2358	 0.244210387637766 
2359	 0.244355151246392 
2360	 0.244360000329236 
2361	 0.243686169314667 
2362	 0.244339249178974 
2363	 0.245579351502875 
2364	 0.245445541646684 
2365	 0.245421309201872 
2366	 0.245248929848083 
2367	 0.245158186299738 
2368	 0.245037919010133 
2369	 0.245248821107813 
2370	 0.247260540853531 
2371	 0.247571696102145 
2372	 0.247406981243199 
2373	 0.247428938366158 
2374	 0.247076525135463 
2375	 0.244894530292938 
2376	 0.243777515560849 
2377	 0.243136559789283 
2378	 0.242735423240744 
2379	 0.242940023142125 
2380	 0.242927908378967 
2381	 0.243023579528344 
2382	 0.242698881211234 
2383	 0.241793468800032 
2384	 0.241365505007796 
2385	 0.241069888524339 
2386	 0.241018938741843 
2387	 0.241111046914085 
2388	 0.241176527570409 
2389	 0.242109953482025 
2390	 0.242044313695368 
2391	 0.241007335751696 
2392	 0.240999733619051 
2393	 0.2406362203682 
2394	 0.240356764585749 
2395	 0.241518225439622 
2396	 0.241507496016225 
2397	 0.240659925008943 
2398	 0.239756768761182 
2399	 0.237423503674466 
2400	 0.237058328480145 
2401	 0.237436113654715 
2402	 0.238330184003283 
2403	 0.238133780389743 
2404	 0.239151289901602 
2405	 0.237563156249791 
2406	 0.235257001466403 
2407	 0.235464699244722 
2408	 0.235498855108021 
2409	 0.236053342741736 
2410	 0.23635136777129 
2411	 0.238153231411099 
2412	 0.237310059295173 
2413	 0.23627762899761 
2414	 0.23848546109023 
2415	 0.239684352209686 
2416	 0.24053981387427 
2417	 0.238486369910259 
2418	 0.235197528169263 
2419	 0.234859833982944 
2420	 0.235333922332748 
2421	 0.236083036506086 
2422	 0.237321011670713 
2423	 0.235866270077475 
2424	 0.235010383015839 
2425	 0.236679469774059 
2426	 0.238519949442625 
2427	 0.237404950741433 
2428	 0.235335025768069 
2429	 0.234622468368912 
2430	 0.230337801688968 
2431	 0.229563864103973 
2432	 0.230129114491778 
2433	 0.228041018079099 
2434	 0.228643074377357 
2435	 0.23106605825867 
2436	 0.231890403398647 
2437	 0.233399149063393 
2438	 0.233565990642972 
2439	 0.23260757757168 
2440	 0.231867231173473 
2441	 0.230184360464373 
2442	 0.228962040832626 
2443	 0.226321729296013 
2444	 0.22387079752466 
2445	 0.222032459709607 
2446	 0.22237263327529 
2447	 0.224875195741857 
2448	 0.226940731907082 
2449	 0.231704119282764 
2450	 0.233126780635133 
2451	 0.231597392979387 
2452	 0.22935749144635 
2453	 0.224642546758317 
2454	 0.221693458398434 
2455	 0.217031968873889 
2456	 0.218150521646912 
2457	 0.225649529227758 
2458	 0.228000634441941 
2459	 0.231796619505377 
2460	 0.232151447636039 
2461	 0.224719682237863 
2462	 0.222621486511543 
2463	 0.22330790975137 
2464	 0.223077601346487 
2465	 0.224955564769543 
2466	 0.227806986497774 
2467	 0.231773902936626 
2468	 0.232000550224346 
2469	 0.231940108316532 
2470	 0.22919850264898 
2471	 0.219006770955528 
2472	 0.213790575744329 
2473	 0.209993221791459 
2474	 0.209132142969683 
2475	 0.212984637505421 
2476	 0.211919735072618 
2477	 0.207830002995928 
2478	 0.211226428951734 
2479	 0.220244798960641 
2480	 0.223794469309418 
2481	 0.237245133099756 
2482	 0.239998736965928 
2483	 0.220292779933527 
2484	 0.211956290470671 
2485	 0.206942725927643 
2486	 0.194884848934725 
2487	 0.197198001843221 
2488	 0.188076774440379 
2489	 0.197377249434089 
2490	 0.213840745161768 
2491	 0.212179448288363 
2492	 0.211097205996252 
2493	 0.22127628323879 
2494	 0.271565064959831 
2495	 0.310884886960128 
2496	 0.324854888328374 
2497	 0.356237847022818 
2498	 0.367413256488823 
2499	 0.343671791810054 
2500	 0.332748539206358 
