Wavelength	ref00043.asd
350	 2.87254652547342E-02 
351	 2.93454282627065E-02 
352	 2.84579313571231E-02 
353	 0.027704161804352 
354	 2.79808049097839E-02 
355	 2.83065795547658E-02 
356	 2.82053739930357E-02 
357	 2.90966175371387E-02 
358	 2.93775463686907E-02 
359	 2.90305951683478E-02 
360	 2.87162149167963E-02 
361	 2.95774741361512E-02 
362	 3.02559180656917E-02 
363	 3.02821367963581E-02 
364	 2.99382430316386E-02 
365	 2.98788531375185E-02 
366	 0.030070483113474 
367	 3.03917825765307E-02 
368	 3.07577155867708E-02 
369	 3.10564546599715E-02 
370	 3.10748165469331E-02 
371	 3.08466070930403E-02 
372	 3.12150153900045E-02 
373	 0.031240398690303 
374	 0.031120788526707 
375	 3.14798886835735E-02 
376	 0.031286717851699 
377	 3.13830807163063E-02 
378	 3.20160159180789E-02 
379	 3.25312316963008E-02 
380	 3.24799993747035E-02 
381	 3.24397717447461E-02 
382	 3.28221440112634E-02 
383	 3.29380775677381E-02 
384	 3.31087206745901E-02 
385	 3.32847444816191E-02 
386	 3.33075961063831E-02 
387	 3.33529593131995E-02 
388	 0.033705045385104 
389	 3.42329718866998E-02 
390	 3.44117200856978E-02 
391	 0.034783507046375 
392	 3.50373679091231E-02 
393	 3.50517791378962E-02 
394	 0.035479730141988 
395	 3.58514314951982E-02 
396	 3.60301073379712E-02 
397	 3.61079680853311E-02 
398	 3.66822978756875E-02 
399	 3.70318348561867E-02 
400	 3.70810607733979E-02 
401	 3.73206783414219E-02 
402	 3.76384685846383E-02 
403	 3.78641020533054E-02 
404	 3.79946194766029E-02 
405	 3.83904463504645E-02 
406	 3.88100954840889E-02 
407	 3.90573238856576E-02 
408	 3.90394926568689E-02 
409	 3.90669706367862E-02 
410	 3.93385381890439E-02 
411	 3.97266608061975E-02 
412	 3.98763903808743E-02 
413	 4.03939227047911E-02 
414	 0.040763204821148 
415	 4.07422056670225E-02 
416	 4.10090795109968E-02 
417	 4.12837849143364E-02 
418	 4.15102387182267E-02 
419	 4.16997744896226E-02 
420	 4.18456905847609E-02 
421	 4.20347801337459E-02 
422	 4.22609443739085E-02 
423	 4.24437558574901E-02 
424	 4.27406178029116E-02 
425	 4.29571340528801E-02 
426	 4.30160340021469E-02 
427	 4.31998635127947E-02 
428	 4.35560961083009E-02 
429	 4.37975364865213E-02 
430	 0.043705444750939 
431	 4.40583150399776E-02 
432	 4.44165467189086E-02 
433	 4.45999705827732E-02 
434	 0.044718545828365 
435	 4.48151515056175E-02 
436	 4.49733430632281E-02 
437	 4.52002356697717E-02 
438	 4.53502337633701E-02 
439	 4.54764813795984E-02 
440	 4.55377888759718E-02 
441	 4.55136734864918E-02 
442	 4.56357988220673E-02 
443	 4.58401320141289E-02 
444	 4.60675262023433E-02 
445	 4.62847354188146E-02 
446	 4.64799123985728E-02 
447	 4.65901955288425E-02 
448	 4.66270415574417E-02 
449	 4.67946076062327E-02 
450	 4.69781259574675E-02 
451	 4.71252211150687E-02 
452	 4.72271767524587E-02 
453	 4.73916601963245E-02 
454	 4.74806805516119E-02 
455	 4.75122898090562E-02 
456	 4.77018826097299E-02 
457	 4.78546788042687E-02 
458	 4.79158239683554E-02 
459	 4.79216936362317E-02 
460	 4.80683892267836E-02 
461	 4.82645994191297E-02 
462	 0.048371188733165 
463	 4.82705788133512E-02 
464	 0.048243186907481 
465	 4.83553965618113E-02 
466	 4.85563176315647E-02 
467	 4.86668752863631E-02 
468	 4.86780122536824E-02 
469	 4.86912454338218E-02 
470	 4.88080474295339E-02 
471	 4.89906139312325E-02 
472	 4.91491997607578E-02 
473	 4.92439465301265E-02 
474	 4.92862093088928E-02 
475	 4.93959573739699E-02 
476	 0.049480925618493 
477	 4.95227296022177E-02 
478	 4.97052305230344E-02 
479	 0.049829279871313 
480	 4.99438626333516E-02 
481	 5.01434962207451E-02 
482	 5.03045876112108E-02 
483	 0.050423622903696 
484	 5.05447278225042E-02 
485	 5.07439520783558E-02 
486	 5.08438495884038E-02 
487	 0.050926244237451 
488	 5.10992005919275E-02 
489	 0.051417706442535 
490	 5.16138277591154E-02 
491	 5.17621753901262E-02 
492	 5.20388198457189E-02 
493	 5.21670705126943E-02 
494	 5.24008711889063E-02 
495	 5.27555061951988E-02 
496	 5.29126025358921E-02 
497	 5.32248425993218E-02 
498	 5.35855183462734E-02 
499	 5.38581572205472E-02 
500	 5.41837698722197E-02 
501	 5.46272095712088E-02 
502	 5.50478328806372E-02 
503	 5.52368061263083E-02 
504	 5.56442186447809E-02 
505	 0.056063062089919 
506	 5.64186728066147E-02 
507	 5.69895269329873E-02 
508	 5.74769632928665E-02 
509	 5.78938183522091E-02 
510	 5.83555670227665E-02 
511	 5.89644045173726E-02 
512	 5.96436187144113E-02 
513	 6.03021044052449E-02 
514	 6.08607926418576E-02 
515	 6.15180324322318E-02 
516	 6.23103276165096E-02 
517	 6.31908211097553E-02 
518	 6.40095043115097E-02 
519	 0.064824705545861 
520	 6.56450682691201E-02 
521	 6.64676193315414E-02 
522	 0.067316273345603 
523	 6.81193470026242E-02 
524	 6.88689814720517E-02 
525	 6.96246162396456E-02 
526	 7.02835028227836E-02 
527	 7.10738673282803E-02 
528	 7.20651473846253E-02 
529	 7.26092079430599E-02 
530	 7.32203280468016E-02 
531	 7.39169262587588E-02 
532	 7.44660126116932E-02 
533	 7.50661446100827E-02 
534	 7.56686144254134E-02 
535	 7.61745918317709E-02 
536	 7.64409767111266E-02 
537	 7.68985293149837E-02 
538	 7.73698394043774E-02 
539	 7.76038903170816E-02 
540	 7.79455862124379E-02 
541	 7.83524046055176E-02 
542	 7.87065631492815E-02 
543	 7.88669676245898E-02 
544	 7.91903241727995E-02 
545	 7.95630345221678E-02 
546	 7.98583024083634E-02 
547	 8.00897860016593E-02 
548	 8.04402772211088E-02 
549	 8.08360164412025E-02 
550	 8.11159460035827E-02 
551	 8.13522150188585E-02 
552	 8.15664217407589E-02 
553	 8.17521132898103E-02 
554	 8.18729404656275E-02 
555	 8.19401080687413E-02 
556	 8.19638241436585E-02 
557	 8.19577926447555E-02 
558	 8.19534692643819E-02 
559	 8.18790051250954E-02 
560	 8.16973130814458E-02 
561	 8.14230100925109E-02 
562	 8.13178951127411E-02 
563	 8.10925339043062E-02 
564	 8.06647249215401E-02 
565	 8.04507549169615E-02 
566	 0.080148610495819 
567	 7.97839497187874E-02 
568	 7.94590556322319E-02 
569	 7.91054491418489E-02 
570	 7.87496924538982E-02 
571	 7.84227140366329E-02 
572	 7.81469584422306E-02 
573	 7.77749687231818E-02 
574	 7.75052337934811E-02 
575	 7.74149358118358E-02 
576	 7.71059304548933E-02 
577	 7.68955538690756E-02 
578	 7.67593659683857E-02 
579	 7.65381361000216E-02 
580	 0.076363096726484 
581	 7.62121810303896E-02 
582	 0.076073386194717 
583	 7.59646811811519E-02 
584	 7.59528092061293E-02 
585	 7.60028892211143E-02 
586	 0.076052935917533 
587	 7.60510910114146E-02 
588	 7.61228282925725E-02 
589	 7.62087796139051E-02 
590	 7.61395316808004E-02 
591	 7.62180161241451E-02 
592	 7.62948784335293E-02 
593	 7.62735695072421E-02 
594	 0.076253430210041 
595	 7.63491904586715E-02 
596	 7.64526029266967E-02 
597	 7.64391154902804E-02 
598	 7.65315772475612E-02 
599	 0.076690576222649 
600	 7.68605867121151E-02 
601	 7.69867535272591E-02 
602	 7.71503894813238E-02 
603	 7.73143772326924E-02 
604	 0.077425755384601 
605	 0.077443554660401 
606	 0.077495842592258 
607	 7.75715212089414E-02 
608	 7.76040199393781E-02 
609	 7.76946834443164E-02 
610	 7.77870065165228E-02 
611	 7.78248636096599E-02 
612	 0.077774474222548 
613	 7.77992003642641E-02 
614	 7.78331008945215E-02 
615	 7.77918221027196E-02 
616	 7.77817735987471E-02 
617	 7.77250291369957E-02 
618	 7.76589084613702E-02 
619	 7.76909122475122E-02 
620	 7.77514150233309E-02 
621	 0.077861225781869 
622	 7.79955360077788E-02 
623	 7.80131299447205E-02 
624	 7.80458573348417E-02 
625	 7.81297742761602E-02 
626	 7.82608324416052E-02 
627	 7.84236586685411E-02 
628	 7.85904253599716E-02 
629	 7.87384627974745E-02 
630	 7.88539685415842E-02 
631	 7.90293716548231E-02 
632	 7.91652444336901E-02 
633	 7.92019306673133E-02 
634	 0.079272216212567 
635	 7.93741476947127E-02 
636	 7.94476924413663E-02 
637	 7.94359028425876E-02 
638	 0.079531665474436 
639	 7.96099384538438E-02 
640	 7.95815903730738E-02 
641	 7.94382897940532E-02 
642	 0.079366093797167 
643	 7.93369811394718E-02 
644	 7.93081061738962E-02 
645	 7.94065398244173E-02 
646	 0.079434889405291 
647	 7.93806148583274E-02 
648	 7.93583118976076E-02 
649	 7.94560250750924E-02 
650	 7.95817064792848E-02 
651	 7.96770917435714E-02 
652	 7.97807607174229E-02 
653	 7.99955442529446E-02 
654	 8.01864970058172E-02 
655	 8.02329959633318E-02 
656	 8.03877626659551E-02 
657	 8.06453936575404E-02 
658	 8.08843676087763E-02 
659	 8.09755613770453E-02 
660	 8.10064720112064E-02 
661	 8.10934268625976E-02 
662	 8.12576875639239E-02 
663	 8.13301360856526E-02 
664	 8.15338396051951E-02 
665	 0.08182055970864 
666	 8.20678973993916E-02 
667	 8.23040344184517E-02 
668	 8.25226442540059E-02 
669	 0.082758406403919 
670	 8.30839882982335E-02 
671	 8.35090041608682E-02 
672	 0.083911799903175 
673	 8.42485611928216E-02 
674	 8.47279050253314E-02 
675	 8.52156349544703E-02 
676	 8.57264950263785E-02 
677	 8.63054977975553E-02 
678	 8.68415135500922E-02 
679	 8.74641615648387E-02 
680	 8.81535832171016E-02 
681	 8.87283607448103E-02 
682	 8.93486901045178E-02 
683	 9.00801749545151E-02 
684	 9.08812124486773E-02 
685	 9.14470291879163E-02 
686	 9.22504452655647E-02 
687	 9.33409726919301E-02 
688	 9.44139587000385E-02 
689	 9.51928747433286E-02 
690	 0.095910881574104 
691	 9.68381856878006E-02 
692	 0.098138197642886 
693	 9.94577056928318E-02 
694	 0.101008415597309 
695	 0.102929676795317 
696	 0.10487302645863 
697	 0.107039017335512 
698	 0.109446999694775 
699	 0.112012711950875 
700	 0.1145935821962 
701	 0.117513766299441 
702	 0.120722916363375 
703	 0.123688330897091 
704	 0.126761528654465 
705	 0.129900564568155 
706	 0.133076453333117 
707	 0.136426716923873 
708	 0.139751379590276 
709	 0.14309767743163 
710	 0.146586012014691 
711	 0.150121365671679 
712	 0.153770775099194 
713	 0.157494618648705 
714	 0.161134378496168 
715	 0.165017705832582 
716	 0.16914665661285 
717	 0.17358445459228 
718	 0.178405048408576 
719	 0.183002032240253 
720	 0.187417982789841 
721	 0.192002727532441 
722	 0.196093588249487 
723	 0.200515684390713 
724	 0.205621870956334 
725	 0.210593492051029 
726	 0.215524984075833 
727	 0.22042601601278 
728	 0.225422056616664 
729	 0.230481133863989 
730	 0.235534526313241 
731	 0.240440466681695 
732	 0.245125358796384 
733	 0.249771704542549 
734	 0.254386421492945 
735	 0.259008268738988 
736	 0.263593015421559 
737	 0.268096643185264 
738	 0.272419636897433 
739	 0.276589584661435 
740	 0.280718061154222 
741	 0.284650820327715 
742	 0.288315005067556 
743	 0.29167915442376 
744	 0.294878903343769 
745	 0.297956469279597 
746	 0.300832551537396 
747	 0.303359593222863 
748	 0.305740363877606 
749	 0.308103664269819 
750	 0.310379199952498 
751	 0.312184406859361 
752	 0.313912915143363 
753	 0.315550773125316 
754	 0.317010889265111 
755	 0.318363780735999 
756	 0.31967602493658 
757	 0.320973177803322 
758	 0.322326538431102 
759	 0.324223586735771 
760	 0.326997010360849 
761	 0.330118333706356 
762	 0.330802703963511 
763	 0.330347853540956 
764	 0.329687156625072 
765	 0.329182723221109 
766	 0.328737888644707 
767	 0.328494067065883 
768	 0.328364154687949 
769	 0.328253965311192 
770	 0.328289162597664 
771	 0.32848633037783 
772	 0.328758690138629 
773	 0.328949202312686 
774	 0.329142133797057 
775	 0.329387271803878 
776	 0.329646353484915 
777	 0.329743815339036 
778	 0.329815842179089 
779	 0.329988523250509 
780	 0.330306099796055 
781	 0.330577769306424 
782	 0.330727859093546 
783	 0.330871771533003 
784	 0.331180976087639 
785	 0.331424693549385 
786	 0.331654429611976 
787	 0.331875029794835 
788	 0.33202399122839 
789	 0.332246385966396 
790	 0.332497597367269 
791	 0.332715686917659 
792	 0.332874162408183 
793	 0.333188056809503 
794	 0.333465214012623 
795	 0.333544337889437 
796	 0.333961900151919 
797	 0.334193360886786 
798	 0.334251015188021 
799	 0.334447885371369 
800	 0.334640864920905 
801	 0.334848046539384 
802	 0.335060074094293 
803	 0.335235410741214 
804	 0.335573488516201 
805	 0.335893932647718 
806	 0.336055696861428 
807	 0.336149072994447 
808	 0.336323213151658 
809	 0.336502931075466 
810	 0.336633359892346 
811	 0.337077722650357 
812	 0.337397237961711 
813	 0.337560132670727 
814	 0.337782607708264 
815	 0.338062605314501 
816	 0.338468071166563 
817	 0.33886567125029 
818	 0.338960861913493 
819	 0.339181683692114 
820	 0.339428504846498 
821	 0.339577391368352 
822	 0.339608349454465 
823	 0.339894820410146 
824	 0.340318268846617 
825	 0.340663015857446 
826	 0.340959303075366 
827	 0.341084907384585 
828	 0.341138817245105 
829	 0.341281980489352 
830	 0.341440498470271 
831	 0.34174613837186 
832	 0.342061601981355 
833	 0.342112410393405 
834	 0.342267160970187 
835	 0.342529230957999 
836	 0.342870991992186 
837	 0.343272820613571 
838	 0.343431490598439 
839	 0.343663279466661 
840	 0.344066971425517 
841	 0.344073789381004 
842	 0.344087302952844 
843	 0.344344880928259 
844	 0.344850791050583 
845	 0.345061331986612 
846	 0.345168409000333 
847	 0.345323586668431 
848	 0.345603580053168 
849	 0.345794683832959 
850	 0.345891000158137 
851	 0.346031293176136 
852	 0.346378072777947 
853	 0.346404295094006 
854	 0.346603984434486 
855	 0.347084131374232 
856	 0.347411914899562 
857	 0.347892617632739 
858	 0.348145762737295 
859	 0.348103267074308 
860	 0.348307990803551 
861	 0.348580706867198 
862	 0.348913991553267 
863	 0.349214191141805 
864	 0.349063435562106 
865	 0.34910414151988 
866	 0.349408598639585 
867	 0.349782079175201 
868	 0.349899766235056 
869	 0.350211679254683 
870	 0.350527658293003 
871	 0.350505980911089 
872	 0.350685092537683 
873	 0.350871688066851 
874	 0.350995685656606 
875	 0.351126301553679 
876	 0.351475358756901 
877	 0.351819654332717 
878	 0.352112470025577 
879	 0.352501509492044 
880	 0.352747587316012 
881	 0.352821785219307 
882	 0.352849393465404 
883	 0.353091729241431 
884	 0.353416177193686 
885	 0.35367157491516 
886	 0.353804664594654 
887	 0.35394583332153 
888	 0.353972920203375 
889	 0.354226652506176 
890	 0.354774949230905 
891	 0.354727799439019 
892	 0.354813849578405 
893	 0.355082703655661 
894	 0.35536336351012 
895	 0.355558201753188 
896	 0.355639282065364 
897	 0.355442834951036 
898	 0.355043946970313 
899	 0.355713633218239 
900	 0.356323065299797 
901	 0.356717207563308 
902	 0.357173120764945 
903	 0.356951961092257 
904	 0.356964570076324 
905	 0.357319541328087 
906	 0.357555983205435 
907	 0.357460679924277 
908	 0.357515794420362 
909	 0.357939880094692 
910	 0.35853145300173 
911	 0.358223674983616 
912	 0.358169465939681 
913	 0.358567361321438 
914	 0.358553188793046 
915	 0.358797650176426 
916	 0.359280014601999 
917	 0.359616555164342 
918	 0.359277644002853 
919	 0.359548792112478 
920	 0.359619062331408 
921	 0.359448639168922 
922	 0.360210133881734 
923	 0.359773843777235 
924	 0.359267807804103 
925	 0.359505568173007 
926	 0.359856145466556 
927	 0.359991570336753 
928	 0.359794570913589 
929	 0.35929490137259 
930	 0.358673028888117 
931	 0.358240850909024 
932	 0.357861247890231 
933	 0.357416323686185 
934	 0.357155067321223 
935	 0.35741906854078 
936	 0.35808578682526 
937	 0.358699036970969 
938	 0.358604938195537 
939	 0.35837681779894 
940	 0.358406913899885 
941	 0.358512229027591 
942	 0.357588201873194 
943	 0.357531971081072 
944	 0.357516381626606 
945	 0.356840333568235 
946	 0.356599395234187 
947	 0.357618877992747 
948	 0.357319028397915 
949	 0.35539362045551 
950	 0.357786724575468 
951	 0.357111671888659 
952	 0.355197922201691 
953	 0.354709544189096 
954	 0.354934544444934 
955	 0.354739611412297 
956	 0.354106259503132 
957	 0.353539799357786 
958	 0.353828877739567 
959	 0.352568981511072 
960	 0.351935741222823 
961	 0.353177179723842 
962	 0.35393602260175 
963	 0.354044157952088 
964	 0.35403488071194 
965	 0.354012098737662 
966	 0.353101127048244 
967	 0.35313535057182 
968	 0.353591232570085 
969	 0.353577354325392 
970	 0.352605572281382 
971	 0.352623469999372 
972	 0.353138762381949 
973	 0.353365886905416 
974	 0.352965165319391 
975	 0.352902819000367 
976	 0.353264744185228 
977	 0.353640307484401 
978	 0.353351219582129 
979	 0.353050904596844 
980	 0.352931834568219 
981	 0.353272237183619 
982	 0.354202310421055 
983	 0.352734506142871 
984	 0.352944375674719 
985	 0.354656054700114 
986	 0.353796128180892 
987	 0.354568722195938 
988	 0.355026875506121 
989	 0.354539485462602 
990	 0.354159900740371 
991	 0.355260440329144 
992	 0.35600310250069 
993	 0.35645658384265 
994	 0.357350788199219 
995	 0.355308819180922 
996	 0.354094588132107 
997	 0.354311045807297 
998	 0.355011684192796 
999	 0.357323931611236 
1000	 0.35733200606128 
1001	 0.354988004625378 
1002	 0.355358669200042 
1003	 0.355667954077131 
1004	 0.355839110608276 
1005	 0.35615926730738 
1006	 0.356527199538164 
1007	 0.356797533661035 
1008	 0.357064180778785 
1009	 0.357333802045867 
1010	 0.357485986321082 
1011	 0.357710550741269 
1012	 0.358014090972604 
1013	 0.358613598649673 
1014	 0.359063097373597 
1015	 0.359333198027445 
1016	 0.359724267526203 
1017	 0.35994183467572 
1018	 0.360152479388586 
1019	 0.360255789642446 
1020	 0.360539807640234 
1021	 0.360856574905042 
1022	 0.361194025737874 
1023	 0.361610391498102 
1024	 0.362151454339294 
1025	 0.362502140779527 
1026	 0.362638271169235 
1027	 0.362913340349029 
1028	 0.36328480836389 
1029	 0.363747899414405 
1030	 0.364375012546672 
1031	 0.364949326397283 
1032	 0.365445228100496 
1033	 0.365837940041101 
1034	 0.366052875157325 
1035	 0.366344048407554 
1036	 0.366595096245164 
1037	 0.366886316591902 
1038	 0.367172937044145 
1039	 0.367604219021688 
1040	 0.367961190607712 
1041	 0.368108277889441 
1042	 0.368269309530076 
1043	 0.368417106621053 
1044	 0.368581467117856 
1045	 0.368769649718763 
1046	 0.368962430298596 
1047	 0.369202506952658 
1048	 0.369381106779181 
1049	 0.369583131308878 
1050	 0.369748117903486 
1051	 0.369913505698281 
1052	 0.369980472970728 
1053	 0.3699944553357 
1054	 0.370016038878762 
1055	 0.370039471964441 
1056	 0.370064181570098 
1057	 0.370259590472208 
1058	 0.370343725245853 
1059	 0.370341891608799 
1060	 0.370467887955734 
1061	 0.370482405704574 
1062	 0.370461449426028 
1063	 0.370557276401759 
1064	 0.370534820592159 
1065	 0.370484148836679 
1066	 0.370341605568607 
1067	 0.370393759798029 
1068	 0.370343847968639 
1069	 0.370165731411203 
1070	 0.370172132473577 
1071	 0.370058298312482 
1072	 0.369913605315505 
1073	 0.36996487747362 
1074	 0.369795461077255 
1075	 0.369651353846689 
1076	 0.369658537635918 
1077	 0.36952416301271 
1078	 0.369356007256363 
1079	 0.369224287224648 
1080	 0.369162935513284 
1081	 0.369105096819858 
1082	 0.369086659859147 
1083	 0.369175295510961 
1084	 0.369156851177042 
1085	 0.36897296609968 
1086	 0.368795401265943 
1087	 0.368670368083531 
1088	 0.368740990225623 
1089	 0.368805033534489 
1090	 0.368763950369908 
1091	 0.368701824582443 
1092	 0.368620041137764 
1093	 0.36856766995086 
1094	 0.368595043797367 
1095	 0.368751161279683 
1096	 0.368804038508078 
1097	 0.368784796092919 
1098	 0.368757628145643 
1099	 0.368701440325086 
1100	 0.368613147512927 
1101	 0.36860820511239 
1102	 0.368681089897516 
1103	 0.368636796752279 
1104	 0.368551638107671 
1105	 0.368493604593109 
1106	 0.3683992070846 
1107	 0.368401956387944 
1108	 0.368490341284536 
1109	 0.368458954534564 
1110	 0.368335431066354 
1111	 0.36823573890598 
1112	 0.368130123414708 
1113	 0.367984825142731 
1114	 0.36771870279674 
1115	 0.367565486068772 
1116	 0.367503292306653 
1117	 0.367238402569083 
1118	 0.367056931467558 
1119	 0.367161263158346 
1120	 0.367114713380137 
1121	 0.367085137692301 
1122	 0.36699615751393 
1123	 0.366997335728372 
1124	 0.366740672948822 
1125	 0.366167178941298 
1126	 0.365773793677257 
1127	 0.36540054772139 
1128	 0.364896800312604 
1129	 0.364477026691992 
1130	 0.36398338924825 
1131	 0.363379645603186 
1132	 0.362727768731945 
1133	 0.362054712103712 
1134	 0.36141831132572 
1135	 0.360612950179929 
1136	 0.359795911093422 
1137	 0.359095587225552 
1138	 0.358307546810676 
1139	 0.357399573915886 
1140	 0.356593975653425 
1141	 0.355491337758641 
1142	 0.354221184009393 
1143	 0.353130225135241 
1144	 0.35201412264381 
1145	 0.350949920053756 
1146	 0.350080586488745 
1147	 0.349021494255911 
1148	 0.34788062571641 
1149	 0.346820657156455 
1150	 0.345702892054133 
1151	 0.344750771693524 
1152	 0.343923115666267 
1153	 0.34319667991697 
1154	 0.342492838970537 
1155	 0.341959954078577 
1156	 0.34161458654391 
1157	 0.341281738553911 
1158	 0.34094023788364 
1159	 0.340636677206792 
1160	 0.340323555560083 
1161	 0.339978136625796 
1162	 0.339623610606384 
1163	 0.339214057127757 
1164	 0.338942413694457 
1165	 0.338702616182783 
1166	 0.338474432640888 
1167	 0.338298161763466 
1168	 0.338184697521022 
1169	 0.338113460314848 
1170	 0.337989089016767 
1171	 0.337895122534275 
1172	 0.337911882988947 
1173	 0.337840137605355 
1174	 0.337700891607724 
1175	 0.337632503036897 
1176	 0.33763071428404 
1177	 0.337570218856348 
1178	 0.33751743936257 
1179	 0.337400490805756 
1180	 0.337228539281681 
1181	 0.337048659661203 
1182	 0.336751469519555 
1183	 0.336636443528876 
1184	 0.33665673194629 
1185	 0.336589714460736 
1186	 0.336546511489494 
1187	 0.336530248427477 
1188	 0.336529450461704 
1189	 0.33640693463007 
1190	 0.336368980838486 
1191	 0.336390271860312 
1192	 0.336292223943731 
1193	 0.336227056033426 
1194	 0.336161027416986 
1195	 0.336114826858592 
1196	 0.336066278206854 
1197	 0.335965549990063 
1198	 0.335972272883507 
1199	 0.336051610810173 
1200	 0.336113648217737 
1201	 0.336225498386374 
1202	 0.336329286192248 
1203	 0.336446302947444 
1204	 0.336530670702453 
1205	 0.336608657900884 
1206	 0.336704559453944 
1207	 0.336780732510274 
1208	 0.3368609286043 
1209	 0.336966624743905 
1210	 0.337046128981092 
1211	 0.337149145706944 
1212	 0.337218389018216 
1213	 0.337393838873251 
1214	 0.337681661892117 
1215	 0.337839814043763 
1216	 0.337961004866129 
1217	 0.338181955073548 
1218	 0.338378865168131 
1219	 0.338597855391648 
1220	 0.338942509182462 
1221	 0.339191272992621 
1222	 0.33935509659581 
1223	 0.339571260733966 
1224	 0.339786489049236 
1225	 0.340025453948507 
1226	 0.340307955061156 
1227	 0.340554750970912 
1228	 0.340741057111105 
1229	 0.341062553011817 
1230	 0.341367937439662 
1231	 0.341483229164476 
1232	 0.341716042416673 
1233	 0.341967059004331 
1234	 0.342227613100821 
1235	 0.342536688064972 
1236	 0.342764964548513 
1237	 0.342922326152279 
1238	 0.343182926989709 
1239	 0.343460777465574 
1240	 0.343722128631455 
1241	 0.344115863812658 
1242	 0.344352777913374 
1243	 0.344417779913295 
1244	 0.344601100141297 
1245	 0.344770944625694 
1246	 0.344969389959472 
1247	 0.345232024220746 
1248	 0.345497044993162 
1249	 0.345842995058127 
1250	 0.346075143358678 
1251	 0.346272648873344 
1252	 0.346405236879398 
1253	 0.346616642703496 
1254	 0.346753008741655 
1255	 0.346985219119289 
1256	 0.347360224127566 
1257	 0.347625556143096 
1258	 0.34785145280385 
1259	 0.348075892585397 
1260	 0.348324535603003 
1261	 0.348485412692668 
1262	 0.348553811070551 
1263	 0.348678000562991 
1264	 0.348736888069728 
1265	 0.348868626715588 
1266	 0.349133092284109 
1267	 0.349269833437208 
1268	 0.349389773744275 
1269	 0.349448593880582 
1270	 0.349385275855324 
1271	 0.349344160986458 
1272	 0.349313093020745 
1273	 0.349209399770422 
1274	 0.349138686334018 
1275	 0.349059650255359 
1276	 0.348994566784122 
1277	 0.34895148702414 
1278	 0.348848754813819 
1279	 0.348752861916279 
1280	 0.348586105598492 
1281	 0.348349598385505 
1282	 0.348118359803635 
1283	 0.347822665163506 
1284	 0.347590004115843 
1285	 0.347387899166525 
1286	 0.347155025271217 
1287	 0.346942724675264 
1288	 0.346709729245654 
1289	 0.346472214670089 
1290	 0.346182796186149 
1291	 0.345887112150257 
1292	 0.345545196113149 
1293	 0.345038169580895 
1294	 0.344668970744039 
1295	 0.34440184692301 
1296	 0.34407743324399 
1297	 0.34372178930032 
1298	 0.343466487565845 
1299	 0.342988202381762 
1300	 0.342316724337158 
1301	 0.341756725865755 
1302	 0.34108659324687 
1303	 0.340595719729244 
1304	 0.340245181955292 
1305	 0.339790262385709 
1306	 0.339414430588438 
1307	 0.338921707322367 
1308	 0.338331311775292 
1309	 0.337726308800002 
1310	 0.337073480353892 
1311	 0.336411792669711 
1312	 0.335691585343171 
1313	 0.334986250616262 
1314	 0.334255828196019 
1315	 0.333560211897778 
1316	 0.332962617138502 
1317	 0.332232735533603 
1318	 0.33144076216854 
1319	 0.330649350767269 
1320	 0.329746065339849 
1321	 0.328812529247399 
1322	 0.327996722519616 
1323	 0.327258092708057 
1324	 0.32644058918579 
1325	 0.325653218676171 
1326	 0.324780175739774 
1327	 0.323835354620321 
1328	 0.32284573598987 
1329	 0.321772767550273 
1330	 0.320716251518958 
1331	 0.319573359161711 
1332	 0.318530028018875 
1333	 0.317562687579458 
1334	 0.316594052824262 
1335	 0.315687191997498 
1336	 0.31475732236177 
1337	 0.313752324081208 
1338	 0.312864433076776 
1339	 0.312045960746332 
1340	 0.311148718561711 
1341	 0.310052966549295 
1342	 0.309209610219566 
1343	 0.308495049873309 
1344	 0.307607419005087 
1345	 0.306736563115695 
1346	 0.305844293195066 
1347	 0.30482349298001 
1348	 0.303551292019614 
1349	 0.302688331550706 
1350	 0.30272916601675 
1351	 0.302158251396667 
1352	 0.301771232466876 
1353	 0.301046440112057 
1354	 0.299846273030551 
1355	 0.298989989276955 
1356	 0.299142034520199 
1357	 0.298093216713183 
1358	 0.2979354658776 
1359	 0.296330226862044 
1360	 0.289209164747746 
1361	 0.286443878168662 
1362	 0.296035130010873 
1363	 0.300811548330919 
1364	 0.316315929868815 
1365	 0.316251504472126 
1366	 0.295272257848713 
1367	 0.284620002675613 
1368	 0.272804970605802 
1369	 0.267899060732228 
1370	 0.268414153949807 
1371	 0.268730060976357 
1372	 0.271703919591299 
1373	 0.271276218438972 
1374	 0.270100782453564 
1375	 0.268051393064802 
1376	 0.266651685151927 
1377	 0.26751352584641 
1378	 0.267510482046978 
1379	 0.271647936175648 
1380	 0.268334012009957 
1381	 0.259741643803805 
1382	 0.254131043637042 
1383	 0.245606150578573 
1384	 0.242041873905901 
1385	 0.244128833872843 
1386	 0.241026180488777 
1387	 0.238544428488496 
1388	 0.233646590299118 
1389	 0.224587808486655 
1390	 0.221177971276513 
1391	 0.219302399789244 
1392	 0.217209597480891 
1393	 0.218089865983858 
1394	 0.216213476780289 
1395	 0.212835496538304 
1396	 0.209697346982977 
1397	 0.205370069917547 
1398	 0.202314866124819 
1399	 0.200645856580424 
1400	 0.197198727338653 
1401	 0.193004832326314 
1402	 0.189816899723392 
1403	 0.185817658264372 
1404	 0.182968047050926 
1405	 0.181380543005396 
1406	 0.180201414265455 
1407	 0.179090001079655 
1408	 0.178070978675032 
1409	 0.176791723366876 
1410	 0.175868097556005 
1411	 0.174923232263734 
1412	 0.174209616622275 
1413	 0.172764084753442 
1414	 0.171183163540664 
1415	 0.169853643501552 
1416	 0.167855318787913 
1417	 0.167157461858109 
1418	 0.167395050895399 
1419	 0.166762508560886 
1420	 0.166160793658577 
1421	 0.165624946534524 
1422	 0.164741798140029 
1423	 0.164134146225653 
1424	 0.163859762747172 
1425	 0.163295594115138 
1426	 0.162364043059672 
1427	 0.161935687242951 
1428	 0.161779450351851 
1429	 0.161476585599749 
1430	 0.161294163892851 
1431	 0.161031460548349 
1432	 0.160547317569637 
1433	 0.160216499798254 
1434	 0.160087187535236 
1435	 0.159831602652168 
1436	 0.159495616778414 
1437	 0.159256772155947 
1438	 0.158927241003454 
1439	 0.158775232260539 
1440	 0.158898138863378 
1441	 0.158811634596885 
1442	 0.158679348575875 
1443	 0.158608488957049 
1444	 0.158242285927385 
1445	 0.158006481847439 
1446	 0.158044119136377 
1447	 0.157987037982151 
1448	 0.157981041185408 
1449	 0.158108040023375 
1450	 0.15811996183622 
1451	 0.158021864156065 
1452	 0.158053487055179 
1453	 0.158164746721409 
1454	 0.158172965784719 
1455	 0.158141851944027 
1456	 0.158192131607451 
1457	 0.15823514027207 
1458	 0.158299958722804 
1459	 0.158436136562334 
1460	 0.158554007596207 
1461	 0.158624799364041 
1462	 0.158776968506868 
1463	 0.158992358599863 
1464	 0.159243056090353 
1465	 0.159603792945368 
1466	 0.159886313617002 
1467	 0.160139108113287 
1468	 0.160470501542354 
1469	 0.16078374297465 
1470	 0.161105156073571 
1471	 0.161359926822578 
1472	 0.161818580912112 
1473	 0.162414862965529 
1474	 0.162895542356379 
1475	 0.163510647049296 
1476	 0.163986952319145 
1477	 0.164211183610474 
1478	 0.164572032281603 
1479	 0.164901397419369 
1480	 0.165376350460853 
1481	 0.165980511274592 
1482	 0.166539314830895 
1483	 0.167211274003122 
1484	 0.167782912782639 
1485	 0.16813352055439 
1486	 0.168678440289412 
1487	 0.169326682678921 
1488	 0.169935292315609 
1489	 0.170453958667313 
1490	 0.17117997085902 
1491	 0.171786108465554 
1492	 0.172345337437359 
1493	 0.172936943621977 
1494	 0.173466133298626 
1495	 0.174039659643462 
1496	 0.174544201658038 
1497	 0.175148533925728 
1498	 0.175869217060833 
1499	 0.17649806871746 
1500	 0.177138008311243 
1501	 0.177731823757355 
1502	 0.178240232729168 
1503	 0.178921171383777 
1504	 0.179650263669741 
1505	 0.180361449841835 
1506	 0.181186069018792 
1507	 0.181924721553157 
1508	 0.182626551400169 
1509	 0.183270379891527 
1510	 0.183841289890489 
1511	 0.184520905493456 
1512	 0.185183360352387 
1513	 0.185872530877478 
1514	 0.186689003332846 
1515	 0.187415372666697 
1516	 0.188047049098074 
1517	 0.188776844323015 
1518	 0.189608748439639 
1519	 0.190314126032739 
1520	 0.190977153080361 
1521	 0.191670994965565 
1522	 0.192266713617219 
1523	 0.192979058495074 
1524	 0.193859943135646 
1525	 0.194575221690433 
1526	 0.195210247509115 
1527	 0.195911250266382 
1528	 0.19655857310433 
1529	 0.197244804504693 
1530	 0.197993313322751 
1531	 0.198750154439851 
1532	 0.199550032393722 
1533	 0.200268649187615 
1534	 0.201020611344695 
1535	 0.201696763549111 
1536	 0.202170240569327 
1537	 0.202816725965705 
1538	 0.203542211029333 
1539	 0.204252928149732 
1540	 0.205082614839459 
1541	 0.205826744265473 
1542	 0.206497981425979 
1543	 0.207190526031045 
1544	 0.207887770615012 
1545	 0.208557464922184 
1546	 0.209179912560109 
1547	 0.209855302398508 
1548	 0.210564002886745 
1549	 0.211232530913484 
1550	 0.211935159891339 
1551	 0.212608964886759 
1552	 0.213188221854138 
1553	 0.21383150693137 
1554	 0.214520249977345 
1555	 0.215200981035082 
1556	 0.215989526508863 
1557	 0.216639509583203 
1558	 0.217125948621823 
1559	 0.2177163667643 
1560	 0.218303756481043 
1561	 0.218865089772927 
1562	 0.219517872074294 
1563	 0.220128079062851 
1564	 0.220657734087554 
1565	 0.221168820550796 
1566	 0.221807362926759 
1567	 0.222399897831532 
1568	 0.223012569561839 
1569	 0.223664376974999 
1570	 0.224249071296831 
1571	 0.224784667553695 
1572	 0.225382732162257 
1573	 0.225961352187104 
1574	 0.226597255666143 
1575	 0.22732004354578 
1576	 0.227891564554069 
1577	 0.228411839740008 
1578	 0.228936001977487 
1579	 0.229375878862285 
1580	 0.229856707656872 
1581	 0.230370749291166 
1582	 0.230839410583798 
1583	 0.231228545954719 
1584	 0.231768188151396 
1585	 0.232370762742149 
1586	 0.232950041279161 
1587	 0.233644149544804 
1588	 0.234162122497896 
1589	 0.234549430228046 
1590	 0.235088849573637 
1591	 0.235632632976406 
1592	 0.236172055767538 
1593	 0.23680263826748 
1594	 0.237356965959284 
1595	 0.237870366339241 
1596	 0.238325821264867 
1597	 0.238738009889475 
1598	 0.239221201684067 
1599	 0.239649963297037 
1600	 0.240133385866345 
1601	 0.240715047959544 
1602	 0.241259864377541 
1603	 0.241783731771251 
1604	 0.242290272562989 
1605	 0.242822034244243 
1606	 0.243324594745058 
1607	 0.243767471282089 
1608	 0.244226562939216 
1609	 0.244739512734214 
1610	 0.245128054010052 
1611	 0.245383455545201 
1612	 0.245805887368202 
1613	 0.246262373071752 
1614	 0.246669026279174 
1615	 0.247147574960973 
1616	 0.247578357115782 
1617	 0.247932359586958 
1618	 0.248290008676086 
1619	 0.248636006952655 
1620	 0.249095320344264 
1621	 0.249583073820693 
1622	 0.250010011606901 
1623	 0.250596367268311 
1624	 0.250912653670155 
1625	 0.250940328038415 
1626	 0.251250836818642 
1627	 0.251612273535002 
1628	 0.251942251526475 
1629	 0.25238238266152 
1630	 0.252757689275661 
1631	 0.253075336636005 
1632	 0.253361750161094 
1633	 0.253688706394093 
1634	 0.253942657106025 
1635	 0.254048265703074 
1636	 0.254304686935299 
1637	 0.254619550766907 
1638	 0.254936735106286 
1639	 0.255296816313813 
1640	 0.255637699581114 
1641	 0.256016202161688 
1642	 0.256306900702147 
1643	 0.256570608883747 
1644	 0.256828568209465 
1645	 0.257036505397409 
1646	 0.257198242283427 
1647	 0.257300993441633 
1648	 0.257512434403013 
1649	 0.257691330031294 
1650	 0.257977387478713 
1651	 0.258467781441625 
1652	 0.258676664905898 
1653	 0.258779547980588 
1654	 0.258909688342145 
1655	 0.258968241006482 
1656	 0.258953156168 
1657	 0.258872845533021 
1658	 0.258964360991662 
1659	 0.258945656519609 
1660	 0.25910135316815 
1661	 0.25939728535527 
1662	 0.259554157500719 
1663	 0.259780681288934 
1664	 0.259989605252899 
1665	 0.260149829036093 
1666	 0.260160230885289 
1667	 0.259917372259156 
1668	 0.259802808035322 
1669	 0.259756924067009 
1670	 0.259783209574321 
1671	 0.260026033585189 
1672	 0.260175437369633 
1673	 0.26024797231811 
1674	 0.260395474441462 
1675	 0.260451559487923 
1676	 0.260227840012311 
1677	 0.260099346786035 
1678	 0.260081028006013 
1679	 0.2598654505981 
1680	 0.259931443474969 
1681	 0.260056784026651 
1682	 0.259839196212421 
1683	 0.259711114522262 
1684	 0.259688366422268 
1685	 0.259638134185954 
1686	 0.259677009180635 
1687	 0.259711839935033 
1688	 0.25957111513378 
1689	 0.259301154291786 
1690	 0.259299616969283 
1691	 0.25918090182731 
1692	 0.258987212541001 
1693	 0.258900452850082 
1694	 0.258816171765609 
1695	 0.258626971709147 
1696	 0.25848154068886 
1697	 0.258409557714697 
1698	 0.258358414661655 
1699	 0.258143945343458 
1700	 0.257839093003905 
1701	 0.257653825768769 
1702	 0.257369408520656 
1703	 0.257081952271294 
1704	 0.256996045472801 
1705	 0.256791884057566 
1706	 0.256367750778948 
1707	 0.256111083452387 
1708	 0.25597482883742 
1709	 0.255776174116909 
1710	 0.255674607188784 
1711	 0.255375490559878 
1712	 0.254908520572611 
1713	 0.254518573446664 
1714	 0.254010326887455 
1715	 0.25362850737693 
1716	 0.253374215462667 
1717	 0.253067435343445 
1718	 0.252816394043317 
1719	 0.252403325864142 
1720	 0.251916666230666 
1721	 0.251454585894435 
1722	 0.250795437512957 
1723	 0.250415483758477 
1724	 0.250171880010498 
1725	 0.249969266937252 
1726	 0.250063242107196 
1727	 0.249755000640246 
1728	 0.24918876570228 
1729	 0.248860592667224 
1730	 0.248413311896545 
1731	 0.248165708059736 
1732	 0.248124947245301 
1733	 0.247838195619475 
1734	 0.247535979560468 
1735	 0.247561567331367 
1736	 0.247578466030218 
1737	 0.247591736836147 
1738	 0.247554200780718 
1739	 0.247285724200598 
1740	 0.247049066903894 
1741	 0.246661375577969 
1742	 0.246240096615704 
1743	 0.245921740126555 
1744	 0.245402517398358 
1745	 0.245083332069854 
1746	 0.244829691983632 
1747	 0.244486088423042 
1748	 0.244228973751941 
1749	 0.243869370869691 
1750	 0.24347496079798 
1751	 0.243003118749361 
1752	 0.242562824940121 
1753	 0.242172795109787 
1754	 0.24180240821533 
1755	 0.241485969585669 
1756	 0.24103697380683 
1757	 0.24061419750997 
1758	 0.24034606676344 
1759	 0.240364140143089 
1760	 0.240136328328391 
1761	 0.239902795907544 
1762	 0.239431057754971 
1763	 0.238412188806643 
1764	 0.237909360274271 
1765	 0.237608549718579 
1766	 0.237338775628074 
1767	 0.237391508194009 
1768	 0.237385442529735 
1769	 0.23738824401852 
1770	 0.237288054906553 
1771	 0.237288490435024 
1772	 0.237045098732308 
1773	 0.236455186923098 
1774	 0.236095406603236 
1775	 0.235855196229545 
1776	 0.235705438941543 
1777	 0.235424614607731 
1778	 0.235272339799687 
1779	 0.235247880160322 
1780	 0.235112430885261 
1781	 0.235138376492555 
1782	 0.234846343069667 
1783	 0.234305536914489 
1784	 0.234290593507116 
1785	 0.23433378626779 
1786	 0.234474964698873 
1787	 0.23477431819849 
1788	 0.234474943907828 
1789	 0.234378676424887 
1790	 0.234573261339406 
1791	 0.234623508826158 
1792	 0.235110857913268 
1793	 0.235169863608921 
1794	 0.234529892029893 
1795	 0.234101985887351 
1796	 0.234124586689503 
1797	 0.23427291796747 
1798	 0.234935997521626 
1799	 0.236181605338814 
1800	 0.235816255956903 
1801	 0.235696571026765 
1802	 0.23602635597916 
1803	 0.236309405346549 
1804	 0.238029239860656 
1805	 0.23855317665153 
1806	 0.23723646506682 
1807	 0.237597982017264 
1808	 0.238512371100415 
1809	 0.240067301511838 
1810	 0.241098106260355 
1811	 0.243693837374233 
1812	 0.244286604434375 
1813	 0.241753953239701 
1814	 0.241975570717136 
1815	 0.244018150677453 
1816	 0.244254128792432 
1817	 0.246042226772225 
1818	 0.246109653143967 
1819	 0.244468053213845 
1820	 0.23721063484831 
1821	 0.235177184362371 
1822	 0.233949796051868 
1823	 0.233770979613942 
1824	 0.238604837870672 
1825	 0.240938632871998 
1826	 0.243167834518625 
1827	 0.246056738405431 
1828	 0.249293872902662 
1829	 0.254875658210047 
1830	 0.25342651031158 
1831	 0.243356870952578 
1832	 0.23664930084819 
1833	 0.209225206922947 
1834	 0.196824092034888 
1835	 0.212536382304575 
1836	 0.226056369588519 
1837	 0.276299404769355 
1838	 0.308599844904208 
1839	 0.331020239836736 
1840	 0.348635734701891 
1841	 0.334074564469807 
1842	 0.24509118383138 
1843	 0.250990764738838 
1844	 0.286407072673232 
1845	 0.304764329782427 
1846	 0.400265512065625 
1847	 0.434881492793281 
1848	 0.440502707602274 
1849	 0.394810463614072 
1850	 0.364885846509187 
1851	 0.290756068692242 
1852	 0.253172956333483 
1853	 0.228574834030482 
1854	 0.216418576396219 
1855	 0.251656535007677 
1856	 0.237947883103374 
1857	 0.212414463756301 
1858	 0.17332509311602 
1859	 0.150438770969971 
1860	 0.101973188597376 
1861	 9.47896862258945E-02 
1862	 0.113855512939816 
1863	 0.125574238298903 
1864	 0.153381781846468 
1865	 0.172980709448757 
1866	 0.200453525987305 
1867	 0.220738139764931 
1868	 0.212254462211947 
1869	 0.204793764347943 
1870	 0.210062094123344 
1871	 0.207667265841028 
1872	 0.209991798551303 
1873	 0.24880706041533 
1874	 0.245723687085166 
1875	 0.224324846692207 
1876	 0.206410243291536 
1877	 0.183644808158912 
1878	 0.163376654631249 
1879	 0.151914548421053 
1880	 0.157945561981334 
1881	 0.161236287062212 
1882	 0.178497092706145 
1883	 0.172706988484807 
1884	 0.155064956118679 
1885	 0.147732935011377 
1886	 0.128281875072353 
1887	 0.124848135787079 
1888	 0.144478999755716 
1889	 0.156023604061648 
1890	 0.158934354800114 
1891	 0.16598654306726 
1892	 0.162293962671051 
1893	 0.132396016560112 
1894	 0.1287905644582 
1895	 0.141465931411428 
1896	 0.141830327704871 
1897	 0.14608362684621 
1898	 0.155477130011773 
1899	 0.159409293796141 
1900	 0.149933186613831 
1901	 0.145989099685267 
1902	 0.14740990619624 
1903	 0.15848609084435 
1904	 0.178416712928117 
1905	 0.184873399514085 
1906	 0.202405317333527 
1907	 0.211566654736975 
1908	 0.184737823182925 
1909	 0.146810021981101 
1910	 0.126380011513891 
1911	 0.113869253407321 
1912	 0.106658460215775 
1913	 0.103065027745637 
1914	 0.103101422621617 
1915	 0.107311369000236 
1916	 0.10718884191393 
1917	 0.107439087898122 
1918	 0.105626740444729 
1919	 0.103523757898882 
1920	 0.106691882189721 
1921	 0.109421451155875 
1922	 0.11154331867094 
1923	 0.115305953816946 
1924	 0.121834356129476 
1925	 0.123455144594335 
1926	 0.125408002633785 
1927	 0.12632742519166 
1928	 0.125579241591097 
1929	 0.121440038509625 
1930	 0.120739681056096 
1931	 0.119376746117383 
1932	 0.11980040595631 
1933	 0.121252824578061 
1934	 0.121787650210479 
1935	 0.122992917499822 
1936	 0.123762019361267 
1937	 0.123924954077903 
1938	 0.123560936062506 
1939	 0.123002220519816 
1940	 0.122693834736882 
1941	 0.122568908889161 
1942	 0.124310131553621 
1943	 0.125701374822846 
1944	 0.126804607326615 
1945	 0.126990984791833 
1946	 0.125357438519146 
1947	 0.124790862396274 
1948	 0.124445933752887 
1949	 0.123957135984906 
1950	 0.122772697832455 
1951	 0.123422981157421 
1952	 0.124580747841311 
1953	 0.126771469693928 
1954	 0.129598086136632 
1955	 0.130763528904467 
1956	 0.131276997584861 
1957	 0.130722285896621 
1958	 0.130240439303836 
1959	 0.129071417951815 
1960	 0.128953699727649 
1961	 0.128909343788533 
1962	 0.129334558288692 
1963	 0.129767455428851 
1964	 0.130311347276784 
1965	 0.131009467091272 
1966	 0.131509082893256 
1967	 0.132044095113469 
1968	 0.132556210793993 
1969	 0.132869648559763 
1970	 0.132957460842469 
1971	 0.132795004582018 
1972	 0.132388037017674 
1973	 0.132401878582911 
1974	 0.13197524441206 
1975	 0.132322981990243 
1976	 0.132978847029495 
1977	 0.13308439912842 
1978	 0.133739764935583 
1979	 0.134316498294025 
1980	 0.134298065228891 
1981	 0.134759528137356 
1982	 0.135104918191026 
1983	 0.13533230997819 
1984	 0.135282419589826 
1985	 0.135780500637077 
1986	 0.136010837137724 
1987	 0.136100245895053 
1988	 0.136488553941653 
1989	 0.136784352407257 
1990	 0.137099662022706 
1991	 0.137630284486412 
1992	 0.138255596063866 
1993	 0.13859839266849 
1994	 0.138906027704195 
1995	 0.139080614453285 
1996	 0.138969322450555 
1997	 0.13854409515052 
1998	 0.138546592911129 
1999	 0.138610194486518 
2000	 0.13898861750109 
2001	 0.140178493896231 
2002	 0.141398784873291 
2003	 0.14200624681293 
2004	 0.14283099459311 
2005	 0.143659836469706 
2006	 0.14463618107779 
2007	 0.145450555624269 
2008	 0.147281122258385 
2009	 0.147995381804667 
2010	 0.147720282897083 
2011	 0.147226103533453 
2012	 0.14658711271431 
2013	 0.147053967635123 
2014	 0.147925386109391 
2015	 0.148584086703027 
2016	 0.149053250423064 
2017	 0.14933084159979 
2018	 0.149585129435275 
2019	 0.150018302482754 
2020	 0.150630391374151 
2021	 0.151206781219179 
2022	 0.151510007798125 
2023	 0.151673745948627 
2024	 0.151719423779626 
2025	 0.151981111327019 
2026	 0.15230708514992 
2027	 0.152608061229893 
2028	 0.152786409285633 
2029	 0.152720133052538 
2030	 0.152613728544452 
2031	 0.15252083885766 
2032	 0.152716138150152 
2033	 0.153136094667151 
2034	 0.153608689097102 
2035	 0.153964771354779 
2036	 0.154488278852517 
2037	 0.154901523174449 
2038	 0.1554505227073 
2039	 0.156106775078293 
2040	 0.156557922479919 
2041	 0.156914096087539 
2042	 0.157176752310921 
2043	 0.157498324591303 
2044	 0.15778474536084 
2045	 0.157942526168703 
2046	 0.158013441369468 
2047	 0.158025213691565 
2048	 0.157989797166236 
2049	 0.158460278760208 
2050	 0.159243388819098 
2051	 0.159511809942663 
2052	 0.159824078167871 
2053	 0.160015537423346 
2054	 0.160080884686327 
2055	 0.160410053459856 
2056	 0.160611947186367 
2057	 0.1609040854595 
2058	 0.161200825540715 
2059	 0.161539302670986 
2060	 0.161966085340639 
2061	 0.162639004083733 
2062	 0.163087066976429 
2063	 0.163737907449299 
2064	 0.164228606759829 
2065	 0.164145948549913 
2066	 0.164382089548526 
2067	 0.164263480370526 
2068	 0.164249764293181 
2069	 0.164813837902725 
2070	 0.165174396729498 
2071	 0.165699074743236 
2072	 0.165990073373034 
2073	 0.165990779707648 
2074	 0.166519345833257 
2075	 0.167378404638402 
2076	 0.167709191562428 
2077	 0.168325536414135 
2078	 0.168328056636143 
2079	 0.167994697490596 
2080	 0.168111415049419 
2081	 0.168360841592962 
2082	 0.168706195823595 
2083	 0.169112135253903 
2084	 0.169216326728409 
2085	 0.169292745456523 
2086	 0.169806892234542 
2087	 0.170289274616582 
2088	 0.17085733790154 
2089	 0.171443474104463 
2090	 0.171924963782182 
2091	 0.172255291594832 
2092	 0.172482576357691 
2093	 0.172485472377384 
2094	 0.172722265754383 
2095	 0.173250873033871 
2096	 0.17389736341397 
2097	 0.174615748270368 
2098	 0.175308052944707 
2099	 0.175631628124703 
2100	 0.175798885937535 
2101	 0.176293561174934 
2102	 0.176598595561831 
2103	 0.17691538934324 
2104	 0.177088535435379 
2105	 0.177002439655394 
2106	 0.176888903676829 
2107	 0.177245974199912 
2108	 0.177972927918555 
2109	 0.17877603474605 
2110	 0.179261241894864 
2111	 0.179879162369936 
2112	 0.180094127048078 
2113	 0.179782848924539 
2114	 0.180128478996249 
2115	 0.180031361327584 
2116	 0.179778142487563 
2117	 0.18010221044806 
2118	 0.181061826613424 
2119	 0.181749188454784 
2120	 0.182646414525871 
2121	 0.183525907056979 
2122	 0.183932674759529 
2123	 0.184018245127567 
2124	 0.183973692226458 
2125	 0.184183468641859 
2126	 0.184562123219594 
2127	 0.185129356112527 
2128	 0.18575211259702 
2129	 0.185882859041816 
2130	 0.185869510011305 
2131	 0.185662986263985 
2132	 0.185502913169684 
2133	 0.185868517762554 
2134	 0.186201586381641 
2135	 0.186760975496774 
2136	 0.187386236558873 
2137	 0.187866319994409 
2138	 0.188050543912476 
2139	 0.187888709441729 
2140	 0.188233436791093 
2141	 0.188557722718536 
2142	 0.188412821312699 
2143	 0.189201145107329 
2144	 0.189665450177932 
2145	 0.189722056806726 
2146	 0.190144517032113 
2147	 0.190228592135173 
2148	 0.1903260342317 
2149	 0.190118974910026 
2150	 0.189967746842395 
2151	 0.190002871529864 
2152	 0.189688940856355 
2153	 0.189646706115934 
2154	 0.189937456072809 
2155	 0.190742086786794 
2156	 0.190925569080336 
2157	 0.191096214061835 
2158	 0.19117857531968 
2159	 0.190907976340194 
2160	 0.190157601200979 
2161	 0.189859369461769 
2162	 0.190316162275275 
2163	 0.189967015273386 
2164	 0.189947109194267 
2165	 0.190492896677489 
2166	 0.190578635538482 
2167	 0.190892567403991 
2168	 0.191235687719666 
2169	 0.191905333815035 
2170	 0.192154002928415 
2171	 0.192179412499265 
2172	 0.192193829791918 
2173	 0.19244120857262 
2174	 0.192186053600511 
2175	 0.191854579664386 
2176	 0.191795196702461 
2177	 0.191562821675263 
2178	 0.19192292183235 
2179	 0.192521250647621 
2180	 0.192716628217031 
2181	 0.192611577844976 
2182	 0.192063188858091 
2183	 0.19161681939051 
2184	 0.19185413335327 
2185	 0.19273573553977 
2186	 0.193647891879253 
2187	 0.194211322296226 
2188	 0.194891529285368 
2189	 0.194979022118969 
2190	 0.194498597820188 
2191	 0.194056752706066 
2192	 0.193721111913431 
2193	 0.193460893575956 
2194	 0.193556392527921 
2195	 0.193622286824182 
2196	 0.193657593276645 
2197	 0.194113080973201 
2198	 0.19422494522015 
2199	 0.194652921643793 
2200	 0.195096891646873 
2201	 0.194792915244927 
2202	 0.194559211218832 
2203	 0.193955454356061 
2204	 0.193959892195691 
2205	 0.194559827136233 
2206	 0.195001129576296 
2207	 0.195850767144344 
2208	 0.19620730461756 
2209	 0.196028162259917 
2210	 0.195639909750206 
2211	 0.194927290922499 
2212	 0.194437466026094 
2213	 0.194161768990685 
2214	 0.194163718700061 
2215	 0.194566338724719 
2216	 0.195277351703659 
2217	 0.195363941894182 
2218	 0.194900301846445 
2219	 0.194920271603119 
2220	 0.19461149949636 
2221	 0.194329416188364 
2222	 0.19486469888916 
2223	 0.195433008010754 
2224	 0.196005242779547 
2225	 0.196119813652354 
2226	 0.196179468326645 
2227	 0.195974922611785 
2228	 0.195028858629397 
2229	 0.19481195729277 
2230	 0.19472328842902 
2231	 0.194546829874101 
2232	 0.194804312495977 
2233	 0.194872230650997 
2234	 0.194734000346654 
2235	 0.194438912814166 
2236	 0.194429097776867 
2237	 0.193724643235277 
2238	 0.19332934280677 
2239	 0.193015917709113 
2240	 0.192634367842849 
2241	 0.192898504251972 
2242	 0.193116868699459 
2243	 0.19321169627574 
2244	 0.193315717321802 
2245	 0.192984556877452 
2246	 0.192742327440284 
2247	 0.193192536226672 
2248	 0.193037261369376 
2249	 0.192899983814927 
2250	 0.192370800329055 
2251	 0.190526196887089 
2252	 0.190078777198457 
2253	 0.189919250434704 
2254	 0.18928990750243 
2255	 0.190075022583253 
2256	 0.190191428706904 
2257	 0.189767060411124 
2258	 0.189096190147484 
2259	 0.189239437305469 
2260	 0.188361925718755 
2261	 0.187276950444994 
2262	 0.187100529961285 
2263	 0.187280686295788 
2264	 0.187903119943412 
2265	 0.188686997414582 
2266	 0.188339368891019 
2267	 0.187938858890179 
2268	 0.187690842853029 
2269	 0.187181785169745 
2270	 0.187534752656286 
2271	 0.187468839361151 
2272	 0.186060570290901 
2273	 0.184829684460246 
2274	 0.183885532354125 
2275	 0.182418955115719 
2276	 0.18177778818098 
2277	 0.182026733328539 
2278	 0.181617488667045 
2279	 0.181544316809737 
2280	 0.182192485038217 
2281	 0.182177139195341 
2282	 0.18222262220298 
2283	 0.183047961111771 
2284	 0.182520895152542 
2285	 0.182118521668527 
2286	 0.182293308805786 
2287	 0.183098666755408 
2288	 0.182565552817005 
2289	 0.181993974863886 
2290	 0.181381286048768 
2291	 0.179634172463585 
2292	 0.178358650566299 
2293	 0.178602279079514 
2294	 0.178638297350397 
2295	 0.178738096846464 
2296	 0.178457431639397 
2297	 0.178123869582159 
2298	 0.178512323829306 
2299	 0.178325026817589 
2300	 0.1792863911528 
2301	 0.179677065262814 
2302	 0.178342729739632 
2303	 0.177881592340712 
2304	 0.177478254012161 
2305	 0.176646969057189 
2306	 0.176439259291519 
2307	 0.17712048892939 
2308	 0.177609998429569 
2309	 0.1778848732029 
2310	 0.177997991775389 
2311	 0.176425938870803 
2312	 0.174828138724587 
2313	 0.174287714014719 
2314	 0.174246284598269 
2315	 0.174178439647508 
2316	 0.173842761654212 
2317	 0.173212547599348 
2318	 0.171017601993392 
2319	 0.170261151468037 
2320	 0.171136803208219 
2321	 0.171932859971682 
2322	 0.174516957769788 
2323	 0.175515388582356 
2324	 0.176188988034484 
2325	 0.175420775672782 
2326	 0.174965938670571 
2327	 0.174011217122664 
2328	 0.173750983781527 
2329	 0.173626500210486 
2330	 0.173157877267811 
2331	 0.172914365745323 
2332	 0.172778629771879 
2333	 0.173223003639283 
2334	 0.17305497168512 
2335	 0.172398578677233 
2336	 0.171897732562832 
2337	 0.171889450006079 
2338	 0.171882523265368 
2339	 0.170872189065812 
2340	 0.170766794903047 
2341	 0.169704169278869 
2342	 0.167933379942688 
2343	 0.168495516141617 
2344	 0.168869475065654 
2345	 0.168577494192323 
2346	 0.169367208779541 
2347	 0.168152228645968 
2348	 0.165821129783414 
2349	 0.164985715815902 
2350	 0.164927296381653 
2351	 0.166063320004465 
2352	 0.16615342357709 
2353	 0.167086702774017 
2354	 0.167530183343612 
2355	 0.166455412354723 
2356	 0.167764184006701 
2357	 0.167186630563028 
2358	 0.165316559426159 
2359	 0.165371497487027 
2360	 0.16423382465087 
2361	 0.164098403082977 
2362	 0.166445424535786 
2363	 0.167296685849049 
2364	 0.166196935434052 
2365	 0.164705230906048 
2366	 0.163458671944238 
2367	 0.162300858628629 
2368	 0.162242375351169 
2369	 0.163116613759864 
2370	 0.162348978290658 
2371	 0.161851344140532 
2372	 0.160940529377208 
2373	 0.158916440580111 
2374	 0.158075424826425 
2375	 0.157435178330442 
2376	 0.157409392125649 
2377	 0.160838514613585 
2378	 0.160382275988114 
2379	 0.156068274339003 
2380	 0.154976590599111 
2381	 0.152875133084606 
2382	 0.152351555890493 
2383	 0.157191639822195 
2384	 0.158509016111531 
2385	 0.155902309173401 
2386	 0.155996325275553 
2387	 0.157411145194257 
2388	 0.156689532952593 
2389	 0.157020217261187 
2390	 0.157045831564388 
2391	 0.153893338752321 
2392	 0.152786755209304 
2393	 0.152993130704127 
2394	 0.153049845298523 
2395	 0.154332983384077 
2396	 0.154728180691936 
2397	 0.154511973330612 
2398	 0.154548917927234 
2399	 0.15416703051892 
2400	 0.153164309906172 
2401	 0.151640736163202 
2402	 0.152750929403554 
2403	 0.151107195602684 
2404	 0.152967013758092 
2405	 0.156907922211683 
2406	 0.156471736656331 
2407	 0.154844500134538 
2408	 0.153387477630623 
2409	 0.151789328038215 
2410	 0.150893661858136 
2411	 0.151665285735759 
2412	 0.149654027872797 
2413	 0.143604046497802 
2414	 0.143341956710183 
2415	 0.144051340203652 
2416	 0.144611864639616 
2417	 0.150498087344649 
2418	 0.148474006575175 
2419	 0.148079867516319 
2420	 0.150770924429753 
2421	 0.149263971316007 
2422	 0.15351791816782 
2423	 0.152375412487682 
2424	 0.149399946098761 
2425	 0.15153816222052 
2426	 0.14797980634541 
2427	 0.143167915000144 
2428	 0.140917069660603 
2429	 0.134189799943694 
2430	 0.128968772053129 
2431	 0.130847758150092 
2432	 0.132755860316569 
2433	 0.135873191597286 
2434	 0.138454594979657 
2435	 0.140954816006834 
2436	 0.14221807150097 
2437	 0.145947777408647 
2438	 0.144180462304124 
2439	 0.134022605523207 
2440	 0.131965874638598 
2441	 0.130415231889007 
2442	 0.129115918699329 
2443	 0.132308572477482 
2444	 0.136208018796303 
2445	 0.142411738023822 
2446	 0.14423277195603 
2447	 0.151026626963575 
2448	 0.150995852351159 
2449	 0.138341800446188 
2450	 0.132266705833862 
2451	 0.121480091608129 
2452	 0.1206431529127 
2453	 0.131889750088427 
2454	 0.132537479488513 
2455	 0.135792444710164 
2456	 0.135322734011381 
2457	 0.123491784531009 
2458	 0.121109026607376 
2459	 0.122786728108258 
2460	 0.125937460249967 
2461	 0.135989449016144 
2462	 0.138295062013197 
2463	 0.139516176797152 
2464	 0.138199707653616 
2465	 0.126117973995897 
2466	 0.124556291143219 
2467	 0.131525403909943 
2468	 0.130367265653909 
2469	 0.125913680976326 
2470	 0.129806221985191 
2471	 0.135210575722211 
2472	 0.136308861011555 
2473	 0.151522796372026 
2474	 0.155889227867686 
2475	 0.141155473255599 
2476	 0.13326651462185 
2477	 0.120732463674964 
2478	 0.111889343396292 
2479	 0.105002764050702 
2480	 9.71489357209761E-02 
2481	 0.101949111374793 
2482	 9.55727695713776E-02 
2483	 6.58509761586291E-02 
2484	 7.47847799576848E-02 
2485	 0.112969043802361 
2486	 0.128563181084078 
2487	 0.165137986831246 
2488	 0.158957389382709 
2489	 0.134156937008274 
2490	 0.131247071746162 
2491	 9.78622600605215E-02 
2492	 9.88208165832465E-02 
2493	 0.128219231965912 
2494	 0.130443416597214 
2495	 0.153796808534503 
2496	 0.114191408062833 
2497	 0.056428792855591 
2498	 6.05676949863028E-02 
2499	 5.01465961056247E-02 
2500	 9.21882940134445E-02 
