Wavelength	ref00101.asd
350	 0.012552384448042 
351	 1.24707857558473E-02 
352	 1.21913422213966E-02 
353	 0.012156551271136 
354	 0.01104572060387 
355	 1.06252590981404E-02 
356	 1.16379936521935E-02 
357	 1.16993984883678E-02 
358	 1.15087755323494E-02 
359	 0.011478701266851 
360	 1.17553153809328E-02 
361	 0.011670512023523 
362	 0.011192931702558 
363	 1.09361643226726E-02 
364	 1.16482414433778E-02 
365	 1.13547751033386E-02 
366	 1.09930245075625E-02 
367	 1.10613234490188E-02 
368	 1.09329028111477E-02 
369	 1.13483139695019E-02 
370	 1.13971602511124E-02 
371	 1.06292543540715E-02 
372	 1.12128941109252E-02 
373	 1.14971373355327E-02 
374	 1.12545835991029E-02 
375	 1.09980733604525E-02 
376	 1.05853655264916E-02 
377	 1.04646291188461E-02 
378	 1.07486275663847E-02 
379	 1.10984944406376E-02 
380	 1.09742289320227E-02 
381	 1.09471058962884E-02 
382	 1.13835517084423E-02 
383	 1.14279527757209E-02 
384	 1.13442924918489E-02 
385	 1.11736217459254E-02 
386	 1.09716282407476E-02 
387	 1.14270255847316E-02 
388	 1.17476619238738E-02 
389	 1.15941651898132E-02 
390	 1.12530568845737E-02 
391	 1.14058306486004E-02 
392	 1.15432837532603E-02 
393	 1.13502904143481E-02 
394	 1.14581942232462E-02 
395	 1.16670637533146E-02 
396	 1.17788367266764E-02 
397	 1.16999042788046E-02 
398	 1.18854043663595E-02 
399	 1.19857395764793E-02 
400	 1.19529017978836E-02 
401	 1.20130639172673E-02 
402	 1.21480334679525E-02 
403	 1.21580027219944E-02 
404	 1.20645064584483E-02 
405	 1.24098671723038E-02 
406	 1.26769664731649E-02 
407	 1.26539902073248E-02 
408	 1.23727593660003E-02 
409	 1.24854028926584E-02 
410	 1.25548572230889E-02 
411	 1.26325386794413E-02 
412	 1.31642849358292E-02 
413	 1.32207649476513E-02 
414	 1.30480691249937E-02 
415	 1.29844936611111E-02 
416	 1.31339292561343E-02 
417	 0.013435981036261 
418	 1.36689173015526E-02 
419	 1.36379510120434E-02 
420	 1.35457008482488E-02 
421	 1.36271806078784E-02 
422	 1.38514242363941E-02 
423	 1.39618494966177E-02 
424	 1.39814631142802E-02 
425	 1.41542500759339E-02 
426	 1.44612710636238E-02 
427	 0.014192049373388 
428	 1.42546171587412E-02 
429	 1.45366751341732E-02 
430	 1.46207199850129E-02 
431	 1.45863260709635E-02 
432	 1.46012211200377E-02 
433	 1.46720828353793E-02 
434	 1.46748967463901E-02 
435	 0.014828189726934 
436	 1.50107516582325E-02 
437	 1.51054014146559E-02 
438	 1.50947286636703E-02 
439	 1.51888500188659E-02 
440	 1.53421374269435E-02 
441	 1.54335720551452E-02 
442	 1.55031539397038E-02 
443	 1.55440430014062E-02 
444	 0.015569274194824 
445	 1.56109953687219E-02 
446	 1.56673047057316E-02 
447	 1.57971038317625E-02 
448	 1.59775629117757E-02 
449	 1.59534828688215E-02 
450	 1.59931222619227E-02 
451	 1.60895470006456E-02 
452	 1.61413267722049E-02 
453	 1.62666692499126E-02 
454	 0.016383427248946 
455	 1.64521081225505E-02 
456	 1.65010245668941E-02 
457	 1.65157909325378E-02 
458	 1.65532424662046E-02 
459	 1.66446784863746E-02 
460	 1.67057606565613E-02 
461	 1.67496962397581E-02 
462	 1.68019869665481E-02 
463	 1.68847522443968E-02 
464	 1.69202385208485E-02 
465	 1.69623445072226E-02 
466	 0.017037678183024 
467	 0.017112534045201 
468	 1.71365328987284E-02 
469	 1.71758387898622E-02 
470	 1.72725351299426E-02 
471	 0.017233497127211 
472	 1.72612965198668E-02 
473	 0.017363155606144 
474	 1.74144344403433E-02 
475	 1.75497785403637E-02 
476	 0.017633960040696 
477	 1.76151217147625E-02 
478	 1.76607226178429E-02 
479	 1.77204725567777E-02 
480	 1.77971103340577E-02 
481	 0.017887555187341 
482	 1.78817840005604E-02 
483	 0.017946948437636 
484	 1.81056855965885E-02 
485	 1.82239048418387E-02 
486	 0.018276902105979 
487	 1.83290743013474E-02 
488	 1.84287490989694E-02 
489	 1.85223210395067E-02 
490	 1.86894103898796E-02 
491	 1.88405527803051E-02 
492	 1.88606310511649E-02 
493	 1.89453134873377E-02 
494	 1.91479342508951E-02 
495	 1.94203050969374E-02 
496	 1.96089164795267E-02 
497	 1.98404877943856E-02 
498	 2.01551737542249E-02 
499	 2.05237645854634E-02 
500	 2.07445971266975E-02 
501	 2.11127646362618E-02 
502	 2.16112284540383E-02 
503	 2.20391295795065E-02 
504	 2.25062379537843E-02 
505	 0.022931024889262 
506	 2.33454649598131E-02 
507	 2.40021541533152E-02 
508	 2.46078487007713E-02 
509	 2.52630100143495E-02 
510	 2.61165745238924E-02 
511	 0.026976791248401 
512	 0.027854263486491 
513	 2.87594706991763E-02 
514	 2.97045637316005E-02 
515	 3.07531434691859E-02 
516	 3.19720327651551E-02 
517	 3.33320656582046E-02 
518	 3.45925489004502E-02 
519	 3.59630163428342E-02 
520	 3.73451518647639E-02 
521	 0.038601362892465 
522	 4.00709038026377E-02 
523	 4.15392717975066E-02 
524	 4.28920646385257E-02 
525	 4.41516880413354E-02 
526	 4.55762009222375E-02 
527	 0.047076704447723 
528	 4.84854107349705E-02 
529	 4.96568053245093E-02 
530	 5.08357078034756E-02 
531	 5.20333214065607E-02 
532	 5.31421139697052E-02 
533	 5.42438244313936E-02 
534	 5.53014585035673E-02 
535	 5.62798558523637E-02 
536	 5.71779801367281E-02 
537	 5.79996900745709E-02 
538	 5.87929862364762E-02 
539	 0.059593686539081 
540	 6.03179270132581E-02 
541	 6.11008882858628E-02 
542	 6.18576091863486E-02 
543	 6.23419784257551E-02 
544	 6.29509733212601E-02 
545	 6.35983329780568E-02 
546	 6.41714136406455E-02 
547	 6.46843859189203E-02 
548	 6.51798010877992E-02 
549	 6.56773414307269E-02 
550	 6.61652637075118E-02 
551	 6.65216976639791E-02 
552	 6.68062625128376E-02 
553	 6.70199694049948E-02 
554	 6.70770391817767E-02 
555	 6.71398082605136E-02 
556	 6.71237960142099E-02 
557	 6.69525855607219E-02 
558	 6.67936624604438E-02 
559	 6.65601323602552E-02 
560	 6.62200537439093E-02 
561	 6.57872992535653E-02 
562	 0.065338259107215 
563	 6.48471200635653E-02 
564	 6.42923697070707E-02 
565	 6.36929608850809E-02 
566	 6.30195824211088E-02 
567	 6.22973161944246E-02 
568	 6.15626280749472E-02 
569	 6.08155064648728E-02 
570	 5.99822425867874E-02 
571	 5.91071668162542E-02 
572	 5.83336825200945E-02 
573	 5.75149268861371E-02 
574	 5.67834504751309E-02 
575	 5.61864005462453E-02 
576	 5.54398118828686E-02 
577	 5.47459633301115E-02 
578	 5.41555824174379E-02 
579	 5.36301789788179E-02 
580	 5.30523716514591E-02 
581	 5.25579041075092E-02 
582	 5.21527388092053E-02 
583	 5.16426923750617E-02 
584	 5.11873177061729E-02 
585	 5.08010430769887E-02 
586	 5.04539789991596E-02 
587	 5.00840151407379E-02 
588	 4.98066632321565E-02 
589	 4.95768746503805E-02 
590	 4.92517937176585E-02 
591	 4.90107818211236E-02 
592	 4.87880529611846E-02 
593	 0.04854941033813 
594	 4.84020023867967E-02 
595	 4.82145441423729E-02 
596	 4.79932708908357E-02 
597	 4.77842579779338E-02 
598	 4.75677031018963E-02 
599	 4.74440076283025E-02 
600	 0.047375785418702 
601	 4.71926544833879E-02 
602	 0.047028049825273 
603	 4.68368383346128E-02 
604	 4.65718522156076E-02 
605	 4.62637685941673E-02 
606	 4.59435874478606E-02 
607	 4.55995267027222E-02 
608	 4.52124608776775E-02 
609	 4.48883451222723E-02 
610	 4.45043364999292E-02 
611	 4.40430100449899E-02 
612	 4.36585893075554E-02 
613	 4.32760103607926E-02 
614	 4.28481282363048E-02 
615	 4.23809060501116E-02 
616	 0.042049772591786 
617	 4.16729963118857E-02 
618	 0.041245966491433 
619	 4.08857144016735E-02 
620	 4.05902881013375E-02 
621	 4.04087585787572E-02 
622	 4.03092666185606E-02 
623	 0.040087220265467 
624	 3.99568218270473E-02 
625	 3.98719422668173E-02 
626	 3.97372697968019E-02 
627	 3.97056656694473E-02 
628	 3.97413224714741E-02 
629	 3.97665077388142E-02 
630	 3.96837005085722E-02 
631	 3.96910261479701E-02 
632	 3.96502789374226E-02 
633	 3.94553605991254E-02 
634	 3.92504296044753E-02 
635	 3.89737030124221E-02 
636	 3.86482676839049E-02 
637	 3.83172372062301E-02 
638	 3.78852074385302E-02 
639	 0.037403880559027 
640	 3.69155155710832E-02 
641	 3.64475770910636E-02 
642	 3.58905872076761E-02 
643	 3.52917090190336E-02 
644	 3.47184418323294E-02 
645	 3.41830600352301E-02 
646	 3.36654970348761E-02 
647	 3.31612475478451E-02 
648	 3.26822297985629E-02 
649	 3.22954482874474E-02 
650	 3.19811652385428E-02 
651	 3.17217787852805E-02 
652	 3.15086918882056E-02 
653	 3.13206144385653E-02 
654	 0.031152213054676 
655	 3.09900903133633E-02 
656	 3.07940851335208E-02 
657	 3.04802324427057E-02 
658	 3.01068251473574E-02 
659	 2.97668278205639E-02 
660	 2.93339581808375E-02 
661	 2.88801534352586E-02 
662	 0.028468653891428 
663	 0.028066914170468 
664	 2.76669135808867E-02 
665	 0.027258440993506 
666	 2.68663117148639E-02 
667	 2.67071220333805E-02 
668	 2.64652482111889E-02 
669	 0.026142175294251 
670	 0.026027754247807 
671	 2.58866470449008E-02 
672	 2.57766913787754E-02 
673	 2.57521367991673E-02 
674	 2.57367614994041E-02 
675	 2.57457298845238E-02 
676	 0.025784924004574 
677	 2.58610932584203E-02 
678	 2.59933164303742E-02 
679	 2.61390019507667E-02 
680	 2.63356553813184E-02 
681	 2.66995232017008E-02 
682	 2.71325837291804E-02 
683	 2.76300230134344E-02 
684	 2.82358520195621E-02 
685	 2.90611289177743E-02 
686	 3.01083595206394E-02 
687	 3.15375177655177E-02 
688	 3.33727570851447E-02 
689	 3.51273840846084E-02 
690	 3.71834610231338E-02 
691	 3.97574484009775E-02 
692	 4.26611626109488E-02 
693	 4.61029217764386E-02 
694	 4.98944561796633E-02 
695	 0.05385156057363 
696	 5.81187752358041E-02 
697	 6.26276849279662E-02 
698	 0.067345133000373 
699	 7.22322494642698E-02 
700	 7.73667456840555E-02 
701	 8.25729107350803E-02 
702	 8.77506325282002E-02 
703	 9.28940693420032E-02 
704	 9.80388797854452E-02 
705	 0.103111047560811 
706	 0.108109837082467 
707	 0.113138376721511 
708	 0.118136055781067 
709	 0.123133332179389 
710	 0.128155120395642 
711	 0.133107394632289 
712	 0.138137436468552 
713	 0.143223610325538 
714	 0.148137468273223 
715	 0.153195074048684 
716	 0.158321865292738 
717	 0.163571739160489 
718	 0.169154892092556 
719	 0.174724841024588 
720	 0.179935808237159 
721	 0.184697161953881 
722	 0.189272729443417 
723	 0.193983639403811 
724	 0.199048649323896 
725	 0.203990865233126 
726	 0.208591196515476 
727	 0.212898111267734 
728	 0.217147295901273 
729	 0.221496467513392 
730	 0.225526698286165 
731	 0.229220831449578 
732	 0.232737961881559 
733	 0.236010073789048 
734	 0.239102218824344 
735	 0.242112493844377 
736	 0.245076481117334 
737	 0.247956049115816 
738	 0.250574334441929 
739	 0.252929092779109 
740	 0.255304316398947 
741	 0.257570447342016 
742	 0.259599945683176 
743	 0.261322185894685 
744	 0.26296563798488 
745	 0.264609079791588 
746	 0.26616316701524 
747	 0.267435960482247 
748	 0.268618375551583 
749	 0.269799637754312 
750	 0.270971851424248 
751	 0.271997698249958 
752	 0.272860505689066 
753	 0.273639457848153 
754	 0.274405651035736 
755	 0.275086736478077 
756	 0.275705470822811 
757	 0.276137243114445 
758	 0.276267130944585 
759	 0.276790942585816 
760	 0.277830080079191 
761	 0.279151883293426 
762	 0.279567779455186 
763	 0.279721783762671 
764	 0.279842259528387 
765	 0.279969640314059 
766	 0.280141593498715 
767	 0.280272955496538 
768	 0.280380434068235 
769	 0.280511804588876 
770	 0.280728733434061 
771	 0.280966024916922 
772	 0.28115761994616 
773	 0.281266225921801 
774	 0.281528558172833 
775	 0.281819295862042 
776	 0.282025966162896 
777	 0.282158506962863 
778	 0.282323636647394 
779	 0.282507160711881 
780	 0.282675193956426 
781	 0.282874995066828 
782	 0.283015326015124 
783	 0.283123362780841 
784	 0.28328197041365 
785	 0.283454584482698 
786	 0.28368129023529 
787	 0.283937193520208 
788	 0.28413208532108 
789	 0.28442357727988 
790	 0.284627283968235 
791	 0.28468471411933 
792	 0.284931568828987 
793	 0.285144173284598 
794	 0.28529697744556 
795	 0.285432500941978 
796	 0.285598521552582 
797	 0.285747906694263 
798	 0.285905341511259 
799	 0.286113758642716 
800	 0.286198571043106 
801	 0.286371369028027 
802	 0.286607191424897 
803	 0.286603731322505 
804	 0.286824644553428 
805	 0.287012845916113 
806	 0.287026685916215 
807	 0.287256566888397 
808	 0.287409410841314 
809	 0.287508591185202 
810	 0.287670488747664 
811	 0.287968610633575 
812	 0.288266722261683 
813	 0.288507858967247 
814	 0.288715511018915 
815	 0.289095641327104 
816	 0.289439111119365 
817	 0.289642137251318 
818	 0.289771889267646 
819	 0.289820719601268 
820	 0.28968319510404 
821	 0.289554092149748 
822	 0.290150082982035 
823	 0.290469976286021 
824	 0.290364134993548 
825	 0.290071811410254 
826	 0.290112240502535 
827	 0.290325673023019 
828	 0.290531100425172 
829	 0.290572666158121 
830	 0.290571593140882 
831	 0.290646373320196 
832	 0.290747099907048 
833	 0.290715312431381 
834	 0.290595699451806 
835	 0.290620774598886 
836	 0.290814946577694 
837	 0.290941801900518 
838	 0.291007567720993 
839	 0.291131597287627 
840	 0.291323454157562 
841	 0.291327150092521 
842	 0.291407809669907 
843	 0.291460896147505 
844	 0.291409588884516 
845	 0.291642407875626 
846	 0.291771692078563 
847	 0.291794395473613 
848	 0.291913886276871 
849	 0.292421313880088 
850	 0.292543399176365 
851	 0.292356652691149 
852	 0.292561416232818 
853	 0.292935438739178 
854	 0.29324083955795 
855	 0.293341237211357 
856	 0.293254483234807 
857	 0.293188512616159 
858	 0.293255097619977 
859	 0.293465181586535 
860	 0.293718515393411 
861	 0.293816296071645 
862	 0.293743407794959 
863	 0.293654285168713 
864	 0.293966311746135 
865	 0.29449831528185 
866	 0.294900350520972 
867	 0.29487767266143 
868	 0.294567712368766 
869	 0.294569705450511 
870	 0.294748178481592 
871	 0.294730406433201 
872	 0.294977726296097 
873	 0.29517814580148 
874	 0.295261041696886 
875	 0.295347567317992 
876	 0.295400774045737 
877	 0.295319456223664 
878	 0.29523443206824 
879	 0.2954558478575 
880	 0.295623359635429 
881	 0.295713677739658 
882	 0.295788092437803 
883	 0.295936249874381 
884	 0.295841516192018 
885	 0.295940758548398 
886	 0.296295254082039 
887	 0.296036638297444 
888	 0.295999899525239 
889	 0.296219473476257 
890	 0.296452877478605 
891	 0.296314291424829 
892	 0.296373253581264 
893	 0.296730852660928 
894	 0.297217813574874 
895	 0.297345248977744 
896	 0.297519199682534 
897	 0.297902453363348 
898	 0.298376826644364 
899	 0.298148188830488 
900	 0.298388803249212 
901	 0.298737796136065 
902	 0.298240840592007 
903	 0.297538570255141 
904	 0.297154981805696 
905	 0.297335030923244 
906	 0.297968922535208 
907	 0.298123311451407 
908	 0.29835252975851 
909	 0.298592202485366 
910	 0.298290756396702 
911	 0.298136677564114 
912	 0.298459596610769 
913	 0.298978282738133 
914	 0.298982999653805 
915	 0.299036749651549 
916	 0.298935187429257 
917	 0.29844125143276 
918	 0.297528406588104 
919	 0.297774469748548 
920	 0.29774112849809 
921	 0.297165943932477 
922	 0.297709797773429 
923	 0.297574313611402 
924	 0.297428370090323 
925	 0.297509227788506 
926	 0.296777852371601 
927	 0.296623422900503 
928	 0.296891872314375 
929	 0.297302827750866 
930	 0.298010299073811 
931	 0.298348499192494 
932	 0.299346966415503 
933	 0.300943619283873 
934	 0.299780652402876 
935	 0.299202532753443 
936	 0.298811308456175 
937	 0.297637408159857 
938	 0.295743555920226 
939	 0.295641036516088 
940	 0.294956291962229 
941	 0.292938326983301 
942	 0.29380374889126 
943	 0.294971338080514 
944	 0.294390908101333 
945	 0.292069654446359 
946	 0.292036320089974 
947	 0.291019927933934 
948	 0.289970280620461 
949	 0.289604644086866 
950	 0.287889564068826 
951	 0.287834325855397 
952	 0.288094707558345 
953	 0.286978418492304 
954	 0.284482795124584 
955	 0.285088882226036 
956	 0.285273107313473 
957	 0.282645119374417 
958	 0.281062624365182 
959	 0.280015047028176 
960	 0.279995302970032 
961	 0.280524792048318 
962	 0.279339037479384 
963	 0.278828511779634 
964	 0.278295429751493 
965	 0.277323648328873 
966	 0.277042107176544 
967	 0.276192594493779 
968	 0.275337496709751 
969	 0.275210721964218 
970	 0.276082001903855 
971	 0.275867264643159 
972	 0.275301595594646 
973	 0.27514575561017 
974	 0.27528384377178 
975	 0.275490583208978 
976	 0.2761892078905 
977	 0.27662667147778 
978	 0.274945006482938 
979	 0.27560228573589 
980	 0.276053740592822 
981	 0.275348493557747 
982	 0.275354429298325 
983	 0.275308633037078 
984	 0.275121339075627 
985	 0.274847934907027 
986	 0.274720957239112 
987	 0.275819116285205 
988	 0.27633064423956 
989	 0.276244343685748 
990	 0.276948291023763 
991	 0.277753186594265 
992	 0.277780469847803 
993	 0.277260190539023 
994	 0.277137801360213 
995	 0.277932368764202 
996	 0.278476385900777 
997	 0.278062129594079 
998	 0.277129538989163 
999	 0.279104280531507 
1000	 0.280327575711273 
1001	 0.280109634589383 
1002	 0.28044270840292 
1003	 0.280831930046339 
1004	 0.281297973972108 
1005	 0.281650609294943 
1006	 0.281880892686222 
1007	 0.282272472607642 
1008	 0.282722984885774 
1009	 0.283091641725811 
1010	 0.283480293693404 
1011	 0.283946324958561 
1012	 0.284245617295501 
1013	 0.284552315128082 
1014	 0.285005726758175 
1015	 0.285451822165718 
1016	 0.28594838764393 
1017	 0.286531265517847 
1018	 0.286984304009403 
1019	 0.287385587150585 
1020	 0.287806579953605 
1021	 0.28808351753527 
1022	 0.288466329550355 
1023	 0.288920843504497 
1024	 0.289440824287894 
1025	 0.289763060648576 
1026	 0.290258582761586 
1027	 0.290808266342585 
1028	 0.291073019088278 
1029	 0.291461079925236 
1030	 0.291912537049458 
1031	 0.29221771611618 
1032	 0.292642266382398 
1033	 0.29298932134567 
1034	 0.29329189865154 
1035	 0.293612773170953 
1036	 0.293884828239755 
1037	 0.294179967548957 
1038	 0.294494934529628 
1039	 0.294851663178999 
1040	 0.295248373226635 
1041	 0.295541246564177 
1042	 0.295724147283724 
1043	 0.296001904135749 
1044	 0.296219139932859 
1045	 0.296456570390006 
1046	 0.296850819246633 
1047	 0.297095142697925 
1048	 0.297176333333001 
1049	 0.297318294231406 
1050	 0.297461328236928 
1051	 0.297541450010627 
1052	 0.297718347183946 
1053	 0.297994741393328 
1054	 0.298204959252096 
1055	 0.298529458147358 
1056	 0.298789651672775 
1057	 0.298920028121299 
1058	 0.299108675105814 
1059	 0.299271530156536 
1060	 0.299424886202885 
1061	 0.299653185253864 
1062	 0.299872878801562 
1063	 0.299939413648855 
1064	 0.300014680452634 
1065	 0.300150044784577 
1066	 0.300325857598959 
1067	 0.30040221985807 
1068	 0.300517928882541 
1069	 0.300731860445857 
1070	 0.300804654081967 
1071	 0.300898534770388 
1072	 0.301173908585455 
1073	 0.301296757765274 
1074	 0.301338023075455 
1075	 0.301397711711502 
1076	 0.301334223843501 
1077	 0.301345301133661 
1078	 0.301504274001607 
1079	 0.3016497937038 
1080	 0.301789544689133 
1081	 0.301934242643723 
1082	 0.302080012858679 
1083	 0.302111854331887 
1084	 0.302186667757702 
1085	 0.302292386293958 
1086	 0.302325791109667 
1087	 0.302316914600696 
1088	 0.302257086742926 
1089	 0.302272802244787 
1090	 0.302282165375377 
1091	 0.302264844859253 
1092	 0.302205247788963 
1093	 0.302125922978132 
1094	 0.302104265704183 
1095	 0.301991806189563 
1096	 0.301958516357875 
1097	 0.302060556481296 
1098	 0.302074754912863 
1099	 0.30204028628445 
1100	 0.302084545765422 
1101	 0.302006384083296 
1102	 0.301830383339371 
1103	 0.301711333335045 
1104	 0.301618003707335 
1105	 0.301661219377759 
1106	 0.301836523350841 
1107	 0.301957613113107 
1108	 0.302022401497165 
1109	 0.302109839583203 
1110	 0.302177125729067 
1111	 0.30227317948035 
1112	 0.302418840950159 
1113	 0.302543877390589 
1114	 0.302701507937367 
1115	 0.302834793187336 
1116	 0.302936278712662 
1117	 0.303070509269048 
1118	 0.303242407901237 
1119	 0.303248576320856 
1120	 0.303104207983475 
1121	 0.302847960554522 
1122	 0.302588649086494 
1123	 0.302093940006829 
1124	 0.301517507903393 
1125	 0.301024109755721 
1126	 0.300145521408081 
1127	 0.298961621721655 
1128	 0.297810726872148 
1129	 0.296604727546409 
1130	 0.295239643272964 
1131	 0.293979850375019 
1132	 0.292355777582835 
1133	 0.290496935188343 
1134	 0.288513173611273 
1135	 0.286638836120717 
1136	 0.284817313453666 
1137	 0.283154643196097 
1138	 0.281583055679308 
1139	 0.279835192850218 
1140	 0.278066580135958 
1141	 0.276282918869542 
1142	 0.274370464169517 
1143	 0.272518895499741 
1144	 0.270772485886922 
1145	 0.268747186006435 
1146	 0.266547800525472 
1147	 0.264463676405525 
1148	 0.262292950565121 
1149	 0.260199675928929 
1150	 0.258249108481202 
1151	 0.256452409248216 
1152	 0.254696054198369 
1153	 0.253156814126158 
1154	 0.251967456169389 
1155	 0.25085519154051 
1156	 0.249786088082991 
1157	 0.248816210158893 
1158	 0.247826167983273 
1159	 0.246912713531298 
1160	 0.246131115916709 
1161	 0.245445725440136 
1162	 0.244815772561802 
1163	 0.244230295628197 
1164	 0.243743361675422 
1165	 0.243351527533656 
1166	 0.242946861394158 
1167	 0.242591201684274 
1168	 0.242271628097032 
1169	 0.241966103519139 
1170	 0.24164041810963 
1171	 0.241409539393318 
1172	 0.241218273125463 
1173	 0.241045235072381 
1174	 0.240878189277617 
1175	 0.240664165616252 
1176	 0.240422181281107 
1177	 0.240194016275028 
1178	 0.239906614234072 
1179	 0.239686054005777 
1180	 0.239527482834735 
1181	 0.239327411643053 
1182	 0.239153318857767 
1183	 0.238935327870161 
1184	 0.238662489677293 
1185	 0.238423387278604 
1186	 0.238155357143754 
1187	 0.237927202096239 
1188	 0.237710696107153 
1189	 0.237559448978377 
1190	 0.237410058261795 
1191	 0.237301167294776 
1192	 0.237189288497062 
1193	 0.237071168967533 
1194	 0.237006739615497 
1195	 0.236962811997902 
1196	 0.23692939268606 
1197	 0.236917469096713 
1198	 0.236950264855384 
1199	 0.237009065103463 
1200	 0.23707006838655 
1201	 0.237213174064113 
1202	 0.237302798085808 
1203	 0.237314082247486 
1204	 0.237403326268093 
1205	 0.237498692907163 
1206	 0.237633643362695 
1207	 0.237852347585387 
1208	 0.238052672832308 
1209	 0.238253024096626 
1210	 0.23847848352932 
1211	 0.238728415212503 
1212	 0.238899407645786 
1213	 0.239102014909377 
1214	 0.239289859884831 
1215	 0.239537073255144 
1216	 0.239795620654002 
1217	 0.240078711550054 
1218	 0.240421590813063 
1219	 0.24073495684727 
1220	 0.241046058999309 
1221	 0.241367066784478 
1222	 0.241705223975485 
1223	 0.24201556075517 
1224	 0.242322000507512 
1225	 0.242625849014903 
1226	 0.242895888818751 
1227	 0.243197906593347 
1228	 0.243570942578122 
1229	 0.243831651714318 
1230	 0.244095432408481 
1231	 0.244430620595314 
1232	 0.244724270370889 
1233	 0.245010531193519 
1234	 0.245268743703408 
1235	 0.245496409610103 
1236	 0.245776866540607 
1237	 0.246059203901469 
1238	 0.246331176151081 
1239	 0.246662138466468 
1240	 0.246932549486926 
1241	 0.247153509654162 
1242	 0.247378536399697 
1243	 0.247580435298994 
1244	 0.247794934526846 
1245	 0.247947487315457 
1246	 0.248198542799027 
1247	 0.248574191351073 
1248	 0.248860684023697 
1249	 0.249237718914128 
1250	 0.249473193256803 
1251	 0.249568095826029 
1252	 0.24959194048517 
1253	 0.249735486931511 
1254	 0.249854049140169 
1255	 0.250019009876791 
1256	 0.250317257439556 
1257	 0.250482219986412 
1258	 0.250576613864465 
1259	 0.25068662184599 
1260	 0.250760428453704 
1261	 0.250854905720918 
1262	 0.250964810560299 
1263	 0.251035723283553 
1264	 0.251100644822415 
1265	 0.251142470855383 
1266	 0.251114310908015 
1267	 0.251135915869777 
1268	 0.251218351238906 
1269	 0.251219482947734 
1270	 0.251198922923273 
1271	 0.25116404220167 
1272	 0.251091541968999 
1273	 0.250964518353579 
1274	 0.25085015869432 
1275	 0.250735907439115 
1276	 0.250618528011214 
1277	 0.250477737877989 
1278	 0.25034177875283 
1279	 0.250230660074793 
1280	 0.250074046325731 
1281	 0.249847724909905 
1282	 0.249709008034358 
1283	 0.249638667450232 
1284	 0.249472606725247 
1285	 0.24931018961903 
1286	 0.24912580399458 
1287	 0.248856110230794 
1288	 0.248612829738462 
1289	 0.248469810433886 
1290	 0.248179758760143 
1291	 0.247742345850596 
1292	 0.247377411295164 
1293	 0.246938458518868 
1294	 0.246551310035603 
1295	 0.246234844591652 
1296	 0.245940293926174 
1297	 0.245564904285011 
1298	 0.245165859026864 
1299	 0.244733409442568 
1300	 0.244261966341773 
1301	 0.243751533090049 
1302	 0.243237026502447 
1303	 0.242614434376335 
1304	 0.241868333333181 
1305	 0.24118513626073 
1306	 0.240450913209511 
1307	 0.239735413258071 
1308	 0.239089790093741 
1309	 0.238343288367886 
1310	 0.237561608797963 
1311	 0.23670667680586 
1312	 0.235737207098873 
1313	 0.234814514750989 
1314	 0.233882811767505 
1315	 0.23290641378385 
1316	 0.231959227678701 
1317	 0.230945200728713 
1318	 0.229836755341181 
1319	 0.228724322622574 
1320	 0.227580941093185 
1321	 0.226384696358847 
1322	 0.225235793213164 
1323	 0.224054577167778 
1324	 0.222896425836215 
1325	 0.22174430374431 
1326	 0.220591156920408 
1327	 0.219453961206232 
1328	 0.218212348085726 
1329	 0.216933023656286 
1330	 0.215615692751423 
1331	 0.214209600347697 
1332	 0.212801210991073 
1333	 0.211363397640052 
1334	 0.209990450125612 
1335	 0.208509710835179 
1336	 0.207265318652536 
1337	 0.206203481907702 
1338	 0.205114161206029 
1339	 0.204031326189313 
1340	 0.203075580563463 
1341	 0.202055495846248 
1342	 0.201190009062374 
1343	 0.200433433695111 
1344	 0.199808594260188 
1345	 0.199281764964133 
1346	 0.198997762839753 
1347	 0.198866150744513 
1348	 0.198861138630078 
1349	 0.198873982968356 
1350	 0.199045128948727 
1351	 0.199302447775528 
1352	 0.200073329796699 
1353	 0.200597483885764 
1354	 0.201039459912076 
1355	 0.201922181479217 
1356	 0.202801539409559 
1357	 0.203819105808903 
1358	 0.204583589544553 
1359	 0.207401909771174 
1360	 0.21106845769149 
1361	 0.215729598796466 
1362	 0.223558502747633 
1363	 0.228947530761863 
1364	 0.217940515707525 
1365	 0.21601134210522 
1366	 0.224879661506374 
1367	 0.219942183127624 
1368	 0.214573678615871 
1369	 0.205203847591281 
1370	 0.183665970016011 
1371	 0.177234684670409 
1372	 0.176562604997816 
1373	 0.175661117983423 
1374	 0.179282490545379 
1375	 0.181730916790827 
1376	 0.180895153548587 
1377	 0.182108679033519 
1378	 0.180077646301916 
1379	 0.177143874959459 
1380	 0.172932752704963 
1381	 0.166314361124969 
1382	 0.16002480868714 
1383	 0.153573955679255 
1384	 0.147959455832169 
1385	 0.143586446930343 
1386	 0.137391962630342 
1387	 0.131629697261055 
1388	 0.126266727403296 
1389	 0.119385721087408 
1390	 0.115689067413736 
1391	 0.114850440486816 
1392	 0.111403003564128 
1393	 0.107023558585404 
1394	 0.103831909093363 
1395	 0.10022146813963 
1396	 9.68163838829158E-02 
1397	 9.47577893247271E-02 
1398	 9.18552155502814E-02 
1399	 0.087319314213543 
1400	 8.43225761417879E-02 
1401	 8.28035833929149E-02 
1402	 8.03520348746571E-02 
1403	 7.80910153614409E-02 
1404	 7.58641421496249E-02 
1405	 7.34396095947835E-02 
1406	 7.07102821091495E-02 
1407	 6.93615771509844E-02 
1408	 6.83814266715543E-02 
1409	 6.68131784506511E-02 
1410	 6.55633832044297E-02 
1411	 6.43073750151254E-02 
1412	 6.28553285635835E-02 
1413	 6.17740596740804E-02 
1414	 6.09306557296295E-02 
1415	 0.060163372948856 
1416	 5.95061375104721E-02 
1417	 5.87284905085166E-02 
1418	 5.79899272771486E-02 
1419	 5.73316836493168E-02 
1420	 5.68399402437093E-02 
1421	 5.59317136627761E-02 
1422	 5.46101377636519E-02 
1423	 5.40877048311768E-02 
1424	 5.35879343491483E-02 
1425	 5.31863874328083E-02 
1426	 5.34810626675351E-02 
1427	 5.32320183482529E-02 
1428	 5.25018038745661E-02 
1429	 5.21022916558384E-02 
1430	 0.051802140474504 
1431	 5.14051863804498E-02 
1432	 5.09274307066831E-02 
1433	 5.06327756572255E-02 
1434	 5.03351987950395E-02 
1435	 0.050129262725783 
1436	 5.01590189693224E-02 
1437	 5.01176578465718E-02 
1438	 5.01456203748853E-02 
1439	 0.050026009360678 
1440	 0.049764585353935 
1441	 4.96145975745747E-02 
1442	 4.93958892034496E-02 
1443	 4.92570210134383E-02 
1444	 4.91342496344485E-02 
1445	 4.91245910650656E-02 
1446	 4.91878099872836E-02 
1447	 4.90159156268654E-02 
1448	 4.88005056509625E-02 
1449	 4.84941303219296E-02 
1450	 0.048450134538399 
1451	 0.048396192136922 
1452	 4.83505716673998E-02 
1453	 4.85273340708373E-02 
1454	 4.84910494283454E-02 
1455	 4.82018376490816E-02 
1456	 0.048204725293472 
1457	 4.83694137548145E-02 
1458	 4.83925100684918E-02 
1459	 4.84096100585451E-02 
1460	 0.048516480283118 
1461	 4.85871024000353E-02 
1462	 4.87262833948241E-02 
1463	 4.90808789992521E-02 
1464	 4.92420340478289E-02 
1465	 4.91929163924474E-02 
1466	 4.94028675306902E-02 
1467	 4.97070734008793E-02 
1468	 4.99967448363544E-02 
1469	 5.05169569634999E-02 
1470	 5.08182576259496E-02 
1471	 5.08297635302415E-02 
1472	 5.10925095532948E-02 
1473	 5.14137959352974E-02 
1474	 5.17158045818942E-02 
1475	 5.21657221112445E-02 
1476	 5.24837848834609E-02 
1477	 5.26829959333973E-02 
1478	 5.29271377787068E-02 
1479	 5.30862897831727E-02 
1480	 5.33663356114049E-02 
1481	 5.37091170279722E-02 
1482	 5.40536251868629E-02 
1483	 5.44998777674644E-02 
1484	 5.48726648931627E-02 
1485	 5.51862177694919E-02 
1486	 0.055520536280519 
1487	 5.57896674143421E-02 
1488	 5.61422557727863E-02 
1489	 5.66165269058324E-02 
1490	 5.69206300632949E-02 
1491	 5.71806968073574E-02 
1492	 5.75482294744774E-02 
1493	 5.78506013932337E-02 
1494	 5.82376562049368E-02 
1495	 5.86209416655789E-02 
1496	 5.90763287120202E-02 
1497	 5.94950497707804E-02 
1498	 5.98908810980763E-02 
1499	 6.03453432919693E-02 
1500	 6.08665166227605E-02 
1501	 6.13400710804704E-02 
1502	 6.18011520441239E-02 
1503	 6.23012264127906E-02 
1504	 6.28048912660232E-02 
1505	 6.33163799163241E-02 
1506	 6.38845680102216E-02 
1507	 0.064378120188392 
1508	 0.06479943293783 
1509	 6.53027570535319E-02 
1510	 6.58340714233928E-02 
1511	 6.63325224837922E-02 
1512	 6.69090873834085E-02 
1513	 6.73516775960534E-02 
1514	 6.76077125459915E-02 
1515	 6.80952651928926E-02 
1516	 6.86722524413859E-02 
1517	 6.91909186711025E-02 
1518	 0.06986536495082 
1519	 7.03807146456234E-02 
1520	 7.06848158067595E-02 
1521	 0.071177762302902 
1522	 7.17441255265637E-02 
1523	 7.22887700633076E-02 
1524	 7.29180968361614E-02 
1525	 7.34839148678369E-02 
1526	 7.39917957979862E-02 
1527	 7.45381715407261E-02 
1528	 7.51180246987784E-02 
1529	 7.56608936346325E-02 
1530	 7.61926812985676E-02 
1531	 7.67177993424111E-02 
1532	 7.72036438082835E-02 
1533	 7.77228332610648E-02 
1534	 7.82758848950084E-02 
1535	 7.87999328350853E-02 
1536	 7.92999697178854E-02 
1537	 7.98356089815196E-02 
1538	 8.03624088902519E-02 
1539	 8.09204410352789E-02 
1540	 8.15734842076456E-02 
1541	 8.21374238585896E-02 
1542	 8.26600280184832E-02 
1543	 8.31810851683393E-02 
1544	 8.36168012358292E-02 
1545	 8.41195521121464E-02 
1546	 0.084677865183882 
1547	 0.08521391615422 
1548	 8.57439234017751E-02 
1549	 8.63145316558952E-02 
1550	 8.69357723556603E-02 
1551	 8.75015577711459E-02 
1552	 8.80971368239711E-02 
1553	 8.86428316347424E-02 
1554	 0.089078108528927 
1555	 8.95666961025893E-02 
1556	 9.00748468974344E-02 
1557	 9.05762101695655E-02 
1558	 9.10728371012597E-02 
1559	 9.16009706518654E-02 
1560	 9.21753971695402E-02 
1561	 9.27038587973723E-02 
1562	 9.32641296656349E-02 
1563	 9.37758115691247E-02 
1564	 9.42146911474454E-02 
1565	 9.46506236839344E-02 
1566	 9.51066774350472E-02 
1567	 9.54966407376261E-02 
1568	 9.59777444693382E-02 
1569	 9.65036118313715E-02 
1570	 9.69656513517275E-02 
1571	 9.74410372466134E-02 
1572	 9.79080270825125E-02 
1573	 9.82997206915498E-02 
1574	 9.88047135066711E-02 
1575	 9.93787171882396E-02 
1576	 9.99188300110543E-02 
1577	 0.10049779634721 
1578	 0.100982242709799 
1579	 0.101403337667917 
1580	 0.101892838601698 
1581	 0.102362099813669 
1582	 0.102834822687075 
1583	 0.103369737808403 
1584	 0.103815805408395 
1585	 0.104193182757006 
1586	 0.104603099208265 
1587	 0.104983128733318 
1588	 0.105443960447693 
1589	 0.105969889253819 
1590	 0.106390020885818 
1591	 0.106799130703611 
1592	 0.107239693749238 
1593	 0.107622839125573 
1594	 0.10803620831617 
1595	 0.108537932951268 
1596	 0.10895370668867 
1597	 0.109278902250967 
1598	 0.109689113736102 
1599	 0.110144542803223 
1600	 0.110555791090047 
1601	 0.110971284186494 
1602	 0.11137692593133 
1603	 0.111747357379391 
1604	 0.112150740004918 
1605	 0.112573194502484 
1606	 0.112981346739437 
1607	 0.113404388334479 
1608	 0.113780432679282 
1609	 0.114103875751916 
1610	 0.114502319625009 
1611	 0.114917136657589 
1612	 0.1153007198574 
1613	 0.11572704785459 
1614	 0.116102217053627 
1615	 0.116415484380707 
1616	 0.116745486346067 
1617	 0.117089092570025 
1618	 0.117405024579988 
1619	 0.117672465476117 
1620	 0.118009294890883 
1621	 0.118377359982283 
1622	 0.11871194373647 
1623	 0.119092340340138 
1624	 0.119380245975713 
1625	 0.119601288869033 
1626	 0.119848025383532 
1627	 0.120031382433856 
1628	 0.120314840344106 
1629	 0.120678404947299 
1630	 0.120957748413154 
1631	 0.121261360500133 
1632	 0.121519013313488 
1633	 0.121676957348383 
1634	 0.121937236150117 
1635	 0.122256285123868 
1636	 0.122536516391604 
1637	 0.122831472987759 
1638	 0.123112614244534 
1639	 0.123382155125447 
1640	 0.123602151130617 
1641	 0.123807859653772 
1642	 0.124029268398154 
1643	 0.12423425482396 
1644	 0.12437549499099 
1645	 0.124482177920409 
1646	 0.124626603120192 
1647	 0.124709198372479 
1648	 0.124863351760492 
1649	 0.125102335064414 
1650	 0.125326209422157 
1651	 0.125537236356829 
1652	 0.125726198846799 
1653	 0.125991435061443 
1654	 0.126068365627599 
1655	 0.126003050665226 
1656	 0.126076568476893 
1657	 0.126088280345696 
1658	 0.126392945574132 
1659	 0.126553423054309 
1660	 0.126467912655081 
1661	 0.12640891785172 
1662	 0.126261685001306 
1663	 0.126245499048431 
1664	 0.126354748598138 
1665	 0.126483225271556 
1666	 0.126643296601538 
1667	 0.126603077798446 
1668	 0.12650555718509 
1669	 0.126511913344295 
1670	 0.126508504177801 
1671	 0.126503093706725 
1672	 0.1266246590325 
1673	 0.126724378735546 
1674	 0.126600342139569 
1675	 0.126444197182107 
1676	 0.126393262569276 
1677	 0.126368443046071 
1678	 0.126379832555843 
1679	 0.126397547228513 
1680	 0.126326121449282 
1681	 0.126152303365575 
1682	 0.126004179718434 
1683	 0.125940579084207 
1684	 0.125796637043142 
1685	 0.125659883802023 
1686	 0.125559161336031 
1687	 0.125475048325015 
1688	 0.125365090692053 
1689	 0.1251060089657 
1690	 0.124855282828653 
1691	 0.124604328360692 
1692	 0.124365115233242 
1693	 0.124154390227237 
1694	 0.123921733295042 
1695	 0.123707269449119 
1696	 0.123551638095529 
1697	 0.123334945217751 
1698	 0.123090241527167 
1699	 0.122836332622062 
1700	 0.122548281827249 
1701	 0.122250014863662 
1702	 0.121952622719102 
1703	 0.121628098547333 
1704	 0.121245317997558 
1705	 0.120936713138797 
1706	 0.120600157047152 
1707	 0.120345442690788 
1708	 0.120243284364003 
1709	 0.120010232415493 
1710	 0.119776514992296 
1711	 0.119492637899042 
1712	 0.119073832437304 
1713	 0.118748873875331 
1714	 0.118466633631886 
1715	 0.118199426832132 
1716	 0.117986509974548 
1717	 0.117698584042958 
1718	 0.117332022873825 
1719	 0.117031996253066 
1720	 0.11675446726319 
1721	 0.116490356526476 
1722	 0.116241257653041 
1723	 0.116060674252488 
1724	 0.115960176510666 
1725	 0.115693438763351 
1726	 0.115429302057912 
1727	 0.11517003668523 
1728	 0.114760439662604 
1729	 0.114414172444524 
1730	 0.114124043737714 
1731	 0.113928503862354 
1732	 0.113667892985709 
1733	 0.11336465213769 
1734	 0.113055525448226 
1735	 0.112691842136041 
1736	 0.11245724937503 
1737	 0.112281648963946 
1738	 0.112124186246433 
1739	 0.111953754026985 
1740	 0.111568163938747 
1741	 0.111270498563539 
1742	 0.111037257774134 
1743	 0.110581414819124 
1744	 0.110151046085507 
1745	 0.109877868872918 
1746	 0.10957975751479 
1747	 0.109107634083265 
1748	 0.108660203054343 
1749	 0.108193370795719 
1750	 0.107620670890562 
1751	 0.107197708942847 
1752	 0.106822435748586 
1753	 0.106388263772495 
1754	 0.105864132753825 
1755	 0.10535574288055 
1756	 0.104973508357289 
1757	 0.104416982876946 
1758	 0.104023170373456 
1759	 0.103830510994159 
1760	 0.103567914765999 
1761	 0.103376197210524 
1762	 0.103120817275751 
1763	 0.1027845571537 
1764	 0.102429215250425 
1765	 0.102090952866731 
1766	 0.101667859784469 
1767	 0.10102759043575 
1768	 0.100794980626341 
1769	 0.100767748357717 
1770	 0.100578935300424 
1771	 0.100633369397036 
1772	 0.100477731999543 
1773	 0.10002398492392 
1774	 9.98991706382007E-02 
1775	 9.96882511225607E-02 
1776	 9.97690180686899E-02 
1777	 9.95430623782619E-02 
1778	 0.099305129996239 
1779	 0.099414520252635 
1780	 9.93017830341863E-02 
1781	 9.94512600074503E-02 
1782	 9.96187557061452E-02 
1783	 9.94675113376934E-02 
1784	 9.90549629073261E-02 
1785	 9.85989057718706E-02 
1786	 9.84108272324614E-02 
1787	 9.84239793909278E-02 
1788	 9.88835331144791E-02 
1789	 9.92391676507637E-02 
1790	 9.91026155368958E-02 
1791	 9.89558169326545E-02 
1792	 9.88018970139401E-02 
1793	 9.88349963285892E-02 
1794	 9.91403890332149E-02 
1795	 9.93448190127577E-02 
1796	 9.92786435168317E-02 
1797	 9.93755449144104E-02 
1798	 9.99126493995062E-02 
1799	 0.100489695195203 
1800	 0.10099676685599 
1801	 0.103515552677833 
1802	 0.104205138577472 
1803	 0.103910132784218 
1804	 0.101630714038746 
1805	 0.101482489849229 
1806	 0.101533547787374 
1807	 0.102030466411071 
1808	 0.105001528135885 
1809	 0.107255692898966 
1810	 0.108435743289523 
1811	 0.108538567900428 
1812	 0.109054640037675 
1813	 0.107625570911488 
1814	 0.108658776054617 
1815	 0.112738336677811 
1816	 0.114204666596618 
1817	 0.115561582207715 
1818	 0.116930599644165 
1819	 0.117411933947653 
1820	 0.113595167025296 
1821	 0.113689579598292 
1822	 0.117740560435263 
1823	 0.118171502038393 
1824	 0.115128832154156 
1825	 0.116334729394017 
1826	 0.121679466235153 
1827	 0.122217993868795 
1828	 0.121770077654076 
1829	 0.123872392750922 
1830	 0.126621949544041 
1831	 0.117952612308834 
1832	 0.119456658612371 
1833	 0.144121080109067 
1834	 0.163241555224497 
1835	 0.173453593745093 
1836	 0.1969252756677 
1837	 0.24076258103218 
1838	 0.264580065197786 
1839	 0.274407364238011 
1840	 0.262679284560829 
1841	 0.257849923016236 
1842	 0.232540759451922 
1843	 0.208720829868145 
1844	 0.191325503001484 
1845	 0.172396165164991 
1846	 0.134827851180669 
1847	 0.11553904033099 
1848	 0.100892221708814 
1849	 7.83817527286119E-02 
1850	 8.49641137021679E-02 
1851	 0.122020463568469 
1852	 0.136756332495462 
1853	 0.167077380202748 
1854	 0.183392054599625 
1855	 0.177463599396603 
1856	 0.18030293048483 
1857	 0.193702472241436 
1858	 0.193591556878743 
1859	 0.182950537559089 
1860	 0.158695898029632 
1861	 0.1510259204614 
1862	 0.143637983361718 
1863	 0.12911726441146 
1864	 0.108348942918961 
1865	 0.106473827915372 
1866	 0.106542085970643 
1867	 0.101036721708922 
1868	 0.134749809240658 
1869	 0.164346358291805 
1870	 0.168783967779939 
1871	 0.141799052771779 
1872	 0.135479187724764 
1873	 0.126996884969318 
1874	 0.113781978455037 
1875	 0.113121721791846 
1876	 0.102407850387498 
1877	 8.57738786936005E-02 
1878	 7.22456811327689E-02 
1879	 6.55604017235058E-02 
1880	 5.74635433037523E-02 
1881	 5.34953939990803E-02 
1882	 5.08029327522143E-02 
1883	 5.08839193209442E-02 
1884	 0.051749610223206 
1885	 5.46938253901021E-02 
1886	 5.99241847889578E-02 
1887	 6.82655352926378E-02 
1888	 7.11777166603434E-02 
1889	 6.92529373957185E-02 
1890	 6.85988183303397E-02 
1891	 0.064244107096253 
1892	 6.03260862772538E-02 
1893	 5.50263268343933E-02 
1894	 5.43561516335498E-02 
1895	 0.052725985474115 
1896	 5.28359591053879E-02 
1897	 6.22071383737051E-02 
1898	 6.85937010976955E-02 
1899	 6.16683904389501E-02 
1900	 5.79724546004834E-02 
1901	 5.93552842436872E-02 
1902	 5.93079336191065E-02 
1903	 6.39903504965409E-02 
1904	 8.60021694273872E-02 
1905	 9.77412031312884E-02 
1906	 0.110253146549768 
1907	 0.106546759500126 
1908	 8.87603597953634E-02 
1909	 7.16240175527778E-02 
1910	 5.97604841274878E-02 
1911	 3.91153587204288E-02 
1912	 3.43163633051581E-02 
1913	 0.040441641439898 
1914	 4.08231263496294E-02 
1915	 4.04454088782333E-02 
1916	 4.22838316926097E-02 
1917	 4.74336471630263E-02 
1918	 4.36070688354752E-02 
1919	 4.49816262423376E-02 
1920	 4.49301416836863E-02 
1921	 3.92309417783231E-02 
1922	 3.63173630383317E-02 
1923	 3.30108779770122E-02 
1924	 2.64629156417319E-02 
1925	 2.56443742498581E-02 
1926	 2.71843374156383E-02 
1927	 2.85159229504596E-02 
1928	 3.23711886816345E-02 
1929	 3.57374855372431E-02 
1930	 3.51114797415293E-02 
1931	 3.42153675024972E-02 
1932	 3.47420636224424E-02 
1933	 3.30529869385202E-02 
1934	 3.23229972949344E-02 
1935	 3.24319284912933E-02 
1936	 3.30998057698329E-02 
1937	 3.48973628502895E-02 
1938	 3.42380056267161E-02 
1939	 3.34242427070089E-02 
1940	 3.17815556501118E-02 
1941	 2.99259931867452E-02 
1942	 2.74172077526048E-02 
1943	 2.60895283792639E-02 
1944	 2.69087337286072E-02 
1945	 2.67456415466472E-02 
1946	 2.62447012357865E-02 
1947	 2.58925095722239E-02 
1948	 2.54602775460937E-02 
1949	 2.51372173258061E-02 
1950	 2.44533508303745E-02 
1951	 2.46286945030303E-02 
1952	 2.57102786954315E-02 
1953	 2.65027405236177E-02 
1954	 2.62912498474391E-02 
1955	 2.60120087164605E-02 
1956	 2.55061738534272E-02 
1957	 2.51644757255809E-02 
1958	 2.51377753709798E-02 
1959	 2.58550612542552E-02 
1960	 2.60863258246446E-02 
1961	 2.62108982595265E-02 
1962	 2.60139172914347E-02 
1963	 2.62642903381023E-02 
1964	 2.65242077823177E-02 
1965	 0.026516624243308 
1966	 2.70422731056599E-02 
1967	 2.72348716986998E-02 
1968	 2.69129188935416E-02 
1969	 2.67382229057552E-02 
1970	 2.64190498953484E-02 
1971	 2.60558185630734E-02 
1972	 2.55371568831878E-02 
1973	 2.54772602620889E-02 
1974	 2.51753659253492E-02 
1975	 2.52920744674365E-02 
1976	 2.57019346430007E-02 
1977	 2.59735807899755E-02 
1978	 2.64030539283047E-02 
1979	 2.67295116597803E-02 
1980	 0.026660860025682 
1981	 2.66545640188337E-02 
1982	 0.02669977744092 
1983	 2.67000296003555E-02 
1984	 2.66258999748995E-02 
1985	 2.68192039500026E-02 
1986	 2.70523275539901E-02 
1987	 2.73205126263042E-02 
1988	 0.027719383650849 
1989	 2.79373300362067E-02 
1990	 2.80215479763659E-02 
1991	 2.79593066443921E-02 
1992	 2.80598071479346E-02 
1993	 2.88123339760793E-02 
1994	 2.92140021697177E-02 
1995	 2.94475075991663E-02 
1996	 2.97009850943015E-02 
1997	 2.97977653132235E-02 
1998	 2.88882605986333E-02 
1999	 2.88132249925401E-02 
2000	 2.89990867831949E-02 
2001	 0.028947215843017 
2002	 2.99390223862039E-02 
2003	 3.07064804173961E-02 
2004	 3.09313831087634E-02 
2005	 3.19122992517299E-02 
2006	 3.21230564552465E-02 
2007	 3.16192159565789E-02 
2008	 3.06971539768786E-02 
2009	 3.10834562135678E-02 
2010	 3.09327984450565E-02 
2011	 0.031060703582775 
2012	 3.19821090483811E-02 
2013	 3.21252897029747E-02 
2014	 3.21183819277421E-02 
2015	 3.24751000386761E-02 
2016	 3.20324140652763E-02 
2017	 3.16695313434163E-02 
2018	 3.17923116969995E-02 
2019	 3.18212729776759E-02 
2020	 3.16692490263984E-02 
2021	 3.21464047781514E-02 
2022	 3.24747852081067E-02 
2023	 3.24251370141561E-02 
2024	 3.27311776784142E-02 
2025	 0.03292010414009 
2026	 3.27744154064435E-02 
2027	 3.26000696597999E-02 
2028	 3.25708352929296E-02 
2029	 3.26097231739804E-02 
2030	 3.28758179564394E-02 
2031	 3.35506418243824E-02 
2032	 3.37840552125615E-02 
2033	 3.37906934311485E-02 
2034	 3.34367656571252E-02 
2035	 3.35708422119364E-02 
2036	 3.35914120370922E-02 
2037	 3.37855886174006E-02 
2038	 3.43371439192507E-02 
2039	 3.44321246183194E-02 
2040	 3.45589396068819E-02 
2041	 3.47613081709951E-02 
2042	 3.47175272443033E-02 
2043	 3.46992955550363E-02 
2044	 3.46715477232954E-02 
2045	 3.45707208227416E-02 
2046	 3.42373544996505E-02 
2047	 3.40950631600801E-02 
2048	 0.03450506255586 
2049	 3.47880631943821E-02 
2050	 3.49542967434358E-02 
2051	 0.035257208988823 
2052	 3.52003765936644E-02 
2053	 3.52207971346253E-02 
2054	 3.52384618667537E-02 
2055	 3.53851987468194E-02 
2056	 3.57394960746859E-02 
2057	 0.035801162339577 
2058	 3.60540302595492E-02 
2059	 3.62982168977893E-02 
2060	 3.65987740446663E-02 
2061	 3.68224270293664E-02 
2062	 3.70661659559407E-02 
2063	 3.71055368176337E-02 
2064	 3.73182265865605E-02 
2065	 3.73271785285707E-02 
2066	 3.72151715086603E-02 
2067	 3.73856401107355E-02 
2068	 3.75484892347226E-02 
2069	 3.77040201657406E-02 
2070	 3.80799293348724E-02 
2071	 3.85597546917734E-02 
2072	 3.87174192213117E-02 
2073	 3.87425011933188E-02 
2074	 3.86509674873862E-02 
2075	 0.038435676021212 
2076	 0.03817590787164 
2077	 3.82482990711409E-02 
2078	 3.84218273571543E-02 
2079	 3.87444373527345E-02 
2080	 3.92764288861267E-02 
2081	 3.93225916567936E-02 
2082	 3.93338367783871E-02 
2083	 3.95253927582764E-02 
2084	 3.93718890147299E-02 
2085	 3.93300746426454E-02 
2086	 3.94439179692297E-02 
2087	 3.95011606223119E-02 
2088	 3.94712499803058E-02 
2089	 0.039361182811898 
2090	 3.96208165965773E-02 
2091	 4.02044449088685E-02 
2092	 4.04212797504858E-02 
2093	 4.08224717541912E-02 
2094	 4.13070588538874E-02 
2095	 4.12587246701752E-02 
2096	 4.13582904427851E-02 
2097	 4.14682716846277E-02 
2098	 4.14386252715274E-02 
2099	 4.15904018746189E-02 
2100	 4.16430555460512E-02 
2101	 4.18729782589631E-02 
2102	 4.21085153099301E-02 
2103	 4.23513224505377E-02 
2104	 4.24994660974222E-02 
2105	 4.27602707893956E-02 
2106	 4.29278847538959E-02 
2107	 4.33891412690477E-02 
2108	 4.38249374037667E-02 
2109	 0.044083273386602 
2110	 4.44428424074841E-02 
2111	 4.45262982114588E-02 
2112	 4.42635635017353E-02 
2113	 4.43970006593052E-02 
2114	 4.46035645120801E-02 
2115	 4.45229210750931E-02 
2116	 4.45989353866548E-02 
2117	 4.47938518646121E-02 
2118	 4.51369840504865E-02 
2119	 4.52998679932855E-02 
2120	 4.54133320369315E-02 
2121	 0.045835377337958 
2122	 4.60216876775063E-02 
2123	 4.58790545805865E-02 
2124	 0.046233277571872 
2125	 4.63837429419341E-02 
2126	 4.65572667928263E-02 
2127	 4.67054399147031E-02 
2128	 4.67414549893563E-02 
2129	 4.70961949388878E-02 
2130	 4.72161999420744E-02 
2131	 0.047228126063139 
2132	 4.76842141542168E-02 
2133	 4.79976623018559E-02 
2134	 4.82603609109702E-02 
2135	 4.85480956805996E-02 
2136	 4.89828560705305E-02 
2137	 4.90035701253264E-02 
2138	 4.89390388274974E-02 
2139	 4.89281624879004E-02 
2140	 4.89653375210556E-02 
2141	 0.049054987122872 
2142	 4.92481426170284E-02 
2143	 4.93541765590137E-02 
2144	 4.93714184997227E-02 
2145	 4.96329623271667E-02 
2146	 4.99035760133585E-02 
2147	 4.99907104998541E-02 
2148	 4.98562737557394E-02 
2149	 0.04993725028669 
2150	 5.01144149350797E-02 
2151	 5.01342152478089E-02 
2152	 5.02010556807184E-02 
2153	 5.04666931998239E-02 
2154	 5.07639711199258E-02 
2155	 5.07571915742637E-02 
2156	 5.11591563552239E-02 
2157	 5.13011236055734E-02 
2158	 5.08164816908918E-02 
2159	 5.04063579342814E-02 
2160	 5.02297129643557E-02 
2161	 5.02858681033859E-02 
2162	 5.07576034179624E-02 
2163	 5.16430636303786E-02 
2164	 5.23361436395431E-02 
2165	 5.28032396883481E-02 
2166	 5.31840309191745E-02 
2167	 5.32436131951677E-02 
2168	 5.31928087480526E-02 
2169	 5.26731769178116E-02 
2170	 5.26147381661009E-02 
2171	 5.27098503743213E-02 
2172	 5.26660921646578E-02 
2173	 5.28508804318052E-02 
2174	 5.31319684814189E-02 
2175	 5.30054003264876E-02 
2176	 5.29737344486824E-02 
2177	 5.31542961686239E-02 
2178	 5.32627689132101E-02 
2179	 5.33898190476352E-02 
2180	 5.35030459416153E-02 
2181	 5.32021511015213E-02 
2182	 5.30514452125385E-02 
2183	 0.053282767948276 
2184	 5.34434704353524E-02 
2185	 5.36610927702068E-02 
2186	 5.37325258928805E-02 
2187	 5.39014323969157E-02 
2188	 5.39951483726279E-02 
2189	 5.39916757122887E-02 
2190	 5.40088620216512E-02 
2191	 0.054272555478925 
2192	 5.39557397687948E-02 
2193	 5.39595175653606E-02 
2194	 5.45153201141974E-02 
2195	 5.46648983592813E-02 
2196	 5.44682442093446E-02 
2197	 5.44710272306453E-02 
2198	 5.46139484856156E-02 
2199	 5.42447013133255E-02 
2200	 0.054369576492734 
2201	 5.49737919876335E-02 
2202	 5.48270523478273E-02 
2203	 0.05504214181066 
2204	 5.55231813682009E-02 
2205	 5.52490465604383E-02 
2206	 5.52586849084302E-02 
2207	 5.53849066915391E-02 
2208	 5.54521372297265E-02 
2209	 5.56248389383608E-02 
2210	 5.57335189197707E-02 
2211	 5.58403832994674E-02 
2212	 5.57938656463099E-02 
2213	 5.53788734107512E-02 
2214	 5.53055708145934E-02 
2215	 5.50573821956212E-02 
2216	 5.48242599742822E-02 
2217	 5.50969481359061E-02 
2218	 5.49126504279594E-02 
2219	 5.47947913084724E-02 
2220	 0.05499508093756 
2221	 5.49059740823174E-02 
2222	 5.49369907351613E-02 
2223	 5.50521933518762E-02 
2224	 5.49748894285501E-02 
2225	 0.054783350885292 
2226	 5.44122520291795E-02 
2227	 5.45728726808084E-02 
2228	 5.48950963734963E-02 
2229	 5.50023255326362E-02 
2230	 5.54532109758248E-02 
2231	 5.54594657447225E-02 
2232	 5.46108306938745E-02 
2233	 5.41739043339739E-02 
2234	 5.36945923870635E-02 
2235	 5.36730172158829E-02 
2236	 5.38010234443421E-02 
2237	 5.42051884745758E-02 
2238	 5.42885162461443E-02 
2239	 0.053893706352567 
2240	 5.30299658973545E-02 
2241	 5.21730846015592E-02 
2242	 0.051784016343245 
2243	 5.12873491959707E-02 
2244	 5.08272227355904E-02 
2245	 5.08018936809627E-02 
2246	 5.08974659832153E-02 
2247	 5.08513645180236E-02 
2248	 5.08797085397388E-02 
2249	 5.05304022099735E-02 
2250	 4.97413357406097E-02 
2251	 4.95260189133353E-02 
2252	 0.049984699292921 
2253	 5.03310423676863E-02 
2254	 5.06929708986223E-02 
2255	 5.03686182234906E-02 
2256	 5.02513564171524E-02 
2257	 4.96261182996198E-02 
2258	 5.01542888746455E-02 
2259	 5.02783903074596E-02 
2260	 5.02465278527305E-02 
2261	 4.97400890490033E-02 
2262	 4.82908745689782E-02 
2263	 4.73015158663341E-02 
2264	 4.67625472358348E-02 
2265	 4.71560499601577E-02 
2266	 4.75819011782753E-02 
2267	 4.79754390036771E-02 
2268	 0.048362524381079 
2269	 4.77764213266763E-02 
2270	 4.73214227685214E-02 
2271	 4.68133207247017E-02 
2272	 4.61414611127592E-02 
2273	 4.67093424062177E-02 
2274	 0.047087973570305 
2275	 4.64562463906476E-02 
2276	 4.66318391706842E-02 
2277	 4.62028322720184E-02 
2278	 4.51032467347493E-02 
2279	 4.51124514068549E-02 
2280	 4.51535210662094E-02 
2281	 0.044592804802876 
2282	 4.45341812206755E-02 
2283	 4.47597871875081E-02 
2284	 4.40157340246294E-02 
2285	 4.42146354050914E-02 
2286	 4.42912497409704E-02 
2287	 4.45212539494147E-02 
2288	 4.37571280100041E-02 
2289	 4.35340210399735E-02 
2290	 4.26117946819469E-02 
2291	 4.18906229733522E-02 
2292	 4.16094528885175E-02 
2293	 4.18803317266565E-02 
2294	 4.23871782451722E-02 
2295	 4.23323183783164E-02 
2296	 4.34849183843327E-02 
2297	 4.36791716696268E-02 
2298	 4.28874271033346E-02 
2299	 4.30377298385307E-02 
2300	 4.17794436149953E-02 
2301	 4.02486180814573E-02 
2302	 4.00802774342915E-02 
2303	 0.039700339074198 
2304	 3.90523011760932E-02 
2305	 3.86787021471115E-02 
2306	 3.82950632626904E-02 
2307	 3.81116518098725E-02 
2308	 3.85312201683902E-02 
2309	 3.85661122837364E-02 
2310	 3.84261173700964E-02 
2311	 3.82010972753783E-02 
2312	 3.80009884723942E-02 
2313	 3.90050075429151E-02 
2314	 3.99295523074002E-02 
2315	 4.04982562263371E-02 
2316	 4.09372046558666E-02 
2317	 4.03583661402979E-02 
2318	 3.98121470831389E-02 
2319	 3.96224928336622E-02 
2320	 3.94649582042728E-02 
2321	 0.039115754451368 
2322	 3.85835896647948E-02 
2323	 3.80502543444272E-02 
2324	 3.73458794339991E-02 
2325	 3.70717067113867E-02 
2326	 3.71334733921059E-02 
2327	 3.86070159879945E-02 
2328	 4.00983436616411E-02 
2329	 3.96234812502081E-02 
2330	 3.88613768164778E-02 
2331	 3.81301817322358E-02 
2332	 3.69592674862814E-02 
2333	 3.69909118762073E-02 
2334	 3.66501578467589E-02 
2335	 3.62004532016602E-02 
2336	 3.57149876085624E-02 
2337	 0.033670565495687 
2338	 3.34794657069944E-02 
2339	 3.39379869202345E-02 
2340	 3.34745560780296E-02 
2341	 3.44936984195229E-02 
2342	 3.52898984214277E-02 
2343	 0.034261656149557 
2344	 3.34546407294756E-02 
2345	 3.29079388540463E-02 
2346	 3.14666718132482E-02 
2347	 3.14753453550725E-02 
2348	 3.21886320288399E-02 
2349	 3.26766570369508E-02 
2350	 3.43228933791449E-02 
2351	 0.034405307546934 
2352	 3.31404514259887E-02 
2353	 3.20508354264096E-02 
2354	 3.09205797219704E-02 
2355	 3.07250733439132E-02 
2356	 3.09173314255849E-02 
2357	 0.032364756370479 
2358	 3.33089728261388E-02 
2359	 3.25376993934796E-02 
2360	 3.31269785203709E-02 
2361	 3.30735875123316E-02 
2362	 3.25865628786155E-02 
2363	 3.38106767068285E-02 
2364	 3.40725954068484E-02 
2365	 3.44295601895116E-02 
2366	 3.50001163839945E-02 
2367	 3.43725841743235E-02 
2368	 0.034156843317967 
2369	 3.39953312470424E-02 
2370	 0.033729908846561 
2371	 3.40101669069184E-02 
2372	 3.40511974909007E-02 
2373	 3.35588453246935E-02 
2374	 3.37309916061164E-02 
2375	 3.49265225638776E-02 
2376	 0.034415868409476 
2377	 0.033010651638047 
2378	 3.22051138633602E-02 
2379	 3.03793936025142E-02 
2380	 0.029961750112032 
2381	 3.03555846280995E-02 
2382	 3.11414684032187E-02 
2383	 3.32119697173722E-02 
2384	 3.36473899532642E-02 
2385	 3.46820223247476E-02 
2386	 3.48710331696098E-02 
2387	 3.25298888381526E-02 
2388	 3.25028992825956E-02 
2389	 3.30394565047047E-02 
2390	 3.31780282971729E-02 
2391	 3.50907805794961E-02 
2392	 3.50807127563598E-02 
2393	 3.35215237340762E-02 
2394	 0.033759578418695 
2395	 3.41492204000806E-02 
2396	 3.38239156773794E-02 
2397	 3.34204207077494E-02 
2398	 3.34201697892805E-02 
2399	 3.33252894722429E-02 
2400	 3.35738656576797E-02 
2401	 0.034474366273266 
2402	 3.60350894339763E-02 
2403	 3.63084290918127E-02 
2404	 3.54705602957778E-02 
2405	 3.56282759513274E-02 
2406	 3.55757400983985E-02 
2407	 3.87894484901506E-02 
2408	 3.96115025764343E-02 
2409	 0.036043860432577 
2410	 3.57542690784686E-02 
2411	 3.26005790024675E-02 
2412	 2.86708484224923E-02 
2413	 3.14385174190459E-02 
2414	 3.32553121069206E-02 
2415	 3.17834886064067E-02 
2416	 3.25633568527183E-02 
2417	 3.14570436509226E-02 
2418	 3.01139471548835E-02 
2419	 3.11572034022341E-02 
2420	 3.20634399069455E-02 
2421	 3.42476930952207E-02 
2422	 3.33310704469015E-02 
2423	 3.06791182109349E-02 
2424	 2.86225253502529E-02 
2425	 2.66262989628874E-02 
2426	 2.74679294824658E-02 
2427	 2.77918866502483E-02 
2428	 2.76301893540793E-02 
2429	 2.89751082501544E-02 
2430	 2.70674390871583E-02 
2431	 0.025006057370569 
2432	 2.30548278395682E-02 
2433	 2.56933977358224E-02 
2434	 2.57373192827897E-02 
2435	 2.49900562875555E-02 
2436	 2.57896032962116E-02 
2437	 2.30538996396715E-02 
2438	 2.24133587840685E-02 
2439	 2.58429077621218E-02 
2440	 2.74458439246705E-02 
2441	 2.99099866823373E-02 
2442	 3.07455750098257E-02 
2443	 3.19997253277135E-02 
2444	 0.031403073505255 
2445	 2.38757418783779E-02 
2446	 2.26400075797646E-02 
2447	 2.71921664531648E-02 
2448	 2.68089493274579E-02 
2449	 2.85414765277864E-02 
2450	 2.80188433534437E-02 
2451	 1.71336867168009E-02 
2452	 1.43990200941921E-02 
2453	 1.94706264701182E-02 
2454	 2.04650592759245E-02 
2455	 2.24782388790344E-02 
2456	 2.41880661415547E-02 
2457	 2.32729351020401E-02 
2458	 2.36390266503464E-02 
2459	 2.87052713451786E-02 
2460	 2.76250611877259E-02 
2461	 2.03710158054273E-02 
2462	 1.72075614674891E-02 
2463	 1.01913039048401E-02 
2464	 8.14824647828435E-03 
2465	 0.013723859350812 
2466	 1.53638219456886E-02 
2467	 1.71146010714205E-02 
2468	 1.87875487545658E-02 
2469	 0.0187634234735 
2470	 2.13302303085228E-02 
2471	 2.65425442002382E-02 
2472	 0.031944758070511 
2473	 4.10702470734129E-02 
2474	 4.05927191356824E-02 
2475	 3.27967187818682E-02 
2476	 2.96996339469222E-02 
2477	 1.49833905344016E-02 
2478	 1.95438226947527E-02 
2479	 5.00829185491443E-02 
2480	 6.26940864897887E-02 
2481	 7.78377835365712E-02 
2482	 8.63660394721616E-02 
2483	 7.95597477245163E-02 
2484	 6.96615996391775E-02 
2485	 0.047336782676804 
2486	 4.76036725090111E-02 
2487	 2.81820950187153E-02 
2488	 3.98973223119357E-02 
2489	 8.97964659510125E-02 
2490	 6.80784396938728E-02 
2491	 5.66544594900782E-02 
2492	 5.74936391303935E-02 
2493	 6.55978091768775E-02 
2494	 0.128235539062647 
2495	 0.151278379821955 
2496	 0.160663408920381 
2497	 0.133738829401779 
2498	 7.23615802878867E-02 
2499	 0.105218187761676 
2500	 0.111412190120433 
