Wavelength	ref00056.asd
350	 1.80448809550803E-02 
351	 1.79346804457698E-02 
352	 1.65773636197417E-02 
353	 1.77547539822994E-02 
354	 1.76064516057415E-02 
355	 1.70912413554321E-02 
356	 1.71029356036564E-02 
357	 1.65208967297123E-02 
358	 1.66173492156622E-02 
359	 1.67081777865138E-02 
360	 1.60531104382927E-02 
361	 1.63256194331969E-02 
362	 0.01657446974717 
363	 1.67730904562177E-02 
364	 1.73843952140768E-02 
365	 1.66959122950202E-02 
366	 1.62074097662194E-02 
367	 1.66109468373649E-02 
368	 1.69728686153021E-02 
369	 1.67970946751235E-02 
370	 0.016572156543519 
371	 1.67135147827853E-02 
372	 1.65891223464742E-02 
373	 1.65127698752977E-02 
374	 1.63596221815603E-02 
375	 1.59129573806092E-02 
376	 1.60201382891396E-02 
377	 1.62384310593787E-02 
378	 1.63458508642968E-02 
379	 1.65282776071792E-02 
380	 1.65145714739045E-02 
381	 1.65969180578661E-02 
382	 0.016899170134241 
383	 0.016763139909684 
384	 1.66333836667323E-02 
385	 1.66148630432361E-02 
386	 1.66817012883377E-02 
387	 1.70044273824795E-02 
388	 1.72118200355032E-02 
389	 1.71777406688587E-02 
390	 1.70862675895994E-02 
391	 1.72955471100899E-02 
392	 1.74602429921938E-02 
393	 1.73192295600683E-02 
394	 0.016995085525162 
395	 1.75183597888917E-02 
396	 1.81034490682129E-02 
397	 1.77557420120285E-02 
398	 1.80229748958091E-02 
399	 1.80814958436594E-02 
400	 1.79216599065476E-02 
401	 1.82236537852933E-02 
402	 1.81225929732635E-02 
403	 1.82175171652217E-02 
404	 1.87098099954191E-02 
405	 1.85137565429263E-02 
406	 1.88963216146747E-02 
407	 1.93161963156855E-02 
408	 1.89914245092765E-02 
409	 1.92640801045236E-02 
410	 1.95972799067051E-02 
411	 1.97540496602326E-02 
412	 0.0198492118057 
413	 1.99516259180343E-02 
414	 2.00962648696121E-02 
415	 2.03135486230058E-02 
416	 2.06624159756284E-02 
417	 2.09684622401802E-02 
418	 2.10504392326107E-02 
419	 2.08973709035493E-02 
420	 0.021284784135752 
421	 2.14902464823125E-02 
422	 2.14472072344741E-02 
423	 2.17032229855415E-02 
424	 2.20701003182364E-02 
425	 2.23277004405353E-02 
426	 2.24088771417415E-02 
427	 2.25857951762495E-02 
428	 2.27514494645494E-02 
429	 2.28898973363504E-02 
430	 2.30216035222571E-02 
431	 2.31981215215312E-02 
432	 2.33961184526841E-02 
433	 2.35935003076333E-02 
434	 0.023767679511836 
435	 2.37562942568551E-02 
436	 2.37730639899313E-02 
437	 2.39388455666011E-02 
438	 2.40740527391005E-02 
439	 2.41568671220642E-02 
440	 2.42494642644613E-02 
441	 2.44303223565678E-02 
442	 2.46777166106545E-02 
443	 2.48549685055616E-02 
444	 2.49076596572486E-02 
445	 2.48790289237028E-02 
446	 2.51537635830175E-02 
447	 2.54180855129173E-02 
448	 2.54561721425992E-02 
449	 2.56106958936393E-02 
450	 2.57019695474331E-02 
451	 2.58045541113944E-02 
452	 2.60428648010293E-02 
453	 2.61417792928287E-02 
454	 2.62667427619162E-02 
455	 2.64782264440399E-02 
456	 2.66737113719077E-02 
457	 2.66362908527132E-02 
458	 0.026577336163122 
459	 2.66839386249057E-02 
460	 2.67669972667883E-02 
461	 2.68026304663382E-02 
462	 2.68603345899916E-02 
463	 2.70197717891049E-02 
464	 2.69463264101839E-02 
465	 2.69224289132031E-02 
466	 2.70516407033415E-02 
467	 2.70741215778759E-02 
468	 2.71681521246192E-02 
469	 2.71790702539191E-02 
470	 2.70009254125696E-02 
471	 2.70422554485148E-02 
472	 2.71568023848315E-02 
473	 2.72459995933523E-02 
474	 2.72699460039773E-02 
475	 2.73875007844184E-02 
476	 2.74633842310485E-02 
477	 2.74505054840641E-02 
478	 2.75429633634496E-02 
479	 2.76444792112617E-02 
480	 2.77121209962729E-02 
481	 0.027733844170739 
482	 2.77566043464392E-02 
483	 2.78656845343873E-02 
484	 2.80813127291622E-02 
485	 2.83428846361515E-02 
486	 2.83672693287976E-02 
487	 0.028450944339336 
488	 2.87585645122476E-02 
489	 0.028788785717592 
490	 2.89466402041686E-02 
491	 2.91910513127911E-02 
492	 2.93432819743284E-02 
493	 2.96400094281604E-02 
494	 2.99845403877613E-02 
495	 3.03066225127033E-02 
496	 3.06019604997239E-02 
497	 3.08721955284735E-02 
498	 0.03123516622674 
499	 3.17649230423164E-02 
500	 0.032301494055177 
501	 3.29290511251351E-02 
502	 0.033578680571224 
503	 3.41238242699923E-02 
504	 3.48316283389196E-02 
505	 3.55604097484465E-02 
506	 3.62744432417377E-02 
507	 3.71960794006175E-02 
508	 3.80715574589714E-02 
509	 3.89449116464029E-02 
510	 3.99392133554109E-02 
511	 4.10947510146034E-02 
512	 4.23116154535247E-02 
513	 0.043493420778685 
514	 4.45805140417579E-02 
515	 4.59434924237177E-02 
516	 0.047369436830057 
517	 0.048703603357638 
518	 5.02288928918886E-02 
519	 5.17116021010542E-02 
520	 5.30691512102687E-02 
521	 5.43245650245465E-02 
522	 0.055694982623689 
523	 5.69836196159382E-02 
524	 5.81565373016065E-02 
525	 5.93764610947601E-02 
526	 6.07002149115857E-02 
527	 6.19762896105739E-02 
528	 6.30525535981901E-02 
529	 6.39172038458495E-02 
530	 0.064733849334013 
531	 0.065519806929705 
532	 6.62249957034899E-02 
533	 6.70126422449642E-02 
534	 6.77063927265329E-02 
535	 6.82217714472624E-02 
536	 6.86893075282776E-02 
537	 0.069136691236485 
538	 6.95828844273399E-02 
539	 7.00328215365488E-02 
540	 7.04882650336657E-02 
541	 7.08366253475391E-02 
542	 7.10796662207604E-02 
543	 7.13220463040226E-02 
544	 7.16156361092509E-02 
545	 7.19661794639309E-02 
546	 7.23486206454782E-02 
547	 7.26916547604097E-02 
548	 7.30696052057769E-02 
549	 7.33821803105262E-02 
550	 7.35160509782373E-02 
551	 7.37739795743303E-02 
552	 7.38882509853641E-02 
553	 7.37957210243042E-02 
554	 7.37246125567608E-02 
555	 7.35687792468021E-02 
556	 7.33642340210891E-02 
557	 7.31459300907972E-02 
558	 7.28467156433119E-02 
559	 7.24716656684476E-02 
560	 7.20179013888345E-02 
561	 7.14958110519764E-02 
562	 7.11070382100948E-02 
563	 7.06886215104818E-02 
564	 0.070147887388618 
565	 6.96032241769827E-02 
566	 6.90542527724333E-02 
567	 6.84463204307704E-02 
568	 6.77410583012472E-02 
569	 6.70762414156766E-02 
570	 6.64290556368508E-02 
571	 6.57026319065383E-02 
572	 6.47625905221529E-02 
573	 6.39894548698195E-02 
574	 6.33230389425324E-02 
575	 6.26441821893599E-02 
576	 0.061924488953696 
577	 6.12126999162705E-02 
578	 6.05990036784157E-02 
579	 6.01458206062313E-02 
580	 5.95931356864649E-02 
581	 5.91172005998764E-02 
582	 5.87680349739507E-02 
583	 5.83793825526106E-02 
584	 5.79470634687232E-02 
585	 5.75581715284305E-02 
586	 5.72769314279558E-02 
587	 5.69574299991351E-02 
588	 5.67459302602945E-02 
589	 5.65867490713678E-02 
590	 5.62960647877783E-02 
591	 5.60451058216539E-02 
592	 5.58880391613132E-02 
593	 5.57989806009468E-02 
594	 5.56515430556736E-02 
595	 5.56203858167205E-02 
596	 5.55853502255237E-02 
597	 5.54002933237807E-02 
598	 5.53314479996941E-02 
599	 0.055189772648201 
600	 5.50077663883356E-02 
601	 5.50389464798964E-02 
602	 0.054907292780287 
603	 5.46938080236095E-02 
604	 5.45071887113455E-02 
605	 5.42651266645708E-02 
606	 5.40224939086536E-02 
607	 5.37281066063994E-02 
608	 5.33107660332578E-02 
609	 5.29460056017892E-02 
610	 0.052629331262238 
611	 5.23275471800486E-02 
612	 0.051993579201096 
613	 5.16129525481837E-02 
614	 5.12352633713539E-02 
615	 5.09089886872605E-02 
616	 5.06077321497375E-02 
617	 5.02563747701556E-02 
618	 4.98758460846292E-02 
619	 4.95527946118829E-02 
620	 4.93437124895758E-02 
621	 0.049172727707714 
622	 4.89884709856826E-02 
623	 4.88190949961094E-02 
624	 4.87185351981279E-02 
625	 4.86233482876752E-02 
626	 4.84858411376979E-02 
627	 4.85800369126857E-02 
628	 4.86396984962269E-02 
629	 4.86157349831619E-02 
630	 4.86830460153772E-02 
631	 4.86607416947761E-02 
632	 4.85340124467184E-02 
633	 4.83729348217245E-02 
634	 4.83895276787047E-02 
635	 4.82853443019471E-02 
636	 4.80588106939891E-02 
637	 4.78334493029293E-02 
638	 4.75540485047322E-02 
639	 4.72336084929846E-02 
640	 4.68783788599504E-02 
641	 4.64902510667824E-02 
642	 4.60900218486977E-02 
643	 4.56072218810687E-02 
644	 4.50389894598449E-02 
645	 4.46959386319686E-02 
646	 4.42816819914631E-02 
647	 4.38089132396578E-02 
648	 0.043461726710278 
649	 4.30690732753345E-02 
650	 4.27311995645222E-02 
651	 4.25026248898091E-02 
652	 4.23013279096129E-02 
653	 4.20812861933965E-02 
654	 4.18390937259001E-02 
655	 4.15990323307099E-02 
656	 4.14739661007162E-02 
657	 4.12537603760436E-02 
658	 4.08997794953281E-02 
659	 4.04928692556062E-02 
660	 4.01583765905845E-02 
661	 3.97260904355297E-02 
662	 3.91990656951762E-02 
663	 3.89705708537471E-02 
664	 3.87577457331482E-02 
665	 3.84348485607431E-02 
666	 3.80106999347004E-02 
667	 0.037867590367624 
668	 3.77933797536017E-02 
669	 0.037690211406178 
670	 3.75975741649397E-02 
671	 3.76394989576562E-02 
672	 0.037737874567789 
673	 3.78290243351569E-02 
674	 3.79752389971686E-02 
675	 3.81795077574913E-02 
676	 3.84654559104919E-02 
677	 3.88174912516472E-02 
678	 3.89696818427997E-02 
679	 3.92504398031054E-02 
680	 0.039735295462444 
681	 0.040204174506323 
682	 4.08058528781805E-02 
683	 4.15591711958713E-02 
684	 4.24265584184391E-02 
685	 4.32523392303392E-02 
686	 4.44432436454436E-02 
687	 4.60867465348706E-02 
688	 4.79159003255336E-02 
689	 4.96479464903954E-02 
690	 5.16796140122872E-02 
691	 5.41708998779218E-02 
692	 5.68289441314008E-02 
693	 5.99788663048185E-02 
694	 6.34519809336104E-02 
695	 6.70759139583396E-02 
696	 7.10646480242752E-02 
697	 7.52086503496843E-02 
698	 7.94634996042727E-02 
699	 8.38480032720626E-02 
700	 8.84278916642316E-02 
701	 9.32385405586836E-02 
702	 9.81525158252747E-02 
703	 0.102854043263999 
704	 0.10756703007371 
705	 0.112187358880499 
706	 0.116755936750184 
707	 0.121767074426248 
708	 0.126663695849487 
709	 0.131378028130552 
710	 0.136071165712796 
711	 0.140935457891594 
712	 0.1458408705671 
713	 0.15067698239928 
714	 0.155402722512916 
715	 0.160075310513483 
716	 0.164605586777526 
717	 0.16912769249234 
718	 0.174073135308729 
719	 0.179142276634257 
720	 0.184095091779603 
721	 0.188813183102558 
722	 0.193095740458391 
723	 0.197170263237182 
724	 0.201387218918965 
725	 0.205681830545108 
726	 0.209761732055701 
727	 0.213610409326782 
728	 0.217369669339187 
729	 0.221044370958842 
730	 0.22459776875225 
731	 0.227985780563677 
732	 0.231192193364172 
733	 0.234236229233834 
734	 0.236907078513778 
735	 0.239364527470845 
736	 0.241994198158126 
737	 0.244315380791407 
738	 0.24651977235963 
739	 0.248747846837047 
740	 0.250689678872547 
741	 0.252457112895423 
742	 0.254053973272647 
743	 0.255472637167178 
744	 0.256867371841496 
745	 0.257984982408758 
746	 0.25892242244319 
747	 0.260009493722189 
748	 0.260936378571215 
749	 0.261831685795561 
750	 0.262707052908483 
751	 0.263278227076328 
752	 0.263877143352781 
753	 0.264436800466091 
754	 0.26483991546817 
755	 0.265201859440616 
756	 0.265570417144118 
757	 0.265845409004085 
758	 0.265969300734441 
759	 0.267049767515761 
760	 0.26916224461621 
761	 0.271422521570472 
762	 0.270941601277266 
763	 0.270318988786676 
764	 0.270038990532734 
765	 0.269826775510689 
766	 0.269011645354128 
767	 0.268570925311277 
768	 0.268471950234791 
769	 0.268443760284107 
770	 0.268450174217848 
771	 0.268557270444236 
772	 0.268718912403493 
773	 0.268804928337297 
774	 0.268965707451431 
775	 0.269023621441537 
776	 0.268974311783157 
777	 0.269187897550601 
778	 0.269237817315701 
779	 0.269253327412749 
780	 0.269408543413174 
781	 0.269456096578935 
782	 0.269595381759177 
783	 0.269814626778618 
784	 0.269981307178367 
785	 0.270008045304351 
786	 0.270063955939121 
787	 0.27018538070284 
788	 0.270242853675419 
789	 0.270218488539553 
790	 0.270200926023389 
791	 0.270290565836601 
792	 0.270567626594192 
793	 0.270894305333797 
794	 0.271101499295999 
795	 0.271119894737609 
796	 0.271273484908595 
797	 0.271414075383734 
798	 0.271488940643236 
799	 0.271518937718971 
800	 0.271567608237835 
801	 0.271661022468359 
802	 0.271778189612733 
803	 0.271859034787075 
804	 0.272023452933091 
805	 0.272200250318043 
806	 0.27234867560943 
807	 0.272579852092969 
808	 0.272698950448948 
809	 0.272649294510573 
810	 0.272477282325329 
811	 0.272415180226952 
812	 0.272289171242095 
813	 0.27211896015688 
814	 0.272002082095191 
815	 0.271605939107447 
816	 0.271710464669301 
817	 0.272318413749075 
818	 0.272525693279526 
819	 0.272652827831411 
820	 0.272652467107282 
821	 0.272637950232616 
822	 0.273065157733003 
823	 0.273331943244111 
824	 0.273373574122053 
825	 0.27335154952657 
826	 0.273583391963014 
827	 0.273826090351241 
828	 0.273983790431025 
829	 0.274046913087907 
830	 0.274140382591161 
831	 0.27428832896667 
832	 0.274449470710981 
833	 0.274571226258822 
834	 0.274934943448895 
835	 0.275160305946259 
836	 0.275207633918495 
837	 0.27550275678769 
838	 0.275796645464761 
839	 0.27594428525008 
840	 0.275998709168586 
841	 0.276371302916908 
842	 0.276392464552093 
843	 0.276439526269874 
844	 0.276852877142176 
845	 0.276797857637482 
846	 0.276778074441095 
847	 0.276815822582147 
848	 0.276783659524537 
849	 0.276977897775026 
850	 0.277259324334829 
851	 0.277477206259189 
852	 0.27754261463591 
853	 0.277753951948275 
854	 0.278044259657888 
855	 0.278242791556527 
856	 0.278150067955026 
857	 0.278016130748056 
858	 0.27800620675753 
859	 0.278167751138274 
860	 0.278406786514037 
861	 0.27828676305132 
862	 0.278378866596486 
863	 0.278917310703651 
864	 0.278565907511043 
865	 0.278775632632377 
866	 0.279297934024632 
867	 0.279440804174338 
868	 0.279340267017505 
869	 0.279033844085529 
870	 0.278842766871119 
871	 0.279052433127951 
872	 0.279179555989089 
873	 0.279301022236166 
874	 0.27945013493153 
875	 0.279616226974131 
876	 0.27985558613757 
877	 0.279878795821704 
878	 0.279748619012242 
879	 0.279871228271538 
880	 0.280065422224721 
881	 0.280321126247676 
882	 0.28048314941175 
883	 0.280221529898479 
884	 0.280055868007796 
885	 0.280224370963189 
886	 0.280583028340766 
887	 0.280450217309747 
888	 0.280563197902644 
889	 0.280531399475368 
890	 0.280094913773009 
891	 0.28004117147114 
892	 0.279978091589362 
893	 0.279923136921256 
894	 0.279918063523966 
895	 0.279600868004692 
896	 0.279761927574173 
897	 0.279822915510542 
898	 0.2791857418224 
899	 0.280183010337814 
900	 0.280118916492942 
901	 0.279068700320525 
902	 0.278625051411842 
903	 0.279152371400698 
904	 0.279359722740662 
905	 0.279368646342177 
906	 0.279961968927583 
907	 0.27957484300733 
908	 0.279365382385209 
909	 0.279564418439123 
910	 0.279478144909543 
911	 0.279247009051708 
912	 0.279213240515693 
913	 0.2792332738221 
914	 0.278862027212118 
915	 0.279760929766769 
916	 0.28014296218114 
917	 0.279555812002745 
918	 0.279483723966155 
919	 0.279775144752691 
920	 0.279876709210658 
921	 0.279761435491021 
922	 0.280082911868233 
923	 0.279835245446175 
924	 0.279134378134618 
925	 0.278483430788149 
926	 0.278562652923888 
927	 0.278017624310258 
928	 0.277216714985238 
929	 0.276457384552578 
930	 0.275163050048797 
931	 0.275589227066896 
932	 0.275844817428367 
933	 0.274356565512978 
934	 0.273265705251847 
935	 0.272755581358464 
936	 0.272728113002176 
937	 0.272375480825177 
938	 0.270121580286995 
939	 0.269647794212729 
940	 0.270787992546081 
941	 0.271812226514537 
942	 0.270029075867611 
943	 0.271104513990836 
944	 0.271458761278398 
945	 0.268928204761689 
946	 0.269526886429398 
947	 0.269026433043066 
948	 0.268254223488912 
949	 0.26825112578334 
950	 0.267735168359272 
951	 0.266870387123854 
952	 0.265966125832807 
953	 0.265555696753219 
954	 0.266437858099514 
955	 0.266625056262232 
956	 0.266703326190911 
957	 0.266715290513825 
958	 0.26443680186446 
959	 0.263983387161046 
960	 0.265075469310852 
961	 0.265932150531201 
962	 0.26443930709422 
963	 0.263872061436647 
964	 0.264453580545065 
965	 0.265267729132945 
966	 0.264942061568938 
967	 0.26602296349087 
968	 0.26615852723665 
969	 0.264902068707651 
970	 0.265985893113416 
971	 0.265194808568171 
972	 0.264821294718512 
973	 0.266158354405292 
974	 0.267190948985395 
975	 0.266445205531727 
976	 0.265862831171764 
977	 0.266422358734759 
978	 0.266886491255109 
979	 0.266235712906744 
980	 0.266164938314723 
981	 0.266465170905626 
982	 0.264918242235094 
983	 0.26482746976739 
984	 0.265665726658457 
985	 0.266622983376241 
986	 0.267263302537193 
987	 0.268367741939011 
988	 0.267973243165827 
989	 0.267140747347812 
990	 0.268499593671452 
991	 0.267941165417046 
992	 0.268461838676247 
993	 0.269548400839231 
994	 0.268866475747581 
995	 0.268445575938572 
996	 0.269774490564064 
997	 0.270239282569403 
998	 0.267522223029052 
999	 0.268883152965598 
1000	 0.270573088611929 
1001	 0.281346125787807 
1002	 0.281594963033207 
1003	 0.281869413107409 
1004	 0.28222858953031 
1005	 0.282433327495833 
1006	 0.282535964737996 
1007	 0.282736245218848 
1008	 0.282807463514933 
1009	 0.283053773112602 
1010	 0.283521426352429 
1011	 0.283813874818562 
1012	 0.284063570068718 
1013	 0.284435381650568 
1014	 0.284573573411344 
1015	 0.284871307000769 
1016	 0.285191685795289 
1017	 0.28531380008154 
1018	 0.285466374728222 
1019	 0.285516413022992 
1020	 0.285720590740154 
1021	 0.28601266033093 
1022	 0.286268023423638 
1023	 0.286661880436216 
1024	 0.286877763777433 
1025	 0.286980665066925 
1026	 0.287226351210966 
1027	 0.287535023047063 
1028	 0.28789943811636 
1029	 0.288173751298671 
1030	 0.288201292378188 
1031	 0.288180310592004 
1032	 0.288326046072718 
1033	 0.28845153812851 
1034	 0.288596186918312 
1035	 0.28878822942355 
1036	 0.28903346616627 
1037	 0.289166128224099 
1038	 0.289258262255576 
1039	 0.2895072001836 
1040	 0.289539881700193 
1041	 0.289638281772247 
1042	 0.289906444361759 
1043	 0.290145165627771 
1044	 0.290405294194443 
1045	 0.290575182475755 
1046	 0.290585512603509 
1047	 0.290582186764979 
1048	 0.290699563139316 
1049	 0.290844197856633 
1050	 0.29095824174896 
1051	 0.291094697285592 
1052	 0.291274448316349 
1053	 0.291395668263079 
1054	 0.291608349064293 
1055	 0.291941882973742 
1056	 0.292132895725996 
1057	 0.292257814738196 
1058	 0.292387215973362 
1059	 0.292536042446794 
1060	 0.292702829105558 
1061	 0.292883068434069 
1062	 0.293054607713347 
1063	 0.293185251531892 
1064	 0.293336780252093 
1065	 0.293468161081889 
1066	 0.293614294041515 
1067	 0.293744811201694 
1068	 0.293777471354944 
1069	 0.293837045997642 
1070	 0.2940230382687 
1071	 0.294123428801661 
1072	 0.294276671212998 
1073	 0.294452893243699 
1074	 0.29441385805241 
1075	 0.294395341494524 
1076	 0.294421621164048 
1077	 0.294364197077084 
1078	 0.294366279094996 
1079	 0.294430648745653 
1080	 0.294561436439427 
1081	 0.294630401464978 
1082	 0.294747198533113 
1083	 0.294717085180201 
1084	 0.294593936062858 
1085	 0.294436020356742 
1086	 0.294241924389497 
1087	 0.294195570408566 
1088	 0.294175260452715 
1089	 0.294102419693679 
1090	 0.29407866969106 
1091	 0.293917761520314 
1092	 0.293685774489197 
1093	 0.293614022581416 
1094	 0.293562106784004 
1095	 0.293441694766535 
1096	 0.293278874787422 
1097	 0.293156008389074 
1098	 0.292902368915578 
1099	 0.292514377275073 
1100	 0.292132267762504 
1101	 0.29170793616374 
1102	 0.291327594611044 
1103	 0.290905819977404 
1104	 0.290596580164778 
1105	 0.29047400758926 
1106	 0.290266597314101 
1107	 0.289951270170215 
1108	 0.289618060239136 
1109	 0.28908450943384 
1110	 0.2884688846716 
1111	 0.287863705665985 
1112	 0.287187493829593 
1113	 0.286481526047765 
1114	 0.285669501699389 
1115	 0.284879911503544 
1116	 0.284098619656964 
1117	 0.283238247621258 
1118	 0.282237886012137 
1119	 0.281292740457512 
1120	 0.280266526865659 
1121	 0.279123170207453 
1122	 0.278190219649739 
1123	 0.277424763455609 
1124	 0.276768472896684 
1125	 0.276310285326829 
1126	 0.27575255294302 
1127	 0.275331359028064 
1128	 0.27480973155901 
1129	 0.274229552511843 
1130	 0.273665600223773 
1131	 0.273198292069822 
1132	 0.272578436657512 
1133	 0.271908784886561 
1134	 0.271245536716974 
1135	 0.270432716301958 
1136	 0.269470220750466 
1137	 0.268488456927533 
1138	 0.267604436691 
1139	 0.26673409242749 
1140	 0.265750435655092 
1141	 0.264672007107113 
1142	 0.263406050269438 
1143	 0.261991152217224 
1144	 0.260174758857162 
1145	 0.258761735092918 
1146	 0.257285382532538 
1147	 0.25604531247175 
1148	 0.255262938735306 
1149	 0.254265412194204 
1150	 0.253196781160854 
1151	 0.252362813460726 
1152	 0.25162909677369 
1153	 0.25085226378614 
1154	 0.250414300136409 
1155	 0.250189943699699 
1156	 0.249916963802256 
1157	 0.249675122767555 
1158	 0.249410385334536 
1159	 0.249118968566268 
1160	 0.248917672264715 
1161	 0.248752183255772 
1162	 0.24858938396817 
1163	 0.248530161561291 
1164	 0.248348291423283 
1165	 0.248111744812587 
1166	 0.24787275578341 
1167	 0.247536131150575 
1168	 0.247288045049892 
1169	 0.247056024852573 
1170	 0.24685633394827 
1171	 0.246661534663713 
1172	 0.24649463850404 
1173	 0.246299863668634 
1174	 0.246065201540444 
1175	 0.245906017177989 
1176	 0.245721479329956 
1177	 0.245507928006983 
1178	 0.245312054743906 
1179	 0.245030336569819 
1180	 0.244656339453832 
1181	 0.244332768207872 
1182	 0.243955139009616 
1183	 0.243654522303429 
1184	 0.243415218427169 
1185	 0.243166469376868 
1186	 0.242872855164318 
1187	 0.242705044964682 
1188	 0.242636165153321 
1189	 0.242558208718808 
1190	 0.242430086435108 
1191	 0.242328927979248 
1192	 0.242205569764649 
1193	 0.241978857528761 
1194	 0.241778372309266 
1195	 0.241609838716171 
1196	 0.241448759701283 
1197	 0.241189047431591 
1198	 0.241075405766205 
1199	 0.241109856446635 
1200	 0.24104565827579 
1201	 0.240952282947842 
1202	 0.240920280770596 
1203	 0.240822802178079 
1204	 0.240877895762138 
1205	 0.241137535364277 
1206	 0.241272234333373 
1207	 0.241403459570358 
1208	 0.241545429398421 
1209	 0.241635230564803 
1210	 0.241713689478711 
1211	 0.241871518783281 
1212	 0.242060120178917 
1213	 0.242243746917502 
1214	 0.242377531624418 
1215	 0.242651917121591 
1216	 0.243038699150566 
1217	 0.243356142705171 
1218	 0.24374865967939 
1219	 0.244054761719947 
1220	 0.244263079503277 
1221	 0.244530101659513 
1222	 0.244823502062907 
1223	 0.245101237901705 
1224	 0.245351371661185 
1225	 0.245651239181519 
1226	 0.24597486719544 
1227	 0.246284217095608 
1228	 0.246622336842422 
1229	 0.246970539345637 
1230	 0.247279037515426 
1231	 0.247577963659058 
1232	 0.247911093848717 
1233	 0.248286713511783 
1234	 0.248611125333151 
1235	 0.248951751527861 
1236	 0.249219538182102 
1237	 0.249403021166618 
1238	 0.249648362440906 
1239	 0.249916428726664 
1240	 0.250127899616398 
1241	 0.250309305759992 
1242	 0.250534713128587 
1243	 0.250742801323817 
1244	 0.250937761289409 
1245	 0.251203290702964 
1246	 0.251410810494825 
1247	 0.251542300723929 
1248	 0.251684102959579 
1249	 0.251855938779862 
1250	 0.251967249160216 
1251	 0.252024388564014 
1252	 0.252076436440768 
1253	 0.252122180551463 
1254	 0.25212605533886 
1255	 0.252159468672517 
1256	 0.252173993563946 
1257	 0.252266822828497 
1258	 0.252435808460467 
1259	 0.252519300610732 
1260	 0.252646880909016 
1261	 0.252702607505187 
1262	 0.252601779450056 
1263	 0.252629588565654 
1264	 0.252708017416333 
1265	 0.252787853031363 
1266	 0.252956846675353 
1267	 0.253048761783184 
1268	 0.253103731979893 
1269	 0.253152689666669 
1270	 0.253161286173 
1271	 0.253172734183284 
1272	 0.253199855835349 
1273	 0.25317373617567 
1274	 0.253187171463756 
1275	 0.253201267969522 
1276	 0.253206653312177 
1277	 0.253213698902857 
1278	 0.253239262371847 
1279	 0.253284788133513 
1280	 0.253274691064779 
1281	 0.253269707402526 
1282	 0.253232650113704 
1283	 0.253129688342423 
1284	 0.25305206756663 
1285	 0.253005253705338 
1286	 0.252904990988794 
1287	 0.252750089683678 
1288	 0.252628635116194 
1289	 0.252528936651277 
1290	 0.252373532828155 
1291	 0.252214315435092 
1292	 0.252028391989468 
1293	 0.251831207531946 
1294	 0.251548078581873 
1295	 0.251168229917729 
1296	 0.25084241406595 
1297	 0.25045259926139 
1298	 0.249968351382459 
1299	 0.249527223320305 
1300	 0.249101372444098 
1301	 0.248660587829455 
1302	 0.248219804853124 
1303	 0.247707942065551 
1304	 0.247185291551985 
1305	 0.246609138654309 
1306	 0.245921192863088 
1307	 0.245292216867552 
1308	 0.24467529780222 
1309	 0.244032088673743 
1310	 0.243425965966629 
1311	 0.242719405790053 
1312	 0.24198183485838 
1313	 0.241166841381725 
1314	 0.240246056702453 
1315	 0.239319854102363 
1316	 0.238295519636891 
1317	 0.237322767020769 
1318	 0.23634912158406 
1319	 0.235382626821611 
1320	 0.234379742228354 
1321	 0.233498693862014 
1322	 0.232537730351726 
1323	 0.231581786715309 
1324	 0.230518340650934 
1325	 0.229409828734671 
1326	 0.228189340699114 
1327	 0.22678068126175 
1328	 0.225454861108145 
1329	 0.224070632876535 
1330	 0.222699328381475 
1331	 0.22128559906361 
1332	 0.220026189007499 
1333	 0.218928508830483 
1334	 0.217683351583927 
1335	 0.216441735888823 
1336	 0.215283871441875 
1337	 0.213972811903728 
1338	 0.212817865854459 
1339	 0.211892805674443 
1340	 0.210839648709355 
1341	 0.209529960816893 
1342	 0.208410350414433 
1343	 0.207269452429627 
1344	 0.206118075906649 
1345	 0.20493076798371 
1346	 0.203850154691044 
1347	 0.202568066504384 
1348	 0.201147327386443 
1349	 0.199711781895917 
1350	 0.198306030710068 
1351	 0.196595542360543 
1352	 0.194623527553321 
1353	 0.192842298450975 
1354	 0.191950232178717 
1355	 0.190057697994098 
1356	 0.190452440611189 
1357	 0.188373466892454 
1358	 0.182279205203765 
1359	 0.177909688419042 
1360	 0.176387322109694 
1361	 0.175852805823683 
1362	 0.197966310563331 
1363	 0.206844448272666 
1364	 0.202885847881148 
1365	 0.198421220721516 
1366	 0.182733778561216 
1367	 0.166461212488851 
1368	 0.143664330940253 
1369	 0.139830023089193 
1370	 0.142808841058775 
1371	 0.142491900917965 
1372	 0.152897332208289 
1373	 0.154697975509833 
1374	 0.151824841222332 
1375	 0.145148919866209 
1376	 0.138258260472879 
1377	 0.130663967386715 
1378	 0.129933104996096 
1379	 0.131308046645026 
1380	 0.132871955825607 
1381	 0.143776239590835 
1382	 0.140389986443938 
1383	 0.129264646490244 
1384	 0.121556316520768 
1385	 0.108201758409441 
1386	 0.104211523963797 
1387	 0.105206467755106 
1388	 0.105172584058482 
1389	 0.108830709443396 
1390	 0.107729139987357 
1391	 0.104482431418601 
1392	 0.102619007529328 
1393	 9.90363406241015E-02 
1394	 9.75968672725509E-02 
1395	 9.87851332687819E-02 
1396	 9.76188370676761E-02 
1397	 9.57717548656475E-02 
1398	 9.40463727713571E-02 
1399	 0.091528846231712 
1400	 0.089075923879937 
1401	 0.087067954227549 
1402	 8.50136413536086E-02 
1403	 8.19338509404854E-02 
1404	 8.04255960092819E-02 
1405	 8.07305474047241E-02 
1406	 7.93581968766307E-02 
1407	 7.79851082114654E-02 
1408	 7.81316264475248E-02 
1409	 7.71397861373318E-02 
1410	 7.58096622037757E-02 
1411	 7.53589515470326E-02 
1412	 7.54128893997223E-02 
1413	 7.50296728345492E-02 
1414	 7.50377755602114E-02 
1415	 7.41890988475494E-02 
1416	 7.28307514645374E-02 
1417	 7.20197006599442E-02 
1418	 7.09706928984317E-02 
1419	 7.03992196311505E-02 
1420	 7.02807790242517E-02 
1421	 6.99054779482128E-02 
1422	 0.069332804843601 
1423	 6.91855126128146E-02 
1424	 6.93875502101809E-02 
1425	 6.91379404957368E-02 
1426	 6.88794583005739E-02 
1427	 0.068620233624655 
1428	 6.80554216742793E-02 
1429	 0.067659021254087 
1430	 6.73064800546977E-02 
1431	 6.71090862378389E-02 
1432	 6.70987434123617E-02 
1433	 6.68298754246812E-02 
1434	 6.65455308750986E-02 
1435	 6.63543884649259E-02 
1436	 6.60031350859302E-02 
1437	 6.56940921326896E-02 
1438	 6.54235470912929E-02 
1439	 6.53403865643173E-02 
1440	 6.51531824312519E-02 
1441	 6.52012157104459E-02 
1442	 6.55072957939548E-02 
1443	 6.60989637405826E-02 
1444	 6.60419346539996E-02 
1445	 6.59387724047512E-02 
1446	 6.59170426395089E-02 
1447	 0.065659876709286 
1448	 0.065771120022628 
1449	 6.62286737075022E-02 
1450	 0.066299229321303 
1451	 6.63088990149493E-02 
1452	 6.63111742577698E-02 
1453	 6.61700891328603E-02 
1454	 6.62009292778871E-02 
1455	 6.62703735135066E-02 
1456	 6.63750307508034E-02 
1457	 6.65624556366486E-02 
1458	 6.66870276215567E-02 
1459	 6.69030689392649E-02 
1460	 6.69352616598226E-02 
1461	 0.066801596448186 
1462	 6.67988360149534E-02 
1463	 6.66883228496172E-02 
1464	 0.06675532018161 
1465	 6.69962005025319E-02 
1466	 6.72385108354787E-02 
1467	 6.75873277894047E-02 
1468	 6.79014455859134E-02 
1469	 6.82928505316605E-02 
1470	 6.85688255692638E-02 
1471	 6.86749077294204E-02 
1472	 6.89343192297456E-02 
1473	 6.90520289487959E-02 
1474	 6.94669902421863E-02 
1475	 7.02671479085076E-02 
1476	 0.07075065110066 
1477	 0.071208592745766 
1478	 7.16537769911064E-02 
1479	 7.18581368709778E-02 
1480	 7.22079105329832E-02 
1481	 0.072622904297406 
1482	 7.30991496690444E-02 
1483	 7.36289949019199E-02 
1484	 7.41494619079939E-02 
1485	 7.47176168707945E-02 
1486	 7.52975423949106E-02 
1487	 7.58643714668129E-02 
1488	 7.64213365224885E-02 
1489	 0.077016534577742 
1490	 7.75098028490376E-02 
1491	 7.79961232416574E-02 
1492	 7.84851866994236E-02 
1493	 7.89778056539316E-02 
1494	 7.95469978747636E-02 
1495	 8.00880873484745E-02 
1496	 8.06821896239496E-02 
1497	 8.11648769645994E-02 
1498	 8.15972366486355E-02 
1499	 0.082087189716124 
1500	 8.25457272857671E-02 
1501	 8.30518658988429E-02 
1502	 8.36072771832114E-02 
1503	 8.42112704724295E-02 
1504	 0.084852052855656 
1505	 8.54379495586087E-02 
1506	 0.086077214155199 
1507	 8.66523366250936E-02 
1508	 8.71214031414195E-02 
1509	 8.76833364805672E-02 
1510	 8.83086702396105E-02 
1511	 0.088865270034925 
1512	 8.94181077495709E-02 
1513	 8.99516329823956E-02 
1514	 9.04294062649006E-02 
1515	 9.09663296556362E-02 
1516	 9.15039757083457E-02 
1517	 9.21070268320563E-02 
1518	 9.27985561625938E-02 
1519	 9.34196067801961E-02 
1520	 9.40737310757745E-02 
1521	 9.46633597079603E-02 
1522	 9.51840872601584E-02 
1523	 9.57250269511625E-02 
1524	 9.62505341883052E-02 
1525	 9.67846614586919E-02 
1526	 9.72885273373602E-02 
1527	 9.78515803713417E-02 
1528	 9.84740263231086E-02 
1529	 9.90518858803187E-02 
1530	 0.099687124531746 
1531	 0.100231986219148 
1532	 0.100640020172238 
1533	 0.101166795064266 
1534	 0.10172233152577 
1535	 0.102273511579394 
1536	 0.102924613783825 
1537	 0.103494374131321 
1538	 0.103991949170994 
1539	 0.104512170637499 
1540	 0.104995250033429 
1541	 0.10552687449497 
1542	 0.106132525108008 
1543	 0.106656968318627 
1544	 0.10716267676271 
1545	 0.107657731335027 
1546	 0.108035280068105 
1547	 0.108517734230368 
1548	 0.109097565560773 
1549	 0.109633920366094 
1550	 0.110218803403298 
1551	 0.110761500031383 
1552	 0.111197877678356 
1553	 0.111728399346169 
1554	 0.112354429064766 
1555	 0.112903857107473 
1556	 0.113509110841088 
1557	 0.114030319123186 
1558	 0.114386869821 
1559	 0.114819263950832 
1560	 0.115241353601376 
1561	 0.115699535270568 
1562	 0.116282821084721 
1563	 0.11676886758592 
1564	 0.117204330869179 
1565	 0.117643522778686 
1566	 0.118016563555744 
1567	 0.118395586708711 
1568	 0.118867199286486 
1569	 0.119414663651954 
1570	 0.119911771755546 
1571	 0.120428544709551 
1572	 0.120981648327679 
1573	 0.121562558591844 
1574	 0.122022280713044 
1575	 0.122449200949315 
1576	 0.122957540288694 
1577	 0.123396168489715 
1578	 0.123856404376179 
1579	 0.124462256076321 
1580	 0.124848421073586 
1581	 0.125032799611687 
1582	 0.125409015032449 
1583	 0.125801162237835 
1584	 0.126220729452684 
1585	 0.126716134285263 
1586	 0.127179523152023 
1587	 0.127664595863263 
1588	 0.128057051103679 
1589	 0.128402605116355 
1590	 0.128827601535998 
1591	 0.129218180566477 
1592	 0.129627227789934 
1593	 0.130139869281906 
1594	 0.130544016627948 
1595	 0.130850842033215 
1596	 0.131227748412004 
1597	 0.13161620970724 
1598	 0.132021554426803 
1599	 0.132441724524003 
1600	 0.13287240290073 
1601	 0.133323805885862 
1602	 0.133773420260946 
1603	 0.134258702702243 
1604	 0.134652626342403 
1605	 0.135009345744711 
1606	 0.135376033201702 
1607	 0.135684283857411 
1608	 0.136004185772127 
1609	 0.136320242114614 
1610	 0.136686248011614 
1611	 0.137077490407756 
1612	 0.137399668114854 
1613	 0.137738738621778 
1614	 0.138057006060576 
1615	 0.138272203568562 
1616	 0.138586823162714 
1617	 0.139006137269583 
1618	 0.139297880303905 
1619	 0.13949832140884 
1620	 0.139854400843907 
1621	 0.140256809567706 
1622	 0.140590886663827 
1623	 0.141048115983841 
1624	 0.141302128835263 
1625	 0.141359177703248 
1626	 0.14154650478272 
1627	 0.141717095303128 
1628	 0.141936764774908 
1629	 0.1422229744245 
1630	 0.142436403675252 
1631	 0.142621497555006 
1632	 0.142862591643111 
1633	 0.143076050736912 
1634	 0.143361548373739 
1635	 0.143752090069912 
1636	 0.144044374298578 
1637	 0.144313537956449 
1638	 0.144599823302245 
1639	 0.144867657595238 
1640	 0.145137782043181 
1641	 0.145470192595454 
1642	 0.145619261835354 
1643	 0.145652406830923 
1644	 0.145738607384627 
1645	 0.145683968345122 
1646	 0.145840417606105 
1647	 0.146151758127738 
1648	 0.146350000706279 
1649	 0.146606471987918 
1650	 0.146763714308727 
1651	 0.146841660452091 
1652	 0.146891677443721 
1653	 0.146867016378638 
1654	 0.146954582111209 
1655	 0.147044797749045 
1656	 0.147162740308296 
1657	 0.147396292496158 
1658	 0.147391365740393 
1659	 0.14736783928247 
1660	 0.147369213528063 
1661	 0.147510351680408 
1662	 0.147667006891252 
1663	 0.147702075953217 
1664	 0.147572198162216 
1665	 0.147392321467149 
1666	 0.147363152789536 
1667	 0.147403798737747 
1668	 0.147630520918962 
1669	 0.147875408672698 
1670	 0.147993115288219 
1671	 0.148181348624064 
1672	 0.148126565078809 
1673	 0.147940021147022 
1674	 0.147814183674783 
1675	 0.147521441059857 
1676	 0.147469611182756 
1677	 0.14760231955966 
1678	 0.147571504454068 
1679	 0.147595127867021 
1680	 0.147563424780421 
1681	 0.147490336835801 
1682	 0.147296516533491 
1683	 0.147066952439705 
1684	 0.147052287520558 
1685	 0.146820244972162 
1686	 0.146667215768234 
1687	 0.146698982911999 
1688	 0.146368906680306 
1689	 0.146037901015092 
1690	 0.1459221421407 
1691	 0.14574676450445 
1692	 0.145627371026529 
1693	 0.145442861549384 
1694	 0.145176692677441 
1695	 0.14491995420024 
1696	 0.14467186970593 
1697	 0.144419204812122 
1698	 0.144169323129599 
1699	 0.143868697781288 
1700	 0.143496856267219 
1701	 0.143168557671481 
1702	 0.142853895310942 
1703	 0.142500917942856 
1704	 0.142191931581143 
1705	 0.141776864076146 
1706	 0.141177670934983 
1707	 0.140756647213286 
1708	 0.140383417577644 
1709	 0.140051836794563 
1710	 0.139922014494968 
1711	 0.139623009688095 
1712	 0.139126982930871 
1713	 0.138832323291005 
1714	 0.138640924585416 
1715	 0.138374004178732 
1716	 0.138194407555936 
1717	 0.13796691859019 
1718	 0.137633981184018 
1719	 0.137271572622496 
1720	 0.136997710110719 
1721	 0.136591703160972 
1722	 0.135943029399106 
1723	 0.135561247886633 
1724	 0.135212828429523 
1725	 0.134939113585245 
1726	 0.134911054257299 
1727	 0.134696350988187 
1728	 0.134373203844419 
1729	 0.134179950228799 
1730	 0.134048381781529 
1731	 0.133920538279719 
1732	 0.133738862877537 
1733	 0.133527483441765 
1734	 0.133100174521035 
1735	 0.132848221374448 
1736	 0.132625935013725 
1737	 0.132316577747353 
1738	 0.132099502369724 
1739	 0.131904381446441 
1740	 0.131891790759597 
1741	 0.131866298723041 
1742	 0.131686102924266 
1743	 0.131436623701312 
1744	 0.130920588735183 
1745	 0.130433863513153 
1746	 0.130118787071964 
1747	 0.129644686179861 
1748	 0.129234108957657 
1749	 0.128934810036856 
1750	 0.128476112228978 
1751	 0.128143084444059 
1752	 0.128029660402761 
1753	 0.127678539842366 
1754	 0.127303361663469 
1755	 0.126925897991488 
1756	 0.126254778389628 
1757	 0.125990338534248 
1758	 0.125721749579707 
1759	 0.125623377805183 
1760	 0.125370088823656 
1761	 0.125026698999146 
1762	 0.124576311454988 
1763	 0.1238410390048 
1764	 0.123441164657841 
1765	 0.123158594691285 
1766	 0.122839733515268 
1767	 0.122858424239343 
1768	 0.122596109271775 
1769	 0.122054905882924 
1770	 0.121658659538822 
1771	 0.121100512533545 
1772	 0.120799750875614 
1773	 0.120743513458156 
1774	 0.12072851242615 
1775	 0.120698146167568 
1776	 0.12057506281608 
1777	 0.120403070398618 
1778	 0.120346784379305 
1779	 0.120393782903055 
1780	 0.120134403615968 
1781	 0.119746269927222 
1782	 0.119485745219042 
1783	 0.119181781555973 
1784	 0.118794977778333 
1785	 0.118432722904975 
1786	 0.118307252048139 
1787	 0.118204412995192 
1788	 0.118254433508919 
1789	 0.118523061620056 
1790	 0.118453219524718 
1791	 0.117959258412629 
1792	 0.117328582189318 
1793	 0.116664481049751 
1794	 0.115692609055334 
1795	 0.11505906893601 
1796	 0.115719449775414 
1797	 0.116438797880748 
1798	 0.117026181538146 
1799	 0.117601505902675 
1800	 0.11710634966111 
1801	 0.116899761940531 
1802	 0.115897460127094 
1803	 0.11526856257659 
1804	 0.114463864012063 
1805	 0.114414746062822 
1806	 0.115583686883449 
1807	 0.115905937535187 
1808	 0.116307162818049 
1809	 0.117084993396204 
1810	 0.116978433189475 
1811	 0.11512276261967 
1812	 0.115080391001194 
1813	 0.116273848091494 
1814	 0.115923740146096 
1815	 0.115825858383073 
1816	 0.115191262498473 
1817	 0.111751985315201 
1818	 0.110046788050542 
1819	 0.108919519801076 
1820	 0.108284814125119 
1821	 0.109307537823095 
1822	 0.114146236965494 
1823	 0.115384518897497 
1824	 0.116494290757082 
1825	 0.117869027851297 
1826	 0.114508559572313 
1827	 0.114380108845825 
1828	 0.11627995109984 
1829	 0.126095629849194 
1830	 0.128390173287025 
1831	 0.125009116311218 
1832	 0.129043070260097 
1833	 0.139681313361991 
1834	 0.136921945535118 
1835	 0.127706995138399 
1836	 0.118521439031732 
1837	 4.08951913556379E-02 
1838	 1.25524510524454E-02 
1839	 2.17175162597785E-02 
1840	 0.138701113702554 
1841	 0.13104973219806 
1842	 9.24969473435388E-02 
1843	 0.089597698040864 
1844	 1.20894245299481E-02 
1845	 1.81290352958737E-02 
1846	 0.136973986583945 
1847	 0.193381169914127 
1848	 0.241097397938646 
1849	 0.304498582142689 
1850	 0.315187315434202 
1851	 0.280495105369902 
1852	 0.244944699108354 
1853	 0.161133698631787 
1854	 0.127381073414585 
1855	 9.84639473115884E-02 
1856	 8.51619430890312E-02 
1857	 6.83888627876516E-02 
1858	 0.121766334971263 
1859	 0.119852167539369 
1860	 0.108391339426371 
1861	 0.106137630936489 
1862	 9.95915973430032E-02 
1863	 8.67590172777216E-02 
1864	 7.13520074639262E-02 
1865	 5.98887358269995E-02 
1866	 3.72083183128707E-02 
1867	 1.59373579673158E-02 
1868	 4.58076680750508E-03 
1869	 1.23452297168807E-02 
1870	 2.73609455065066E-02 
1871	 6.71476594757866E-02 
1872	 7.57930053140912E-02 
1873	 8.46845468337142E-02 
1874	 9.14244708764288E-02 
1875	 6.76195362104423E-02 
1876	 6.92589395292544E-02 
1877	 9.12711594760705E-02 
1878	 9.21070832432736E-02 
1879	 9.01398796615761E-02 
1880	 9.49442883419527E-02 
1881	 9.24470185558123E-02 
1882	 8.58386519442102E-02 
1883	 7.94339143352242E-02 
1884	 7.51257950550236E-02 
1885	 6.66425591151733E-02 
1886	 0.050642931629736 
1887	 4.12276906345119E-02 
1888	 4.11266680181283E-02 
1889	 3.30160864270724E-02 
1890	 3.26795341297764E-02 
1891	 4.31498308709079E-02 
1892	 4.48613956885824E-02 
1893	 4.58566415354073E-02 
1894	 4.58336589628389E-02 
1895	 0.037994503712655 
1896	 0.036117371871471 
1897	 4.12938557378476E-02 
1898	 3.68016670216601E-02 
1899	 2.76762488965266E-02 
1900	 0.033154537559092 
1901	 3.50671705605221E-02 
1902	 2.84859923356198E-02 
1903	 3.69820672983117E-02 
1904	 0.075525452969344 
1905	 8.53912701648011E-02 
1906	 9.31593744702321E-02 
1907	 7.90832742019577E-02 
1908	 5.40039545262191E-02 
1909	 3.51904037505283E-02 
1910	 3.32162125646146E-02 
1911	 4.14906661348268E-02 
1912	 3.86681540660117E-02 
1913	 3.54733458307053E-02 
1914	 3.05060237028092E-02 
1915	 0.02135276084942 
1916	 2.04963084110029E-02 
1917	 2.03113101661382E-02 
1918	 2.37145265180623E-02 
1919	 3.03784218252543E-02 
1920	 3.29724061551826E-02 
1921	 3.38810385641968E-02 
1922	 3.55183948411632E-02 
1923	 0.035319093528096 
1924	 3.20791442694114E-02 
1925	 3.23371165875398E-02 
1926	 3.51383345353508E-02 
1927	 3.46859429279803E-02 
1928	 3.42964104124181E-02 
1929	 0.032948336219189 
1930	 3.03210856366486E-02 
1931	 2.73251658346565E-02 
1932	 2.72965870749366E-02 
1933	 2.75303592769432E-02 
1934	 0.027186203869788 
1935	 2.54746288055257E-02 
1936	 2.65934094696123E-02 
1937	 2.99849440234925E-02 
1938	 3.12019044797714E-02 
1939	 3.27718303579394E-02 
1940	 3.39620189190056E-02 
1941	 0.03318199065895 
1942	 3.04903925674161E-02 
1943	 2.99598024229553E-02 
1944	 2.95645103937932E-02 
1945	 2.88073656004904E-02 
1946	 2.95246811462054E-02 
1947	 2.99912731225604E-02 
1948	 0.0307514405163 
1949	 3.11393814172709E-02 
1950	 3.20384708091303E-02 
1951	 3.16468173441243E-02 
1952	 3.11181992807796E-02 
1953	 3.06199923171878E-02 
1954	 3.10522291128446E-02 
1955	 3.14239168398014E-02 
1956	 3.12100299847854E-02 
1957	 3.21071844954171E-02 
1958	 3.21953154248125E-02 
1959	 3.13916347862191E-02 
1960	 3.12158543929116E-02 
1961	 3.10079097663085E-02 
1962	 3.12208246901445E-02 
1963	 3.23171370441303E-02 
1964	 3.33727985997107E-02 
1965	 0.034595388016135 
1966	 3.49544967784047E-02 
1967	 3.45734693137608E-02 
1968	 3.48233600538079E-02 
1969	 3.49108769841708E-02 
1970	 3.50195691142997E-02 
1971	 0.035007776458915 
1972	 3.49442510275424E-02 
1973	 3.48029154648706E-02 
1974	 3.46004765401263E-02 
1975	 3.52335321869584E-02 
1976	 3.58122653863425E-02 
1977	 3.59163750487104E-02 
1978	 3.63069515496787E-02 
1979	 3.64746418448316E-02 
1980	 3.67772323383656E-02 
1981	 3.71882014854337E-02 
1982	 3.73863312656233E-02 
1983	 3.75162816857786E-02 
1984	 3.77137422705148E-02 
1985	 3.75346165899295E-02 
1986	 3.74968316367853E-02 
1987	 3.76070562709206E-02 
1988	 3.75288858151257E-02 
1989	 3.79006835047707E-02 
1990	 3.81247395547088E-02 
1991	 3.84064946370309E-02 
1992	 3.87958454198783E-02 
1993	 3.86832447968326E-02 
1994	 3.88325128517776E-02 
1995	 3.91568075221779E-02 
1996	 3.96933709869062E-02 
1997	 4.02601627376419E-02 
1998	 4.07260867515651E-02 
1999	 4.12630036527476E-02 
2000	 4.18148132884486E-02 
2001	 4.21041155715957E-02 
2002	 4.27161435850138E-02 
2003	 4.31388853199769E-02 
2004	 4.28958114801936E-02 
2005	 4.26799905043498E-02 
2006	 4.29092547996777E-02 
2007	 4.34243086972897E-02 
2008	 0.043943099043895 
2009	 4.47368982742251E-02 
2010	 4.48504245774221E-02 
2011	 4.41155516884908E-02 
2012	 4.39126706568937E-02 
2013	 4.42127990348054E-02 
2014	 4.47882766685139E-02 
2015	 4.50568662445911E-02 
2016	 4.47189398926306E-02 
2017	 4.38665361503577E-02 
2018	 0.043973050901985 
2019	 4.44749996710616E-02 
2020	 4.56067441925174E-02 
2021	 4.65986475734821E-02 
2022	 4.74948950055452E-02 
2023	 4.75872526312751E-02 
2024	 4.75692838660027E-02 
2025	 4.76393942390414E-02 
2026	 4.74928572873348E-02 
2027	 4.75344353843683E-02 
2028	 4.74056532452311E-02 
2029	 4.72763803575431E-02 
2030	 4.76157164059618E-02 
2031	 4.78315174237209E-02 
2032	 0.048060070877642 
2033	 4.83094819663852E-02 
2034	 0.048811256636637 
2035	 4.88323791847422E-02 
2036	 4.89251623758245E-02 
2037	 0.049188784353199 
2038	 4.91512243115292E-02 
2039	 4.94055384650552E-02 
2040	 4.94892101956887E-02 
2041	 4.96165335446687E-02 
2042	 5.00339628690202E-02 
2043	 5.00988223937094E-02 
2044	 5.04287847674361E-02 
2045	 5.08490805237368E-02 
2046	 5.12788825140081E-02 
2047	 0.05164866283495 
2048	 5.22540310912414E-02 
2049	 5.27793791680973E-02 
2050	 5.29194483671056E-02 
2051	 5.25972959531316E-02 
2052	 5.24951689986994E-02 
2053	 5.24871940101445E-02 
2054	 5.25760834052275E-02 
2055	 5.28555193532593E-02 
2056	 5.34983371928203E-02 
2057	 5.39177182629436E-02 
2058	 5.40463138066001E-02 
2059	 5.42644123502368E-02 
2060	 5.45971530621253E-02 
2061	 5.42633541385904E-02 
2062	 5.40746721011279E-02 
2063	 5.41846207925391E-02 
2064	 0.054269126165074 
2065	 5.48004648383444E-02 
2066	 5.56708752720791E-02 
2067	 5.67273905865431E-02 
2068	 5.73924675804977E-02 
2069	 5.76204379411023E-02 
2070	 5.75867803277217E-02 
2071	 5.68794758620058E-02 
2072	 5.64997532041804E-02 
2073	 5.60628437079008E-02 
2074	 5.59919421974653E-02 
2075	 5.58343422373537E-02 
2076	 5.63812083615566E-02 
2077	 5.70419581553698E-02 
2078	 5.72120988547553E-02 
2079	 5.76317437371399E-02 
2080	 0.05799901934981 
2081	 5.79240210371646E-02 
2082	 5.82577357094928E-02 
2083	 5.86442436570508E-02 
2084	 5.82899004119197E-02 
2085	 5.85697887820667E-02 
2086	 0.059053726870171 
2087	 5.92336326162472E-02 
2088	 5.91763426728904E-02 
2089	 5.98264842920038E-02 
2090	 6.00727066590681E-02 
2091	 5.99088827777269E-02 
2092	 5.99543577638478E-02 
2093	 0.059485222155443 
2094	 5.92644343889568E-02 
2095	 5.97235160465456E-02 
2096	 6.04490283219699E-02 
2097	 6.14582203295837E-02 
2098	 6.20717506420388E-02 
2099	 6.21062029544462E-02 
2100	 6.20416302984574E-02 
2101	 6.21227589565742E-02 
2102	 6.21995830704825E-02 
2103	 6.23467448233862E-02 
2104	 6.25784750740645E-02 
2105	 6.29132239344025E-02 
2106	 6.31079124476223E-02 
2107	 6.34897710500524E-02 
2108	 6.37925160513751E-02 
2109	 6.37644843187712E-02 
2110	 6.39742049044372E-02 
2111	 6.38916289557422E-02 
2112	 6.35504481642788E-02 
2113	 0.063829604781874 
2114	 6.38325885333789E-02 
2115	 6.39329940965293E-02 
2116	 6.49061639055161E-02 
2117	 6.54917338233694E-02 
2118	 6.59928545419622E-02 
2119	 6.63951313249129E-02 
2120	 6.68703793789878E-02 
2121	 0.066770778053468 
2122	 6.66315176553973E-02 
2123	 6.67762273314475E-02 
2124	 6.70751335254433E-02 
2125	 6.72144836040859E-02 
2126	 6.71970960394312E-02 
2127	 6.69655614466971E-02 
2128	 6.67254810439253E-02 
2129	 6.70484293564942E-02 
2130	 6.76223254026408E-02 
2131	 0.068122873342523 
2132	 6.82434574566129E-02 
2133	 6.81207013809592E-02 
2134	 6.82031791567037E-02 
2135	 6.82800459027116E-02 
2136	 6.82633881894873E-02 
2137	 6.83532989435797E-02 
2138	 6.85653962999619E-02 
2139	 6.84083257278766E-02 
2140	 6.85441532943752E-02 
2141	 6.92185754004496E-02 
2142	 6.96393753763077E-02 
2143	 6.99927191954779E-02 
2144	 7.05625416450085E-02 
2145	 7.09409747703133E-02 
2146	 7.13445441908925E-02 
2147	 7.15231094220599E-02 
2148	 7.14378427266422E-02 
2149	 7.12333174055812E-02 
2150	 7.08971281824436E-02 
2151	 7.08804175484413E-02 
2152	 7.10635791366874E-02 
2153	 7.13733410653026E-02 
2154	 7.19501971774693E-02 
2155	 7.27546510707678E-02 
2156	 7.28231004082907E-02 
2157	 7.24168882798109E-02 
2158	 7.25832196259793E-02 
2159	 7.25477450906991E-02 
2160	 7.20610831127727E-02 
2161	 7.26574440439826E-02 
2162	 7.27027848140259E-02 
2163	 7.18665246702081E-02 
2164	 7.22601709385738E-02 
2165	 7.21853137493886E-02 
2166	 7.16493437062156E-02 
2167	 7.19489927437253E-02 
2168	 7.23421033219384E-02 
2169	 7.30284418987123E-02 
2170	 7.36113830208235E-02 
2171	 7.45522084032099E-02 
2172	 7.51097993718386E-02 
2173	 0.07504969550679 
2174	 7.46157053986574E-02 
2175	 7.47101963976723E-02 
2176	 7.43680072900375E-02 
2177	 0.074261298513884 
2178	 7.49341900171231E-02 
2179	 7.54402071254163E-02 
2180	 0.07555945562278 
2181	 7.54525708404417E-02 
2182	 7.52082348233231E-02 
2183	 7.48567583505209E-02 
2184	 7.52996961156691E-02 
2185	 7.57268542962457E-02 
2186	 7.58102423296028E-02 
2187	 0.075972302496544 
2188	 7.58191333692875E-02 
2189	 7.56750133460097E-02 
2190	 0.075587657619156 
2191	 7.57256513687393E-02 
2192	 7.54054375607884E-02 
2193	 7.50687914312329E-02 
2194	 7.50448868041949E-02 
2195	 7.50250356507392E-02 
2196	 7.51488069742964E-02 
2197	 7.53744891038818E-02 
2198	 7.55427628950778E-02 
2199	 7.54075135911161E-02 
2200	 7.53336817997162E-02 
2201	 7.58094339243292E-02 
2202	 7.62338424036522E-02 
2203	 7.68476711953745E-02 
2204	 7.72503868577965E-02 
2205	 7.68985228783294E-02 
2206	 7.65157470165751E-02 
2207	 7.67529112037938E-02 
2208	 7.70439549445434E-02 
2209	 7.79082334204029E-02 
2210	 7.81775209385438E-02 
2211	 7.85254253858672E-02 
2212	 7.80682131336256E-02 
2213	 7.73418418066812E-02 
2214	 7.70283662546913E-02 
2215	 7.71752084246685E-02 
2216	 7.74704966261749E-02 
2217	 7.72132372720174E-02 
2218	 7.74150844012572E-02 
2219	 7.76356927000259E-02 
2220	 7.72115690297398E-02 
2221	 7.75354987989445E-02 
2222	 7.76542016529377E-02 
2223	 7.72406591906304E-02 
2224	 7.73085408756968E-02 
2225	 7.72263894192325E-02 
2226	 7.69532706042819E-02 
2227	 7.68830725746787E-02 
2228	 7.67608057294164E-02 
2229	 7.68171362086617E-02 
2230	 0.076878273667892 
2231	 7.66120269672781E-02 
2232	 7.62483912082603E-02 
2233	 7.56695899660932E-02 
2234	 7.46935506292601E-02 
2235	 7.35449213427892E-02 
2236	 7.27970266228075E-02 
2237	 7.21548536477135E-02 
2238	 0.07252790844953 
2239	 7.32832900933567E-02 
2240	 7.38396173293447E-02 
2241	 7.41136385668665E-02 
2242	 7.38417172925128E-02 
2243	 7.33618728048573E-02 
2244	 7.27948546672287E-02 
2245	 0.072850441603295 
2246	 7.29128625699243E-02 
2247	 7.27308649216725E-02 
2248	 7.30125488504419E-02 
2249	 7.29499050855295E-02 
2250	 7.27468000363458E-02 
2251	 7.29918806316115E-02 
2252	 7.31427513665851E-02 
2253	 7.28417138516568E-02 
2254	 7.20577361725051E-02 
2255	 0.070937033539394 
2256	 7.02616136318109E-02 
2257	 6.95959032716137E-02 
2258	 6.93394290934888E-02 
2259	 6.95192632182473E-02 
2260	 7.01170289996868E-02 
2261	 6.99547549227117E-02 
2262	 6.96701680065314E-02 
2263	 6.93303797622182E-02 
2264	 6.83919938723419E-02 
2265	 6.81241438207102E-02 
2266	 6.77888044957563E-02 
2267	 6.73243743956726E-02 
2268	 6.79814990900407E-02 
2269	 0.068321374840904 
2270	 6.79770932086554E-02 
2271	 6.83105739050805E-02 
2272	 0.067994662071741 
2273	 6.74166238963561E-02 
2274	 6.70137389592118E-02 
2275	 6.62611987331002E-02 
2276	 6.61698604048924E-02 
2277	 6.60531280891972E-02 
2278	 6.65450785140451E-02 
2279	 6.71529801769327E-02 
2280	 6.69365740238548E-02 
2281	 6.62329051407295E-02 
2282	 6.56519945308369E-02 
2283	 6.58020011053123E-02 
2284	 6.50767963104372E-02 
2285	 6.46875174076754E-02 
2286	 6.45333145584884E-02 
2287	 6.45176162847513E-02 
2288	 6.34685366662164E-02 
2289	 6.38040156496155E-02 
2290	 6.41908421627811E-02 
2291	 6.33015001891961E-02 
2292	 6.28755151399971E-02 
2293	 6.17958063563701E-02 
2294	 0.06048156223405 
2295	 6.01886528093118E-02 
2296	 6.07545161215272E-02 
2297	 6.22461435606518E-02 
2298	 6.27306265755238E-02 
2299	 6.26494366346888E-02 
2300	 6.16616561493604E-02 
2301	 0.059521372960645 
2302	 5.85556212360239E-02 
2303	 5.76933014248221E-02 
2304	 5.74513781615088E-02 
2305	 5.72139152039503E-02 
2306	 5.62098178439436E-02 
2307	 5.62135063901857E-02 
2308	 5.56597454132025E-02 
2309	 5.55576424698691E-02 
2310	 5.61032706831302E-02 
2311	 5.56275601666657E-02 
2312	 5.60271670042676E-02 
2313	 5.57780474928937E-02 
2314	 0.055729809509819 
2315	 5.76737971919874E-02 
2316	 5.77757114655433E-02 
2317	 5.74329647282165E-02 
2318	 5.80936744425252E-02 
2319	 5.73955540975318E-02 
2320	 5.72726732218665E-02 
2321	 5.76522798042574E-02 
2322	 5.92000408591789E-02 
2323	 0.059507397988772 
2324	 5.95804984904835E-02 
2325	 5.95891239411617E-02 
2326	 5.83898134050347E-02 
2327	 5.74633786808115E-02 
2328	 5.62323077548626E-02 
2329	 5.46822049955142E-02 
2330	 0.054298093547404 
2331	 5.43479411032213E-02 
2332	 5.49710903550998E-02 
2333	 5.65610998553713E-02 
2334	 5.69454178850116E-02 
2335	 5.55321090320133E-02 
2336	 5.40949339957314E-02 
2337	 5.19846439811323E-02 
2338	 5.08209071203609E-02 
2339	 5.29528002833127E-02 
2340	 5.48151520319492E-02 
2341	 5.65269905928071E-02 
2342	 5.80118024757573E-02 
2343	 5.69393735667883E-02 
2344	 5.70717214016564E-02 
2345	 0.056907893365208 
2346	 5.60191820318451E-02 
2347	 5.72220318905645E-02 
2348	 5.68062607318716E-02 
2349	 5.55549881431129E-02 
2350	 5.50196076346352E-02 
2351	 5.30817067507643E-02 
2352	 5.04409869524562E-02 
2353	 4.90218158375411E-02 
2354	 4.81547433839203E-02 
2355	 4.79066591108228E-02 
2356	 5.00231761838708E-02 
2357	 5.23206908924439E-02 
2358	 0.053372603310065 
2359	 5.35441687067281E-02 
2360	 5.22249565450928E-02 
2361	 5.05951998925675E-02 
2362	 4.91176005171506E-02 
2363	 4.80226291706942E-02 
2364	 4.72752572959174E-02 
2365	 4.61908969284203E-02 
2366	 4.54554292680392E-02 
2367	 4.47262036993918E-02 
2368	 4.54306399268098E-02 
2369	 4.71378562711537E-02 
2370	 4.77800914927012E-02 
2371	 4.97175437074301E-02 
2372	 5.12372092203396E-02 
2373	 5.23595968692498E-02 
2374	 5.24823420777666E-02 
2375	 5.18594973411387E-02 
2376	 5.17631851384732E-02 
2377	 5.12098978670087E-02 
2378	 5.04429681048624E-02 
2379	 0.049961670136019 
2380	 5.07612330062891E-02 
2381	 5.16952820105866E-02 
2382	 5.13948258243379E-02 
2383	 0.052189606340573 
2384	 5.17355914050944E-02 
2385	 4.91473355330633E-02 
2386	 0.048602474642216 
2387	 4.88297647656369E-02 
2388	 4.81956949813069E-02 
2389	 4.72432904715786E-02 
2390	 4.63631092887881E-02 
2391	 0.045226562273661 
2392	 4.50372637229867E-02 
2393	 4.64495192254775E-02 
2394	 4.69151420749207E-02 
2395	 4.65419092260279E-02 
2396	 4.74069698520302E-02 
2397	 4.87809287402202E-02 
2398	 4.86268950633536E-02 
2399	 4.85174282408029E-02 
2400	 4.76738990870261E-02 
2401	 4.58043740584183E-02 
2402	 4.33571257791496E-02 
2403	 4.19012379040963E-02 
2404	 4.35932718890186E-02 
2405	 0.045873685408792 
2406	 4.66393163684087E-02 
2407	 4.48439459053973E-02 
2408	 0.045443658158638 
2409	 4.58692130543658E-02 
2410	 4.49915981029512E-02 
2411	 4.55781930820617E-02 
2412	 4.36588097638018E-02 
2413	 4.02119021916165E-02 
2414	 3.69971910757216E-02 
2415	 3.62866447239496E-02 
2416	 3.71013628418255E-02 
2417	 3.77257321985309E-02 
2418	 3.93212186745148E-02 
2419	 4.19629649175407E-02 
2420	 0.043594584670862 
2421	 4.32984208351229E-02 
2422	 0.044151204119849 
2423	 4.20165487246471E-02 
2424	 3.91557286239786E-02 
2425	 3.88503939985722E-02 
2426	 3.89144156447318E-02 
2427	 3.97680762380886E-02 
2428	 4.02912658131921E-02 
2429	 4.08039891144524E-02 
2430	 4.01091995264366E-02 
2431	 4.03573689908892E-02 
2432	 0.04138588551175 
2433	 3.88563507559732E-02 
2434	 0.038226824212205 
2435	 3.85667981386582E-02 
2436	 3.78895745486607E-02 
2437	 3.58523103571238E-02 
2438	 3.67023346469681E-02 
2439	 3.98799606653422E-02 
2440	 4.06337746577876E-02 
2441	 4.45336846377064E-02 
2442	 4.57396941903523E-02 
2443	 4.16812222897147E-02 
2444	 3.96912414809212E-02 
2445	 3.59239717431179E-02 
2446	 3.49660493217331E-02 
2447	 3.56178934986935E-02 
2448	 3.62597978111515E-02 
2449	 4.18438217478202E-02 
2450	 4.51164033890915E-02 
2451	 4.63077829583496E-02 
2452	 4.82364263632795E-02 
2453	 5.32494896260547E-02 
2454	 4.94908907109446E-02 
2455	 3.76369459692718E-02 
2456	 3.48600855099582E-02 
2457	 2.93081247317593E-02 
2458	 2.86765947663363E-02 
2459	 3.90587023697868E-02 
2460	 4.21463875834556E-02 
2461	 0.043999979175092 
2462	 4.47067681399169E-02 
2463	 4.14011674563372E-02 
2464	 3.83145070069595E-02 
2465	 2.98820255229365E-02 
2466	 2.77394164015373E-02 
2467	 3.21871159506683E-02 
2468	 3.45382144893371E-02 
2469	 4.10192625398643E-02 
2470	 4.34950075435504E-02 
2471	 3.97074481662751E-02 
2472	 3.78699008619257E-02 
2473	 0.041831007589254 
2474	 3.53887625135561E-02 
2475	 1.55648908404501E-02 
2476	 1.20226258681059E-02 
2477	 8.26602692286438E-03 
2478	 0.010970195768463 
2479	 4.18291701618834E-02 
2480	 5.00780376032956E-02 
2481	 4.01863937494016E-02 
2482	 3.99464543357988E-02 
2483	 3.03412624795401E-02 
2484	 3.78675009940747E-02 
2485	 6.25472730507715E-02 
2486	 5.65416973632504E-02 
2487	 8.89139827121005E-02 
2488	 6.93800902155069E-02 
2489	 5.65043287625924E-02 
2490	 0.121555484730516 
2491	 9.31684646163374E-02 
2492	 4.18076016960809E-02 
2493	 5.93961001713043E-02 
2494	-5.59448870043567E-03 
2495	-0.037212553886491 
2496	 3.91442986555106E-02 
2497	 7.77931889187675E-02 
2498	 6.43802838548598E-02 
2499	 7.67721654482346E-02 
2500	 0.062873329535606 
