Wavelength	ref00072.asd
350	 2.88018807096537E-02 
351	 2.91067179232994E-02 
352	 2.86430120176859E-02 
353	 2.85463326204819E-02 
354	 2.88904116944572E-02 
355	 2.88151605630479E-02 
356	 0.028097483368816 
357	 2.81342128912076E-02 
358	 2.83817284657662E-02 
359	 2.84706100107405E-02 
360	 2.84237737652298E-02 
361	 2.99066531765434E-02 
362	 2.95946105919147E-02 
363	 2.83716388504945E-02 
364	 2.94626115179691E-02 
365	 2.94371290262719E-02 
366	 2.91024765061907E-02 
367	 2.90322864581405E-02 
368	 2.87415756659193E-02 
369	 0.028766796102586 
370	 2.91896213390632E-02 
371	 2.98149011934551E-02 
372	 3.00334708954076E-02 
373	 2.99394840923126E-02 
374	 0.030001148527128 
375	 3.06276946622414E-02 
376	 0.03027693884261 
377	 3.01905469377864E-02 
378	 3.08479818563097E-02 
379	 3.15126726169267E-02 
380	 3.11305549326539E-02 
381	 3.10356486118002E-02 
382	 3.20638087678794E-02 
383	 3.22962895739606E-02 
384	 3.25027642219832E-02 
385	 3.28592233207937E-02 
386	 3.32775294925087E-02 
387	 3.35934355585189E-02 
388	 3.42296886362603E-02 
389	 3.50067466000278E-02 
390	 3.51504120995275E-02 
391	 3.54241424575112E-02 
392	 3.61270354880331E-02 
393	 3.71014703754982E-02 
394	 3.73392173389194E-02 
395	 3.81432310273548E-02 
396	 3.91937972371698E-02 
397	 0.039801930529689 
398	 4.05549089669202E-02 
399	 4.13801254108514E-02 
400	 4.22185344756308E-02 
401	 4.30569466238992E-02 
402	 0.043899779415024 
403	 0.044867022444182 
404	 4.60009901340408E-02 
405	 4.71923294662881E-02 
406	 4.82790272788885E-02 
407	 4.95579068236625E-02 
408	 5.12611406248073E-02 
409	 5.24367248959716E-02 
410	 0.053904059394175 
411	 5.56424209851837E-02 
412	 5.68864070398136E-02 
413	 5.81868671393325E-02 
414	 5.95861210531809E-02 
415	 6.10856044642348E-02 
416	 6.28304013740377E-02 
417	 6.41723605482676E-02 
418	 6.52505173577763E-02 
419	 6.64590937950635E-02 
420	 6.78893729423548E-02 
421	 6.92598065722479E-02 
422	 7.04564493196739E-02 
423	 0.071559776897405 
424	 7.29226333162921E-02 
425	 7.42549845404541E-02 
426	 7.53387100291486E-02 
427	 7.63140584129679E-02 
428	 7.75403052203451E-02 
429	 7.88599988296492E-02 
430	 7.99686526756741E-02 
431	 8.09100542248868E-02 
432	 8.20205788261906E-02 
433	 8.30792745750299E-02 
434	 8.34561091382012E-02 
435	 8.39487397160722E-02 
436	 8.44624257903081E-02 
437	 8.48431674972435E-02 
438	 8.51285200503436E-02 
439	 8.53623056579917E-02 
440	 8.54977755887971E-02 
441	 8.54925732330563E-02 
442	 8.54976534473089E-02 
443	 8.55067948584765E-02 
444	 8.55598980957488E-02 
445	 8.57364603865517E-02 
446	 8.57705094860726E-02 
447	 8.58167445361741E-02 
448	 8.60237915360847E-02 
449	 8.63546482908448E-02 
450	 8.66009924332979E-02 
451	 8.68489224648003E-02 
452	 8.72917474834686E-02 
453	 8.78841206384936E-02 
454	 8.85551952647186E-02 
455	 8.92470370769315E-02 
456	 8.99247164010605E-02 
457	 9.08969288828693E-02 
458	 9.18023234889047E-02 
459	 9.24391733278378E-02 
460	 9.35536851741294E-02 
461	 9.45759417673782E-02 
462	 9.54021952477538E-02 
463	 9.62006403339008E-02 
464	 9.71060550951424E-02 
465	 9.79789206264458E-02 
466	 9.87003978038277E-02 
467	 9.92308140550447E-02 
468	 0.099608016945147 
469	 9.99194230575475E-02 
470	 0.100202587890436 
471	 0.100251707045803 
472	 0.100244219310343 
473	 0.100216246865331 
474	 0.100097222864582 
475	 9.98746364691537E-02 
476	 9.96011489051864E-02 
477	 9.93605473229495E-02 
478	 9.92739085709257E-02 
479	 9.93106810615596E-02 
480	 9.94956234266764E-02 
481	 9.98278306411978E-02 
482	 0.100079229911373 
483	 0.100630764457608 
484	 0.101611924194566 
485	 0.102861691879081 
486	 0.104276777689721 
487	 0.105849665961915 
488	 0.107612369226959 
489	 0.109630730668252 
490	 0.111960449438861 
491	 0.114435263130112 
492	 0.11688955359063 
493	 0.119653155204214 
494	 0.122664867816969 
495	 0.125884795538516 
496	 0.129338115362746 
497	 0.132891712745178 
498	 0.136493677522324 
499	 0.140211484521244 
500	 0.144439586675646 
501	 0.148764351174067 
502	 0.153121161907933 
503	 0.157656100959466 
504	 0.162183319532458 
505	 0.166761070514337 
506	 0.17146010709592 
507	 0.176319184093598 
508	 0.18123622972987 
509	 0.18615976213651 
510	 0.191091716419521 
511	 0.196195680218986 
512	 0.201342634732557 
513	 0.206409154574946 
514	 0.211319265725078 
515	 0.2163967882642 
516	 0.221642892611919 
517	 0.226909555144251 
518	 0.231934092504621 
519	 0.236918213459615 
520	 0.241711024454004 
521	 0.246114700888767 
522	 0.250382775453058 
523	 0.254369655239278 
524	 0.258142111736378 
525	 0.261975891569736 
526	 0.265736865723693 
527	 0.269243701739412 
528	 0.272406597935642 
529	 0.275419649256221 
530	 0.278108161133983 
531	 0.280543466183103 
532	 0.282931737098489 
533	 0.285284990879249 
534	 0.287424085572805 
535	 0.289261404011523 
536	 0.290897926660622 
537	 0.292617122093155 
538	 0.294272314685886 
539	 0.295665349391713 
540	 0.297055994279543 
541	 0.298510875608444 
542	 0.299915370249104 
543	 0.301028077126207 
544	 0.302107684167881 
545	 0.303118939409437 
546	 0.304024925227403 
547	 0.304884238609319 
548	 0.305779758169284 
549	 0.306650150987207 
550	 0.307395774703717 
551	 0.308105109251971 
552	 0.308886464412358 
553	 0.309713799693461 
554	 0.310403171018729 
555	 0.31132282028003 
556	 0.312219443319218 
557	 0.312900269598788 
558	 0.313901733696589 
559	 0.314928689847106 
560	 0.315838546864587 
561	 0.316643743844346 
562	 0.317726799581949 
563	 0.318776405177281 
564	 0.31966611755551 
565	 0.320761251243712 
566	 0.321654572757282 
567	 0.322365152845288 
568	 0.323054280261821 
569	 0.323769590596094 
570	 0.324693949301399 
571	 0.325805853016096 
572	 0.326902304163466 
573	 0.328138811403319 
574	 0.329471142151612 
575	 0.330843712202266 
576	 0.332241473783631 
577	 0.333588771958939 
578	 0.334706560667897 
579	 0.335408420674753 
580	 0.335757143897873 
581	 0.335979135497969 
582	 0.336275678511015 
583	 0.336790703684846 
584	 0.33732404793977 
585	 0.337880444606909 
586	 0.338498783889883 
587	 0.33914431535547 
588	 0.339823191175835 
589	 0.340538527362502 
590	 0.34127874727559 
591	 0.342065585908021 
592	 0.34285078703458 
593	 0.343622732256676 
594	 0.344405174401126 
595	 0.345237691281682 
596	 0.34588635302252 
597	 0.346182095760693 
598	 0.346727188739849 
599	 0.347170816196795 
600	 0.347411106243595 
601	 0.347635561206788 
602	 0.347812299665469 
603	 0.348036273003638 
604	 0.348350266440125 
605	 0.348629500538025 
606	 0.348813093334607 
607	 0.348929469511739 
608	 0.349056006570937 
609	 0.349217063125503 
610	 0.349385609646913 
611	 0.349493318987716 
612	 0.349425178996544 
613	 0.349469750714392 
614	 0.349526277868329 
615	 0.349455283545632 
616	 0.349391231537004 
617	 0.349377083267383 
618	 0.349412406035521 
619	 0.349448125964663 
620	 0.349271635350831 
621	 0.34920804853739 
622	 0.349371044920083 
623	 0.349323853143693 
624	 0.349335354188585 
625	 0.34941951588825 
626	 0.349507262918974 
627	 0.349588669364461 
628	 0.349590773215249 
629	 0.34957113123946 
630	 0.349701834444612 
631	 0.349811487371305 
632	 0.349827704230973 
633	 0.349742552864208 
634	 0.349650596571321 
635	 0.349539850370044 
636	 0.349355717507402 
637	 0.349048092445477 
638	 0.348737338786828 
639	 0.348469075010028 
640	 0.34817954209249 
641	 0.347688505078782 
642	 0.347358991000135 
643	 0.347072152191676 
644	 0.346671638319906 
645	 0.346286129070515 
646	 0.346122191498715 
647	 0.346008375257355 
648	 0.345595541597167 
649	 0.345323051995546 
650	 0.345020279135459 
651	 0.344650671335745 
652	 0.344492547935561 
653	 0.344219096428981 
654	 0.34391458139697 
655	 0.343738506324364 
656	 0.343668879171378 
657	 0.343459446818988 
658	 0.34311933970406 
659	 0.342812668907594 
660	 0.34240075556749 
661	 0.342007559602665 
662	 0.341687315454663 
663	 0.341272863397872 
664	 0.340814391583749 
665	 0.340355608104299 
666	 0.339951735145611 
667	 0.339718551307667 
668	 0.339476668841422 
669	 0.339169721174591 
670	 0.33887519046894 
671	 0.33882545290004 
672	 0.338728058639203 
673	 0.338448086416603 
674	 0.338446005130849 
675	 0.338433383254366 
676	 0.338397220566154 
677	 0.338433249208093 
678	 0.338634662537074 
679	 0.338862260955057 
680	 0.33902557389921 
681	 0.339119297494114 
682	 0.339530588882208 
683	 0.34013829611561 
684	 0.340798274191838 
685	 0.341605551444705 
686	 0.342477186709162 
687	 0.343589841773174 
688	 0.345077665085862 
689	 0.346582022100811 
690	 0.348087551089612 
691	 0.349793837802072 
692	 0.351934307065601 
693	 0.354264605826282 
694	 0.356647012249202 
695	 0.358912384860546 
696	 0.360797597608198 
697	 0.362720084723575 
698	 0.36489585631096 
699	 0.367373885760126 
700	 0.369939103864981 
701	 0.372257395262217 
702	 0.374346233845513 
703	 0.376626724738869 
704	 0.378740632336551 
705	 0.380733962917303 
706	 0.382696602817666 
707	 0.384510996677319 
708	 0.386463878686819 
709	 0.388502368093358 
710	 0.390423341613404 
711	 0.392350774104513 
712	 0.39424801168306 
713	 0.396177597588474 
714	 0.398324807621933 
715	 0.400643110051228 
716	 0.403444732928598 
717	 0.406899231738226 
718	 0.410301527082884 
719	 0.412990543058688 
720	 0.414547246346884 
721	 0.4151832754203 
722	 0.415884625909762 
723	 0.417707846934882 
724	 0.420494620781195 
725	 0.422533210559268 
726	 0.424125912187618 
727	 0.425541199896434 
728	 0.427008851537659 
729	 0.428495409763614 
730	 0.429787763961359 
731	 0.430793864037116 
732	 0.431492413913164 
733	 0.431744620298416 
734	 0.432289334592428 
735	 0.433277484999774 
736	 0.43428747172782 
737	 0.435210737994425 
738	 0.436021539217149 
739	 0.436749933788765 
740	 0.437435713180828 
741	 0.438160690232827 
742	 0.438856649881636 
743	 0.439457146777579 
744	 0.440200346182768 
745	 0.440850324343977 
746	 0.441383677241641 
747	 0.441947016542294 
748	 0.442543388461161 
749	 0.443024582359848 
750	 0.443418568903578 
751	 0.444083962557509 
752	 0.44452959486127 
753	 0.44488418655651 
754	 0.44533968432019 
755	 0.445644762446525 
756	 0.445973245999353 
757	 0.446242229884329 
758	 0.446258152484675 
759	 0.446170020018747 
760	 0.446733243411839 
761	 0.448306361139342 
762	 0.449095912153573 
763	 0.449354193673668 
764	 0.449537329656 
765	 0.449737324323511 
766	 0.449466658096654 
767	 0.449396863044212 
768	 0.449537346630283 
769	 0.449713096839797 
770	 0.4497804029653 
771	 0.450055031086387 
772	 0.450418776577533 
773	 0.450431206466648 
774	 0.450600222609743 
775	 0.450882799891087 
776	 0.451147593840342 
777	 0.451264238295288 
778	 0.451405276869629 
779	 0.451644704451963 
780	 0.451967677978835 
781	 0.452175895582663 
782	 0.45243327358195 
783	 0.452758404980716 
784	 0.453079505903796 
785	 0.453294340913825 
786	 0.453628083860457 
787	 0.454111064099605 
788	 0.454541673228664 
789	 0.455019155311971 
790	 0.455377822374157 
791	 0.455541503206471 
792	 0.455700872865438 
793	 0.455929438610854 
794	 0.456272781239289 
795	 0.456697257799209 
796	 0.456989739318309 
797	 0.457116444680836 
798	 0.457270400123215 
799	 0.457693473210126 
800	 0.457939667159002 
801	 0.458211151911635 
802	 0.4585391018525 
803	 0.458709752273079 
804	 0.45895394438839 
805	 0.45917661904833 
806	 0.459327153251386 
807	 0.459568682663985 
808	 0.459938002570156 
809	 0.460369623639537 
810	 0.460846078928021 
811	 0.461691368000918 
812	 0.46269476613309 
813	 0.4638424703151 
814	 0.465173909580225 
815	 0.4662605331396 
816	 0.467114720209493 
817	 0.46755886798155 
818	 0.467268683041714 
819	 0.466920272995861 
820	 0.466648896362652 
821	 0.46660378309605 
822	 0.467146607073877 
823	 0.467616547367717 
824	 0.467768888500731 
825	 0.467581715653355 
826	 0.467185441261219 
827	 0.46724256886514 
828	 0.467620037282782 
829	 0.467863707614911 
830	 0.467967845616784 
831	 0.467990679496608 
832	 0.467946259863305 
833	 0.467826839725738 
834	 0.467809987119344 
835	 0.467627230646369 
836	 0.467376877281546 
837	 0.467594036362761 
838	 0.467623241030022 
839	 0.467599241535164 
840	 0.46766168351219 
841	 0.467641339754994 
842	 0.467827695413763 
843	 0.468022444887292 
844	 0.468065571209288 
845	 0.468444208188239 
846	 0.468575130087232 
847	 0.468567391489097 
848	 0.468768547086418 
849	 0.468954367987309 
850	 0.469062019576898 
851	 0.469180138532336 
852	 0.469487033107244 
853	 0.469971548481425 
854	 0.470168575926462 
855	 0.470116532018266 
856	 0.470418141012503 
857	 0.470680183628415 
858	 0.470752671917783 
859	 0.470757057345578 
860	 0.471148749051491 
861	 0.471453464647207 
862	 0.471486964294608 
863	 0.471339714439646 
864	 0.471571881186635 
865	 0.471959554096457 
866	 0.472262788297927 
867	 0.472379931387763 
868	 0.47279340856858 
869	 0.473132855417057 
870	 0.473348896679826 
871	 0.47353609864703 
872	 0.473592752984726 
873	 0.473654893412945 
874	 0.473796298417586 
875	 0.474029046819726 
876	 0.474378813427791 
877	 0.474568097312877 
878	 0.474681336683339 
879	 0.475115764226054 
880	 0.475287835930204 
881	 0.475343667124422 
882	 0.475511346373563 
883	 0.475943474925548 
884	 0.476254701410024 
885	 0.476405425901086 
886	 0.476491567414925 
887	 0.47669711680986 
888	 0.477124684253402 
889	 0.477459140873701 
890	 0.477603158504742 
891	 0.478269177445481 
892	 0.479115305370083 
893	 0.479844157961904 
894	 0.480431068559884 
895	 0.481833740596028 
896	 0.4826836020021 
897	 0.483352731524174 
898	 0.484635389576409 
899	 0.485395477038891 
900	 0.485784021407558 
901	 0.485577960495838 
902	 0.484764703559163 
903	 0.485269335631799 
904	 0.485196503066458 
905	 0.484775842986004 
906	 0.485401320692835 
907	 0.485905514475672 
908	 0.486806055832492 
909	 0.487653002088105 
910	 0.487447656800071 
911	 0.488434560133925 
912	 0.489346648465676 
913	 0.489540205639658 
914	 0.489446344484136 
915	 0.489729465333346 
916	 0.489619068490098 
917	 0.488979363521495 
918	 0.488573821448705 
919	 0.488441775017493 
920	 0.488197171696376 
921	 0.487880319674595 
922	 0.488090942086562 
923	 0.488040044184583 
924	 0.488150292644478 
925	 0.488688762866213 
926	 0.489357263455564 
927	 0.49068670699212 
928	 0.492398916078802 
929	 0.494251403601485 
930	 0.496436095387942 
931	 0.498827368876653 
932	 0.501280815031394 
933	 0.503434162500205 
934	 0.504667818020534 
935	 0.506164354222931 
936	 0.507115504397327 
937	 0.506693348057773 
938	 0.505134193550377 
939	 0.504246015337563 
940	 0.503472809635077 
941	 0.502140841244552 
942	 0.500452102934187 
943	 0.500507756178471 
944	 0.50099929264999 
945	 0.500527532342301 
946	 0.499569722551799 
947	 0.498986208703343 
948	 0.499185659360857 
949	 0.499802603208402 
950	 0.499417204661892 
951	 0.498004939087342 
952	 0.496776803135752 
953	 0.496328456324755 
954	 0.495341035228163 
955	 0.494190011958124 
956	 0.493472036035238 
957	 0.493326786652847 
958	 0.492957269324536 
959	 0.49128799376051 
960	 0.489606871894743 
961	 0.488915355436088 
962	 0.488558635172019 
963	 0.487181810060856 
964	 0.48549126017166 
965	 0.484261582067355 
966	 0.483458051134006 
967	 0.48302097573023 
968	 0.482037377125722 
969	 0.480864053419503 
970	 0.481774298821905 
971	 0.480830374719616 
972	 0.480475580568317 
973	 0.481523908690857 
974	 0.480879714475641 
975	 0.480944630166296 
976	 0.480684675571813 
977	 0.48036891315151 
978	 0.482127823153823 
979	 0.480591582436026 
980	 0.479107150099043 
981	 0.479140992505686 
982	 0.47873359932778 
983	 0.479587095834592 
984	 0.478538338379511 
985	 0.476593236081381 
986	 0.478019058514056 
987	 0.477553715301926 
988	 0.47693335398609 
989	 0.477238623114083 
990	 0.478088228137266 
991	 0.477266122355878 
992	 0.477246822613263 
993	 0.478010360899434 
994	 0.477937864905552 
995	 0.477120749293993 
996	 0.478303600910909 
997	 0.48019051062725 
998	 0.480183660644978 
999	 0.479692501676337 
1000	 0.479549728746091 
1001	 0.475710926993981 
1002	 0.476140998676379 
1003	 0.476479942685515 
1004	 0.476706133953644 
1005	 0.476967452260928 
1006	 0.477282520067547 
1007	 0.477536239714893 
1008	 0.477685644249367 
1009	 0.477988884457647 
1010	 0.478347274288522 
1011	 0.478732165001138 
1012	 0.479199914034292 
1013	 0.479567952869283 
1014	 0.479916724063393 
1015	 0.480278732879841 
1016	 0.480609892020755 
1017	 0.48095626922841 
1018	 0.481318463517292 
1019	 0.481739686297348 
1020	 0.482050828128926 
1021	 0.482282864694097 
1022	 0.482607486583144 
1023	 0.482921494121242 
1024	 0.483222572846117 
1025	 0.483684302996858 
1026	 0.484139219988689 
1027	 0.484396946061223 
1028	 0.484692504041091 
1029	 0.485072910223411 
1030	 0.485360796663802 
1031	 0.485646132436715 
1032	 0.486037605474672 
1033	 0.486373056877912 
1034	 0.486569944389307 
1035	 0.486886251976344 
1036	 0.487326600911249 
1037	 0.487657404447332 
1038	 0.487940413330843 
1039	 0.488283070819733 
1040	 0.488581054548058 
1041	 0.4888090310669 
1042	 0.489089178390719 
1043	 0.489254486010213 
1044	 0.489328009238445 
1045	 0.489591337200846 
1046	 0.489734516015247 
1047	 0.489805485657347 
1048	 0.490044093376198 
1049	 0.490155195056332 
1050	 0.49028716648409 
1051	 0.490413955494379 
1052	 0.490644422917679 
1053	 0.490720688627127 
1054	 0.490891294784373 
1055	 0.491108238315674 
1056	 0.491091378606558 
1057	 0.491092204276198 
1058	 0.491176780661132 
1059	 0.491213442382161 
1060	 0.491333776850771 
1061	 0.491528036224616 
1062	 0.491499591776419 
1063	 0.491238575945688 
1064	 0.491157315975575 
1065	 0.491208400284564 
1066	 0.491355469456278 
1067	 0.49151566305753 
1068	 0.491754198379468 
1069	 0.491936614861591 
1070	 0.492051458553517 
1071	 0.492179556924407 
1072	 0.492365438054185 
1073	 0.492521829086416 
1074	 0.492596666444426 
1075	 0.492618178497519 
1076	 0.49262623327929 
1077	 0.492772684016152 
1078	 0.49284577857077 
1079	 0.492837646313585 
1080	 0.492968781838208 
1081	 0.493068825391153 
1082	 0.493094873365586 
1083	 0.493159332362082 
1084	 0.493361138356988 
1085	 0.49349682416596 
1086	 0.493691851476305 
1087	 0.493881485902968 
1088	 0.494063732956083 
1089	 0.494306612056134 
1090	 0.494454140817772 
1091	 0.49458846984857 
1092	 0.494736219097874 
1093	 0.494926269954756 
1094	 0.495312970771163 
1095	 0.495766256457201 
1096	 0.496137694576787 
1097	 0.496534285266802 
1098	 0.496956119597834 
1099	 0.497295437536148 
1100	 0.497702863506768 
1101	 0.498278108671306 
1102	 0.498817144196723 
1103	 0.499294546524656 
1104	 0.499760666839339 
1105	 0.500301708258593 
1106	 0.500882744336659 
1107	 0.501599862376037 
1108	 0.502504886891561 
1109	 0.503406917791243 
1110	 0.504379292390362 
1111	 0.50553050285437 
1112	 0.506964078322704 
1113	 0.508280561060901 
1114	 0.509679802977799 
1115	 0.511335609578312 
1116	 0.513115995214058 
1117	 0.51499397031963 
1118	 0.517304841307075 
1119	 0.519650957914288 
1120	 0.521565320709713 
1121	 0.523119421269252 
1122	 0.524418470575009 
1123	 0.525407460074055 
1124	 0.526188739267861 
1125	 0.526622758304936 
1126	 0.526503550075345 
1127	 0.525915165166377 
1128	 0.524936111107386 
1129	 0.523346567801355 
1130	 0.521865749838715 
1131	 0.520124941172413 
1132	 0.518521611900063 
1133	 0.516943250184171 
1134	 0.515281591824188 
1135	 0.513717068835427 
1136	 0.512136548049984 
1137	 0.510569979961587 
1138	 0.509217290261581 
1139	 0.508021769557572 
1140	 0.506760995925402 
1141	 0.505610789051438 
1142	 0.504566805610833 
1143	 0.503480334893714 
1144	 0.502548151437351 
1145	 0.501310853498752 
1146	 0.499980324737578 
1147	 0.498516853844594 
1148	 0.496890528578796 
1149	 0.495261284436683 
1150	 0.493857281755267 
1151	 0.492051301388327 
1152	 0.490147749533544 
1153	 0.488020854327317 
1154	 0.485928288973282 
1155	 0.484033926601736 
1156	 0.482235797614564 
1157	 0.480695513691717 
1158	 0.479169008437786 
1159	 0.477653172905751 
1160	 0.476457378910619 
1161	 0.475516386684353 
1162	 0.474520049152199 
1163	 0.473616387492876 
1164	 0.472791370069744 
1165	 0.471901626095567 
1166	 0.471189769040987 
1167	 0.470583264626556 
1168	 0.470089116299846 
1169	 0.469665798707023 
1170	 0.469380168475529 
1171	 0.469110273101664 
1172	 0.468946839702137 
1173	 0.468870519772024 
1174	 0.468663565142664 
1175	 0.468445834716503 
1176	 0.468319785610213 
1177	 0.468232767190805 
1178	 0.468132188468919 
1179	 0.468086288189167 
1180	 0.468193244208013 
1181	 0.468178246213028 
1182	 0.468146012590222 
1183	 0.468046694718371 
1184	 0.467847112884691 
1185	 0.467712277563597 
1186	 0.467567850861303 
1187	 0.467405169314797 
1188	 0.467293139714867 
1189	 0.467123159012385 
1190	 0.466906656685029 
1191	 0.466744500228687 
1192	 0.46664858301343 
1193	 0.466648800866563 
1194	 0.466572875855515 
1195	 0.46647677930811 
1196	 0.466467234654152 
1197	 0.466451212500529 
1198	 0.466476745457706 
1199	 0.466602764384969 
1200	 0.466711333428742 
1201	 0.466803368373902 
1202	 0.466918675381115 
1203	 0.467104435954672 
1204	 0.46723872351688 
1205	 0.467323243006472 
1206	 0.46744900208441 
1207	 0.467600890278864 
1208	 0.467726997491138 
1209	 0.467876741774996 
1210	 0.468011503801624 
1211	 0.46802475587712 
1212	 0.467975804115939 
1213	 0.46802541548511 
1214	 0.468029052856228 
1215	 0.468147316255422 
1216	 0.468409721140525 
1217	 0.468560522648544 
1218	 0.468728965268252 
1219	 0.468824195599255 
1220	 0.46881792442608 
1221	 0.468915678851138 
1222	 0.46904720209644 
1223	 0.469122028692369 
1224	 0.469198335328798 
1225	 0.469299639783897 
1226	 0.46934740654593 
1227	 0.469452150068499 
1228	 0.469620485951241 
1229	 0.469811716922636 
1230	 0.470033987762546 
1231	 0.470137095107681 
1232	 0.470256869218205 
1233	 0.4703593675495 
1234	 0.470485244590954 
1235	 0.470598523632352 
1236	 0.470703066400152 
1237	 0.470756420713613 
1238	 0.470954904969493 
1239	 0.471219840522173 
1240	 0.471447222060753 
1241	 0.471791835238097 
1242	 0.472068000025741 
1243	 0.472240558942735 
1244	 0.472484545705889 
1245	 0.472770626854553 
1246	 0.473066038265612 
1247	 0.473427307019856 
1248	 0.473700037745059 
1249	 0.473982509528141 
1250	 0.474205814879078 
1251	 0.474365863789996 
1252	 0.474429781382718 
1253	 0.474559827053744 
1254	 0.474662922402778 
1255	 0.474834504875293 
1256	 0.475053740552163 
1257	 0.47524603069413 
1258	 0.475478622162334 
1259	 0.475666469327838 
1260	 0.475827720162672 
1261	 0.475988763648822 
1262	 0.476111646239825 
1263	 0.47628540636061 
1264	 0.476503269445169 
1265	 0.476662467825547 
1266	 0.476860439477376 
1267	 0.476978028917064 
1268	 0.47695848245202 
1269	 0.477012888470662 
1270	 0.477080290181782 
1271	 0.477131614785034 
1272	 0.477217299503944 
1273	 0.477290377605504 
1274	 0.477281339329881 
1275	 0.477234727267615 
1276	 0.477119353693369 
1277	 0.476914042273124 
1278	 0.47675765553893 
1279	 0.476547106340188 
1280	 0.47639495416449 
1281	 0.47626952587104 
1282	 0.476159589015954 
1283	 0.476108514685428 
1284	 0.475977860016442 
1285	 0.475819722053416 
1286	 0.475678569360773 
1287	 0.47546536922737 
1288	 0.475322772347737 
1289	 0.475269536506577 
1290	 0.475156639694555 
1291	 0.475096035615258 
1292	 0.474924657899356 
1293	 0.474528955873421 
1294	 0.474343214935204 
1295	 0.474253795180628 
1296	 0.474130060240141 
1297	 0.473975149434692 
1298	 0.473954724743281 
1299	 0.473794006264992 
1300	 0.473461496075732 
1301	 0.47323748266922 
1302	 0.473078445992031 
1303	 0.472867421416662 
1304	 0.472631265251393 
1305	 0.472370824468611 
1306	 0.472047830470958 
1307	 0.471833632384154 
1308	 0.471665193525678 
1309	 0.471448936618672 
1310	 0.471334123870165 
1311	 0.471107943748424 
1312	 0.470817896205273 
1313	 0.470447109817627 
1314	 0.470022046802774 
1315	 0.469547166410522 
1316	 0.4688939658512 
1317	 0.468331759751639 
1318	 0.467736037370161 
1319	 0.467220666310504 
1320	 0.466728183607245 
1321	 0.466395829071259 
1322	 0.465920001247746 
1323	 0.465428104294203 
1324	 0.464989811549431 
1325	 0.464467885596948 
1326	 0.464081477281979 
1327	 0.46385603151357 
1328	 0.463511246811089 
1329	 0.463198672477493 
1330	 0.462767078742351 
1331	 0.462260475701602 
1332	 0.461729857877088 
1333	 0.461112204130755 
1334	 0.460503957435964 
1335	 0.45987429815635 
1336	 0.459234606471552 
1337	 0.458442425161174 
1338	 0.457860223073435 
1339	 0.457087118399331 
1340	 0.456804197306036 
1341	 0.45695006729255 
1342	 0.457203617153849 
1343	 0.458158799208319 
1344	 0.45901788669586 
1345	 0.460096967972128 
1346	 0.461278968022558 
1347	 0.463098610419928 
1348	 0.465231461022567 
1349	 0.467780117650171 
1350	 0.471743786414583 
1351	 0.475326783599031 
1352	 0.478741367053575 
1353	 0.483616137921334 
1354	 0.488487433362638 
1355	 0.49565725987703 
1356	 0.505031354922781 
1357	 0.516385665917886 
1358	 0.522622522334076 
1359	 0.53641019764242 
1360	 0.540284011007489 
1361	 0.554333972930579 
1362	 0.560860743579818 
1363	 0.577036701418415 
1364	 0.592806365277083 
1365	 0.593616427795644 
1366	 0.574411080572602 
1367	 0.566925172231438 
1368	 0.545464243053539 
1369	 0.543884679074559 
1370	 0.559174351489607 
1371	 0.564349386376437 
1372	 0.571948732717955 
1373	 0.573255712997563 
1374	 0.570495331157818 
1375	 0.567301136125901 
1376	 0.557766999960231 
1377	 0.550258769484316 
1378	 0.545531468158829 
1379	 0.541881779107726 
1380	 0.533126668604354 
1381	 0.523979190334149 
1382	 0.517024959173563 
1383	 0.507060716901152 
1384	 0.499488375238953 
1385	 0.498256778296986 
1386	 0.492497490132889 
1387	 0.485930216479214 
1388	 0.477072520105006 
1389	 0.468037961555401 
1390	 0.45928589593973 
1391	 0.448822377709722 
1392	 0.439581369080194 
1393	 0.431382634082389 
1394	 0.422740906677908 
1395	 0.413465854405994 
1396	 0.404693412162593 
1397	 0.396397014108495 
1398	 0.388332002794606 
1399	 0.379452366640692 
1400	 0.372174104438522 
1401	 0.366491847773771 
1402	 0.360024572217811 
1403	 0.355899224528748 
1404	 0.349204750201372 
1405	 0.340546238072387 
1406	 0.333817505618329 
1407	 0.327232849696243 
1408	 0.320389044373282 
1409	 0.315602673076437 
1410	 0.310647686119686 
1411	 0.305812163330979 
1412	 0.301395898177866 
1413	 0.296724285151113 
1414	 0.291817676819652 
1415	 0.288102385671436 
1416	 0.28441309689773 
1417	 0.281562317786737 
1418	 0.279946223806699 
1419	 0.277134848983596 
1420	 0.273994901147468 
1421	 0.271453224405885 
1422	 0.268546156876882 
1423	 0.266294705682249 
1424	 0.264509505363523 
1425	 0.2628171073216 
1426	 0.261198119528812 
1427	 0.259656648778012 
1428	 0.258199982316713 
1429	 0.256932429616916 
1430	 0.25554616526045 
1431	 0.254458032717148 
1432	 0.253788014513301 
1433	 0.252874145775076 
1434	 0.251714988649794 
1435	 0.251034998722079 
1436	 0.250736291090485 
1437	 0.250120943595441 
1438	 0.249838451541462 
1439	 0.24917993434331 
1440	 0.247962826259346 
1441	 0.247008205632081 
1442	 0.245939608881076 
1443	 0.245297438826906 
1444	 0.244675987047935 
1445	 0.243760830751112 
1446	 0.243192343970305 
1447	 0.242410144196251 
1448	 0.241528214769457 
1449	 0.240604945334365 
1450	 0.239844360250077 
1451	 0.238933008673657 
1452	 0.238326134936421 
1453	 0.23796199604164 
1454	 0.23747926088357 
1455	 0.236928610530827 
1456	 0.236637156437808 
1457	 0.236290455982383 
1458	 0.236326248783416 
1459	 0.236706635014715 
1460	 0.236934732192759 
1461	 0.237307859974433 
1462	 0.237725765390007 
1463	 0.238009984449884 
1464	 0.238681668373931 
1465	 0.239805252859461 
1466	 0.240720351405429 
1467	 0.24178999249519 
1468	 0.242771404369448 
1469	 0.243545058291271 
1470	 0.244462749900316 
1471	 0.245544213135948 
1472	 0.24633598578131 
1473	 0.24692294207331 
1474	 0.247538547560801 
1475	 0.247901083668397 
1476	 0.248415344867653 
1477	 0.249029200110001 
1478	 0.249602028077689 
1479	 0.250140135722859 
1480	 0.250709247060599 
1481	 0.251342398890618 
1482	 0.251886944527484 
1483	 0.252317864150382 
1484	 0.252883210099854 
1485	 0.253515118316951 
1486	 0.254042443102263 
1487	 0.254498687279467 
1488	 0.255131050358994 
1489	 0.255628549592723 
1490	 0.256019886677027 
1491	 0.25659506548744 
1492	 0.257161978825061 
1493	 0.257542228622886 
1494	 0.258058014497852 
1495	 0.258675506263196 
1496	 0.259283596269167 
1497	 0.260061867570571 
1498	 0.261068701257536 
1499	 0.261947301381703 
1500	 0.262860991321482 
1501	 0.263759706884277 
1502	 0.264622652775379 
1503	 0.26559687563348 
1504	 0.266612772868151 
1505	 0.267668654673438 
1506	 0.268832639025904 
1507	 0.269870771500255 
1508	 0.270872737574523 
1509	 0.271883491242726 
1510	 0.272851198832637 
1511	 0.273840172682334 
1512	 0.274848189691926 
1513	 0.275860033134675 
1514	 0.276845022156825 
1515	 0.27788016818485 
1516	 0.278973805961827 
1517	 0.280051883410526 
1518	 0.28118974098235 
1519	 0.282240816967366 
1520	 0.283241952806446 
1521	 0.284270159951819 
1522	 0.28525656391521 
1523	 0.286273778358001 
1524	 0.287350188026137 
1525	 0.288381242504171 
1526	 0.289360920208002 
1527	 0.290393823139213 
1528	 0.29144978385061 
1529	 0.292505624470259 
1530	 0.293608044864736 
1531	 0.294686362537031 
1532	 0.295792224951778 
1533	 0.29681198703378 
1534	 0.297783354577239 
1535	 0.298749071915213 
1536	 0.299585050180136 
1537	 0.300555575995158 
1538	 0.301630925812869 
1539	 0.3026494871989 
1540	 0.30375938501444 
1541	 0.304758434287618 
1542	 0.305572636708735 
1543	 0.306547662454436 
1544	 0.307643389660038 
1545	 0.308609920717322 
1546	 0.309607338372675 
1547	 0.310565353305492 
1548	 0.311352716933486 
1549	 0.312222043470187 
1550	 0.313146222267013 
1551	 0.314091556320585 
1552	 0.315085372042065 
1553	 0.316040399434842 
1554	 0.317035213770886 
1555	 0.317979735689022 
1556	 0.318841170792922 
1557	 0.319727328243528 
1558	 0.320576904433073 
1559	 0.321478348530983 
1560	 0.322508722635232 
1561	 0.323404299747584 
1562	 0.324226017798047 
1563	 0.325072212165373 
1564	 0.325805661954368 
1565	 0.326600538536327 
1566	 0.32741577983221 
1567	 0.328296503581873 
1568	 0.329083684368443 
1569	 0.329807348061149 
1570	 0.330613452325796 
1571	 0.331421319196311 
1572	 0.332245827039124 
1573	 0.333119309812962 
1574	 0.333949669931488 
1575	 0.334769770120653 
1576	 0.335523500979318 
1577	 0.336235322282792 
1578	 0.336952668808616 
1579	 0.337581556484742 
1580	 0.338327052482431 
1581	 0.339168595314648 
1582	 0.33984676064335 
1583	 0.340487730773916 
1584	 0.341145889800334 
1585	 0.341676105841314 
1586	 0.342397966126073 
1587	 0.343281051244163 
1588	 0.343994783539806 
1589	 0.344686906085056 
1590	 0.345416848536986 
1591	 0.34610044654196 
1592	 0.3467815965756 
1593	 0.347529408243513 
1594	 0.34820936621457 
1595	 0.348815697936061 
1596	 0.349432922538121 
1597	 0.35006995818911 
1598	 0.350670802654812 
1599	 0.351215384971506 
1600	 0.351782158533789 
1601	 0.35234759926694 
1602	 0.352945801177558 
1603	 0.353490346224573 
1604	 0.354210195473548 
1605	 0.355116317755687 
1606	 0.355769901176963 
1607	 0.356409965262276 
1608	 0.357010675258355 
1609	 0.357421991762365 
1610	 0.357950840147877 
1611	 0.358563580308863 
1612	 0.359135097212543 
1613	 0.359623865530553 
1614	 0.360247304542194 
1615	 0.361007983087795 
1616	 0.361577539793571 
1617	 0.362132734348225 
1618	 0.362639616851459 
1619	 0.362993873449571 
1620	 0.36347272727504 
1621	 0.364032354287615 
1622	 0.364472277707383 
1623	 0.364888357167225 
1624	 0.365286137415656 
1625	 0.365597234118002 
1626	 0.366010745747676 
1627	 0.366446058970158 
1628	 0.366916328920061 
1629	 0.367468291144919 
1630	 0.367936752435568 
1631	 0.368441361869096 
1632	 0.368813274129024 
1633	 0.369090362168481 
1634	 0.369373931955086 
1635	 0.369519809505237 
1636	 0.369902208740848 
1637	 0.37040700832005 
1638	 0.37079185780795 
1639	 0.371269268023443 
1640	 0.371642110154839 
1641	 0.371867322218794 
1642	 0.372200313354836 
1643	 0.372560992435997 
1644	 0.372959090479847 
1645	 0.373421631163962 
1646	 0.373715626700195 
1647	 0.373967661709001 
1648	 0.37427413832048 
1649	 0.374499378185739 
1650	 0.374729635156909 
1651	 0.375036166629822 
1652	 0.375284878927155 
1653	 0.375405807454987 
1654	 0.375634766855493 
1655	 0.375974487792264 
1656	 0.376196127945471 
1657	 0.376392164240875 
1658	 0.376469277526719 
1659	 0.37656741063429 
1660	 0.376628754899604 
1661	 0.37663327927377 
1662	 0.376776137740899 
1663	 0.376978497629586 
1664	 0.377159974197797 
1665	 0.377260808521766 
1666	 0.377293275715464 
1667	 0.377297053667414 
1668	 0.377262084077063 
1669	 0.377346744992196 
1670	 0.37750619460855 
1671	 0.377526153610061 
1672	 0.377579260685642 
1673	 0.377723538229688 
1674	 0.377911741569864 
1675	 0.378040818758467 
1676	 0.377989331630719 
1677	 0.377891726223206 
1678	 0.377697834981629 
1679	 0.377447227396196 
1680	 0.377254412981239 
1681	 0.377134234691629 
1682	 0.37703811004381 
1683	 0.376986529954314 
1684	 0.376949914882398 
1685	 0.376858089017536 
1686	 0.376567593086068 
1687	 0.376100693097982 
1688	 0.375959852530637 
1689	 0.375922890210634 
1690	 0.376123341241059 
1691	 0.376137740196805 
1692	 0.375948604314616 
1693	 0.375793904237038 
1694	 0.37559138947379 
1695	 0.375389272466173 
1696	 0.375233964934062 
1697	 0.375019409284898 
1698	 0.374654652729343 
1699	 0.374420950705619 
1700	 0.374318203375872 
1701	 0.374094863820415 
1702	 0.373831518856028 
1703	 0.373660576594899 
1704	 0.373442558319582 
1705	 0.373220519602264 
1706	 0.373219445000146 
1707	 0.372956976243975 
1708	 0.372457087036163 
1709	 0.372044469867606 
1710	 0.371440235891685 
1711	 0.371075911130719 
1712	 0.370954315079603 
1713	 0.370656476709533 
1714	 0.370412389193592 
1715	 0.370111198259199 
1716	 0.36962195804457 
1717	 0.36932279229161 
1718	 0.369174659000158 
1719	 0.368851959626583 
1720	 0.368471005700392 
1721	 0.368149607406271 
1722	 0.367759673577202 
1723	 0.367414207683907 
1724	 0.367221230547415 
1725	 0.366828176253647 
1726	 0.366288203667648 
1727	 0.365889169088248 
1728	 0.365435604228267 
1729	 0.365118704780869 
1730	 0.364964100142389 
1731	 0.364445295461213 
1732	 0.364118694656549 
1733	 0.363835790155278 
1734	 0.363417662644049 
1735	 0.363259247897174 
1736	 0.363109403745908 
1737	 0.362791345132692 
1738	 0.362563515973645 
1739	 0.362131917969901 
1740	 0.361497634402252 
1741	 0.360932415463566 
1742	 0.36038405385059 
1743	 0.359851901964389 
1744	 0.359439685041017 
1745	 0.358829649325397 
1746	 0.358162876824041 
1747	 0.357587063327086 
1748	 0.356904225617936 
1749	 0.356396500236238 
1750	 0.355821082771057 
1751	 0.355149380549738 
1752	 0.354711654686595 
1753	 0.354203344508826 
1754	 0.353736374554732 
1755	 0.353281572430946 
1756	 0.352650649831088 
1757	 0.352124972524408 
1758	 0.351628914562334 
1759	 0.351196271870283 
1760	 0.350839947111788 
1761	 0.350538890037002 
1762	 0.350209322833949 
1763	 0.349892359462458 
1764	 0.349640524925877 
1765	 0.349353222189437 
1766	 0.349189956631235 
1767	 0.349281914266195 
1768	 0.349154308497914 
1769	 0.348940617756323 
1770	 0.34871365137586 
1771	 0.348329859448657 
1772	 0.348090975271831 
1773	 0.347988125716472 
1774	 0.347766425328835 
1775	 0.3475484367439 
1776	 0.347454659849691 
1777	 0.347354234732268 
1778	 0.347707001100701 
1779	 0.348215570691167 
1780	 0.348392494104331 
1781	 0.348756823554102 
1782	 0.349096779385746 
1783	 0.349198389329041 
1784	 0.349800835058667 
1785	 0.350570819387426 
1786	 0.350961892601585 
1787	 0.351439397497354 
1788	 0.351986883655584 
1789	 0.352258951933815 
1790	 0.353040531598619 
1791	 0.354072481853754 
1792	 0.354567374057442 
1793	 0.355346840374647 
1794	 0.356382362239629 
1795	 0.357331617205891 
1796	 0.358723467461295 
1797	 0.360142557784313 
1798	 0.361159629794174 
1799	 0.362506970196815 
1800	 0.365092610087018 
1801	 0.370236667024162 
1802	 0.374702512001702 
1803	 0.376869420845947 
1804	 0.376936676243279 
1805	 0.378738212043123 
1806	 0.380393138620318 
1807	 0.382268630222482 
1808	 0.385111585948391 
1809	 0.388618406417107 
1810	 0.390939298393525 
1811	 0.392287370187704 
1812	 0.39433025742555 
1813	 0.395450969326949 
1814	 0.397722261130614 
1815	 0.400183526983359 
1816	 0.404025597740224 
1817	 0.411443349774368 
1818	 0.416669290214604 
1819	 0.421423176430908 
1820	 0.427126770347121 
1821	 0.429609846645507 
1822	 0.426592085946904 
1823	 0.426288441640682 
1824	 0.421834673354412 
1825	 0.422457255607393 
1826	 0.427681355819012 
1827	 0.432921969662341 
1828	 0.441297691968311 
1829	 0.46272408209623 
1830	 0.472821580612184 
1831	 0.474532005841852 
1832	 0.480167771341823 
1833	 0.470857024437065 
1834	 0.465140797959446 
1835	 0.455901056549839 
1836	 0.449191553805222 
1837	 0.432033575839429 
1838	 0.430492468417318 
1839	 0.441952773427289 
1840	 0.48379266761392 
1841	 0.494172553264249 
1842	 0.511197489090415 
1843	 0.501074344414306 
1844	 0.446013364651678 
1845	 0.436633955208519 
1846	 0.435022636670615 
1847	 0.438210883322141 
1848	 0.451750988036 
1849	 0.486909104534222 
1850	 0.530578822907688 
1851	 0.592971650352291 
1852	 0.629959416145809 
1853	 0.723561170137276 
1854	 0.736953936828949 
1855	 0.65760237012939 
1856	 0.621914157235248 
1857	 0.587920323452457 
1858	 0.541419718258583 
1859	 0.522047050452842 
1860	 0.529000453509162 
1861	 0.508179689008577 
1862	 0.448678431492595 
1863	 0.452843256093598 
1864	 0.505101524200005 
1865	 0.51160677180984 
1866	 0.534745478869191 
1867	 0.574316144346732 
1868	 0.514144329244646 
1869	 0.437112242298974 
1870	 0.409495696452113 
1871	 0.419274081707264 
1872	 0.410268768340194 
1873	 0.431895409418025 
1874	 0.418331576055054 
1875	 0.387521396004331 
1876	 0.37022474468228 
1877	 0.365050414101176 
1878	 0.337164091404986 
1879	 0.320814203474602 
1880	 0.318015067990248 
1881	 0.315726781288873 
1882	 0.314979737715674 
1883	 0.317660066733089 
1884	 0.331801069388567 
1885	 0.329064045432479 
1886	 0.323582019731386 
1887	 0.308355482485855 
1888	 0.291410832082581 
1889	 0.285444675590751 
1890	 0.275860991601945 
1891	 0.267087832299704 
1892	 0.261729417837118 
1893	 0.254995775718158 
1894	 0.24836877170904 
1895	 0.246093758799116 
1896	 0.244566365321954 
1897	 0.243292547631869 
1898	 0.237617050123868 
1899	 0.239745233323169 
1900	 0.253958808552711 
1901	 0.254335264179873 
1902	 0.23997033100821 
1903	 0.23950952758175 
1904	 0.233764895023032 
1905	 0.234656744758939 
1906	 0.243689384581928 
1907	 0.275201820671582 
1908	 0.278765489772274 
1909	 0.270271562568484 
1910	 0.248275424974668 
1911	 0.210039980432925 
1912	 0.191422147177551 
1913	 0.173817359315745 
1914	 0.161704117287984 
1915	 0.154941803095963 
1916	 0.151980368542813 
1917	 0.149515830203051 
1918	 0.147158206021795 
1919	 0.14711865622361 
1920	 0.150448694835646 
1921	 0.15559135534782 
1922	 0.155622973091733 
1923	 0.154106935167576 
1924	 0.151120616605948 
1925	 0.149212293537044 
1926	 0.143471230667819 
1927	 0.142700937808436 
1928	 0.145735429102177 
1929	 0.147504298703454 
1930	 0.147180182991035 
1931	 0.147111650477984 
1932	 0.142063812500622 
1933	 0.140461402215971 
1934	 0.140827683072202 
1935	 0.142352250632518 
1936	 0.14258655031685 
1937	 0.145973537123207 
1938	 0.144752212662695 
1939	 0.139872699116738 
1940	 0.138556367220799 
1941	 0.137527282440631 
1942	 0.136043191425571 
1943	 0.136862805342688 
1944	 0.13711986199962 
1945	 0.136559575791858 
1946	 0.135886800254557 
1947	 0.135337583752916 
1948	 0.134161217840212 
1949	 0.134174637366231 
1950	 0.134526248477653 
1951	 0.135671096224539 
1952	 0.136347488242182 
1953	 0.1374311609852 
1954	 0.138302583250945 
1955	 0.138300441553516 
1956	 0.138985526818993 
1957	 0.139292652433605 
1958	 0.139518673340704 
1959	 0.13987166896765 
1960	 0.139842657701854 
1961	 0.139628294997036 
1962	 0.139155552132594 
1963	 0.13863154079884 
1964	 0.137710473910032 
1965	 0.137683153519629 
1966	 0.138120787804243 
1967	 0.138816885071809 
1968	 0.139793514390323 
1969	 0.140089164350683 
1970	 0.139821183656357 
1971	 0.140099525127189 
1972	 0.140289470402857 
1973	 0.140398601613502 
1974	 0.141737293546737 
1975	 0.143006506267112 
1976	 0.143639672205199 
1977	 0.144580249094776 
1978	 0.145266285673398 
1979	 0.145180316934717 
1980	 0.145255488861652 
1981	 0.145794118467387 
1982	 0.146466268367226 
1983	 0.14690659295508 
1984	 0.148186417086964 
1985	 0.149982060277868 
1986	 0.151059719475255 
1987	 0.151717324034809 
1988	 0.15207013616406 
1989	 0.152178772892839 
1990	 0.152519039144015 
1991	 0.15318154357978 
1992	 0.153927180309761 
1993	 0.154500614502165 
1994	 0.15521274184032 
1995	 0.155943604644902 
1996	 0.156723471931953 
1997	 0.15735985177899 
1998	 0.158362300670752 
1999	 0.158648170773114 
2000	 0.158961622830661 
2001	 0.160116650578838 
2002	 0.160920780509612 
2003	 0.162680837327426 
2004	 0.164202542069837 
2005	 0.16489505914114 
2006	 0.165965736804166 
2007	 0.166963161776575 
2008	 0.167825128128296 
2009	 0.168921447418322 
2010	 0.169867760194885 
2011	 0.170851767585125 
2012	 0.171954066147863 
2013	 0.172455919079751 
2014	 0.172927365322457 
2015	 0.173587588301298 
2016	 0.173720680331798 
2017	 0.174375070442669 
2018	 0.175684332918842 
2019	 0.176324066847891 
2020	 0.176612064350223 
2021	 0.177207413310243 
2022	 0.17795506166554 
2023	 0.178001362739945 
2024	 0.178490119329931 
2025	 0.179291186009432 
2026	 0.179930998474939 
2027	 0.181023430207752 
2028	 0.18198753542416 
2029	 0.182488098039764 
2030	 0.182902426241752 
2031	 0.182768357422723 
2032	 0.182823170486243 
2033	 0.182835306279716 
2034	 0.183185473424786 
2035	 0.183429352182848 
2036	 0.183864787751336 
2037	 0.184149692832544 
2038	 0.184503248558359 
2039	 0.184904165915087 
2040	 0.185330008769573 
2041	 0.18644216839928 
2042	 0.187361345815478 
2043	 0.187937484463976 
2044	 0.188482924118024 
2045	 0.188813037688743 
2046	 0.188642947452907 
2047	 0.188834380041964 
2048	 0.189180883439094 
2049	 0.189658895622354 
2050	 0.190986964639639 
2051	 0.191716112230002 
2052	 0.192043144999616 
2053	 0.192471958883308 
2054	 0.192346393989926 
2055	 0.192721683758211 
2056	 0.19336763358627 
2057	 0.194084584584473 
2058	 0.19526419338694 
2059	 0.196162255269082 
2060	 0.196821217260644 
2061	 0.19777929895235 
2062	 0.198763953218176 
2063	 0.19905148540193 
2064	 0.198898709447757 
2065	 0.198653732768934 
2066	 0.199126148141144 
2067	 0.199736967202626 
2068	 0.200560675243521 
2069	 0.201719601424697 
2070	 0.201860085878185 
2071	 0.201865356816094 
2072	 0.202308636500975 
2073	 0.202917549194429 
2074	 0.203548385796125 
2075	 0.204408030425711 
2076	 0.204934923215538 
2077	 0.2051056205453 
2078	 0.204910442597128 
2079	 0.204776733930962 
2080	 0.20526178365424 
2081	 0.20607589257258 
2082	 0.206880393311763 
2083	 0.20751371445413 
2084	 0.208042964138349 
2085	 0.208262587411561 
2086	 0.208475785794937 
2087	 0.208932284493279 
2088	 0.209572896091443 
2089	 0.210227422811345 
2090	 0.21112428982948 
2091	 0.212180478703216 
2092	 0.213286245750307 
2093	 0.214095044146289 
2094	 0.214258385271276 
2095	 0.214262819278637 
2096	 0.214478618429247 
2097	 0.215059306008256 
2098	 0.21591810965612 
2099	 0.216784576829869 
2100	 0.217458307698344 
2101	 0.21779290911087 
2102	 0.218194736651377 
2103	 0.218384790159121 
2104	 0.219092633805493 
2105	 0.21995995516187 
2106	 0.220515500522988 
2107	 0.221337845810922 
2108	 0.222197821407492 
2109	 0.222692265851743 
2110	 0.223210197528629 
2111	 0.224032299702144 
2112	 0.224607506768031 
2113	 0.225156888594972 
2114	 0.226112328134542 
2115	 0.226720287981054 
2116	 0.227375126010259 
2117	 0.2279726596493 
2118	 0.228515334643414 
2119	 0.228994075240186 
2120	 0.22951613983447 
2121	 0.229562297470124 
2122	 0.229914925723881 
2123	 0.230605036887324 
2124	 0.231333889937188 
2125	 0.232311644300272 
2126	 0.233310046380434 
2127	 0.233783699738857 
2128	 0.234140064682585 
2129	 0.234729320327032 
2130	 0.235204656379815 
2131	 0.235508060021692 
2132	 0.235601549463322 
2133	 0.235782397284247 
2134	 0.235995838269812 
2135	 0.236088662548203 
2136	 0.236387513574681 
2137	 0.237060225926875 
2138	 0.237838172156333 
2139	 0.238802599729824 
2140	 0.239541386983494 
2141	 0.24001353061635 
2142	 0.240260142760494 
2143	 0.240317151993563 
2144	 0.240574184466736 
2145	 0.241424533651394 
2146	 0.242273366038414 
2147	 0.242530822057128 
2148	 0.242923755313744 
2149	 0.243092828310288 
2150	 0.243028653124456 
2151	 0.243298353386417 
2152	 0.244007002790299 
2153	 0.244347534031422 
2154	 0.244541195117083 
2155	 0.245310091953323 
2156	 0.245268005042914 
2157	 0.245016565643132 
2158	 0.245443768500306 
2159	 0.24554159666083 
2160	 0.246070489879051 
2161	 0.247460974470876 
2162	 0.248227364669698 
2163	 0.248372017208131 
2164	 0.248569726447636 
2165	 0.248828491659492 
2166	 0.249242196941238 
2167	 0.24947921696232 
2168	 0.249700551437912 
2169	 0.249875235281753 
2170	 0.249907679523646 
2171	 0.249718709494475 
2172	 0.249890276048437 
2173	 0.249994987777054 
2174	 0.250079156645662 
2175	 0.250179916372408 
2176	 0.250330201195756 
2177	 0.250778645242726 
2178	 0.251031851838375 
2179	 0.25139972954573 
2180	 0.251838877733251 
2181	 0.251703805068845 
2182	 0.25139568823294 
2183	 0.251178998891766 
2184	 0.251288913445244 
2185	 0.251432253435103 
2186	 0.251337445777742 
2187	 0.251648130697772 
2188	 0.252298985664064 
2189	 0.252624344264244 
2190	 0.252922163645759 
2191	 0.253617774947959 
2192	 0.253823699764717 
2193	 0.253930509355587 
2194	 0.254343372629088 
2195	 0.254903563102123 
2196	 0.255082986648947 
2197	 0.254851252149563 
2198	 0.255260645844026 
2199	 0.255448618334377 
2200	 0.255430876701338 
2201	 0.255661378066167 
2202	 0.255548388745763 
2203	 0.255303033293993 
2204	 0.255770226423864 
2205	 0.256488880653073 
2206	 0.256292032739846 
2207	 0.255660339341943 
2208	 0.255452703202538 
2209	 0.255059603259333 
2210	 0.254858954291001 
2211	 0.254877788461625 
2212	 0.255480802488813 
2213	 0.255725899265183 
2214	 0.25545246316507 
2215	 0.255236067926627 
2216	 0.25490409076898 
2217	 0.25465151488068 
2218	 0.254684735249095 
2219	 0.255250741964209 
2220	 0.255663204803931 
2221	 0.255555545353869 
2222	 0.25519565187997 
2223	 0.254698901113217 
2224	 0.254623387924904 
2225	 0.254685330753589 
2226	 0.254806956579666 
2227	 0.255057934122553 
2228	 0.254705613300685 
2229	 0.253802872465341 
2230	 0.253142637581764 
2231	 0.252758730518179 
2232	 0.25243545046705 
2233	 0.252051521990281 
2234	 0.25202534506943 
2235	 0.251873907916942 
2236	 0.251098244707656 
2237	 0.250989790578347 
2238	 0.251073022727278 
2239	 0.250327451623394 
2240	 0.249623530088452 
2241	 0.24853823176904 
2242	 0.24759658943336 
2243	 0.247467844628574 
2244	 0.247449018169419 
2245	 0.24741507109887 
2246	 0.247179287573908 
2247	 0.246502388547468 
2248	 0.245544716137855 
2249	 0.244644910376783 
2250	 0.243772467714036 
2251	 0.243088865020541 
2252	 0.242657728889199 
2253	 0.24226095529048 
2254	 0.241560866264409 
2255	 0.240731690384005 
2256	 0.239881804051239 
2257	 0.239067739911103 
2258	 0.237718149048569 
2259	 0.236051216481071 
2260	 0.235158299961346 
2261	 0.234573777280153 
2262	 0.234482655088413 
2263	 0.235320723595086 
2264	 0.235051142263583 
2265	 0.234175799547354 
2266	 0.233197589476802 
2267	 0.231793045772926 
2268	 0.231473651154175 
2269	 0.23104156912567 
2270	 0.23035221891649 
2271	 0.230438972970903 
2272	 0.23007369505492 
2273	 0.229506357373611 
2274	 0.229320187811718 
2275	 0.229009421528521 
2276	 0.227832839888956 
2277	 0.226936835398537 
2278	 0.226597526307129 
2279	 0.225553701950238 
2280	 0.225445512597067 
2281	 0.225898791801267 
2282	 0.225802167645357 
2283	 0.22610479230815 
2284	 0.225841900642074 
2285	 0.224838377745524 
2286	 0.224402090679427 
2287	 0.224099152423566 
2288	 0.223642480667817 
2289	 0.223762591430716 
2290	 0.224021806700624 
2291	 0.222580403575155 
2292	 0.221691089847994 
2293	 0.220934613842819 
2294	 0.219935921590528 
2295	 0.220698778964966 
2296	 0.221311396796696 
2297	 0.221153291435661 
2298	 0.221051581459557 
2299	 0.220432990907096 
2300	 0.219105642352623 
2301	 0.217779609446682 
2302	 0.216489883121699 
2303	 0.215160074900094 
2304	 0.214242539252821 
2305	 0.212516946612912 
2306	 0.210640709629314 
2307	 0.20987625164626 
2308	 0.209066177929727 
2309	 0.209513025083379 
2310	 0.21036997886452 
2311	 0.209168374869556 
2312	 0.208962219808356 
2313	 0.208945069969242 
2314	 0.207646398305463 
2315	 0.208076023635495 
2316	 0.208354231538197 
2317	 0.208653278334491 
2318	 0.210331257719062 
2319	 0.210590410993318 
2320	 0.209978764606911 
2321	 0.209103560495294 
2322	 0.205891102804408 
2323	 0.204641177197765 
2324	 0.204101544376423 
2325	 0.204773365064059 
2326	 0.205673790541083 
2327	 0.206049533413524 
2328	 0.206297404836616 
2329	 0.206602795764901 
2330	 0.205589816677159 
2331	 0.205455665006206 
2332	 0.2062819777813 
2333	 0.20575145840464 
2334	 0.204892209251423 
2335	 0.204019635997556 
2336	 0.202475180541626 
2337	 0.200869341576791 
2338	 0.199418418862501 
2339	 0.198632845054883 
2340	 0.197509750026961 
2341	 0.195772839652491 
2342	 0.195548410624633 
2343	 0.195964489966411 
2344	 0.196405176969673 
2345	 0.197492418523406 
2346	 0.196991278691759 
2347	 0.196033612208752 
2348	 0.195871033292073 
2349	 0.194769025750646 
2350	 0.194594692981577 
2351	 0.194666947194992 
2352	 0.194257728608454 
2353	 0.194553541523481 
2354	 0.194298129776139 
2355	 0.192905074791916 
2356	 0.192096443259368 
2357	 0.191864071575121 
2358	 0.191486621849996 
2359	 0.191797258183659 
2360	 0.192423621519007 
2361	 0.192141426470812 
2362	 0.190596751475543 
2363	 0.190103091346734 
2364	 0.190800584263082 
2365	 0.191318857955665 
2366	 0.191991084468926 
2367	 0.191744696635963 
2368	 0.189901395016308 
2369	 0.188429956127875 
2370	 0.18811517479035 
2371	 0.188248258006779 
2372	 0.187417871590988 
2373	 0.185307535228362 
2374	 0.184934772298033 
2375	 0.18507994574867 
2376	 0.184848167276812 
2377	 0.186020855985731 
2378	 0.185980895042364 
2379	 0.184737412880635 
2380	 0.184204362331182 
2381	 0.183769498243341 
2382	 0.1835629760232 
2383	 0.182940976454165 
2384	 0.182219080695808 
2385	 0.182620929658532 
2386	 0.182314064263587 
2387	 0.181201939672319 
2388	 0.181714344273626 
2389	 0.183368567624487 
2390	 0.182495960341332 
2391	 0.180196762584113 
2392	 0.178402896384253 
2393	 0.175649275725934 
2394	 0.173906894195297 
2395	 0.173855917377813 
2396	 0.173331321886505 
2397	 0.171936213146187 
2398	 0.170572418325377 
2399	 0.169329060710502 
2400	 0.168381364441974 
2401	 0.167990140302475 
2402	 0.165443457402089 
2403	 0.165153802954418 
2404	 0.166470965100516 
2405	 0.166715539072555 
2406	 0.16830057806037 
2407	 0.170427555418084 
2408	 0.172412041465933 
2409	 0.174248794588184 
2410	 0.177203315224763 
2411	 0.175944607760999 
2412	 0.171963390926546 
2413	 0.171181292318042 
2414	 0.168313052559454 
2415	 0.164191189265665 
2416	 0.16453800733404 
2417	 0.167467014067263 
2418	 0.163875426484701 
2419	 0.159003384561076 
2420	 0.155527261542547 
2421	 0.149007846863231 
2422	 0.149098326168554 
2423	 0.15335727241953 
2424	 0.156571564683918 
2425	 0.158805734815359 
2426	 0.156988818974687 
2427	 0.153433366200151 
2428	 0.151337497336612 
2429	 0.149590233571016 
2430	 0.149522275547135 
2431	 0.15286802888856 
2432	 0.156025101728483 
2433	 0.154899894006083 
2434	 0.154262525943858 
2435	 0.149366266021132 
2436	 0.149701036697817 
2437	 0.156527811941493 
2438	 0.159227705399327 
2439	 0.164336181877389 
2440	 0.166211089873355 
2441	 0.162541045928355 
2442	 0.159807573209562 
2443	 0.156357972378586 
2444	 0.151729948613872 
2445	 0.146600156209 
2446	 0.139137128199596 
2447	 0.12338574440332 
2448	 0.119036380010436 
2449	 0.120808968871798 
2450	 0.122041494555309 
2451	 0.134412959918401 
2452	 0.139046750658995 
2453	 0.136853980588984 
2454	 0.137699984343587 
2455	 0.141237028929155 
2456	 0.140619896408709 
2457	 0.137881074709294 
2458	 0.136685927465655 
2459	 0.131565321220667 
2460	 0.12722698357529 
2461	 0.124891244244453 
2462	 0.122444061668431 
2463	 0.119457298825462 
2464	 0.11692057737306 
2465	 0.113349201283107 
2466	 0.112783341629008 
2467	 0.114329760937847 
2468	 0.117744402787662 
2469	 0.12677488648992 
2470	 0.131948845406622 
2471	 0.135636495113506 
2472	 0.137364433686633 
2473	 0.139128017453106 
2474	 0.138850641360394 
2475	 0.130890761971126 
2476	 0.127802009122901 
2477	 0.122483667382152 
2478	 0.128629666215755 
2479	 0.153124034706918 
2480	 0.16277782005121 
2481	 0.177890827325944 
2482	 0.175418626532391 
2483	 0.132777961544296 
2484	 0.130636533507566 
2485	 0.148342131722662 
2486	 0.160011763132786 
2487	 0.198825823759589 
2488	 0.187503596923256 
2489	 0.139156113684709 
2490	 7.81260411864653E-02 
2491	 6.29686204189519E-02 
2492	 9.88003977869896E-02 
2493	 0.14342211121059 
2494	 0.236262840871113 
2495	 0.257278868800632 
2496	 0.229983670030678 
2497	 0.223233707696447 
2498	 0.159335214455347 
2499	 0.141737879235419 
2500	 0.187842503328839 
