Wavelength	ref00142.asd
350	 7.84782730011378 
351	 7.90086084858677 
352	 8.15778075769697 
353	 8.02927674932807 
354	 8.20861299521055 
355	 8.41242195711767 
356	 8.38073570161537 
357	 8.29700670406635 
358	 8.48198109574786 
359	 8.62100933847472 
360	 8.39267534445626 
361	 8.37113709939371 
362	 8.48303339880649 
363	 8.60592747901668 
364	 8.61295865471772 
365	 8.62703056520522 
366	 8.64831035538574 
367	 8.67443112332051 
368	 8.72270604630053 
369	 8.701634842239 
370	 8.71276380012128 
371	 8.80365854976563 
372	 8.71773895674558 
373	 8.62933638066907 
374	 8.62638839684459 
375	 8.72018623859348 
376	 8.71161301341885 
377	 8.65161802572318 
378	 8.6084526149953 
379	 8.6346312260277 
380	 8.61072258170171 
381	 8.56099471336305 
382	 8.52947698046946 
383	 8.52394296841363 
384	 8.55128184279594 
385	 8.57007322313151 
386	 8.53145862688685 
387	 8.49340682620323 
388	 8.37718451388064 
389	 8.27072700201782 
390	 8.39563197151601 
391	 8.36557071245689 
392	 8.33395686756996 
393	 8.40522694044006 
394	 8.36157317981368 
395	 8.28672143267011 
396	 8.23764185075533 
397	 8.23423976656131 
398	 8.15958321075311 
399	 8.13815233644893 
400	 8.14347562253775 
401	 8.0425996703451 
402	 8.03992657729888 
403	 8.05033080809281 
404	 8.01110090310361 
405	 7.98318766175493 
406	 7.94473533532797 
407	 7.91287047356341 
408	 7.90321888205183 
409	 7.86640604002848 
410	 7.83191721903179 
411	 7.79728311835337 
412	 7.73598910858148 
413	 7.70868044161547 
414	 7.70586237771083 
415	 7.69844257931427 
416	 7.63819614940726 
417	 7.59441846131108 
418	 7.57321284784501 
419	 7.55633933418517 
420	 7.51912389593606 
421	 7.48596846108801 
422	 7.46339889416669 
423	 7.44097656738538 
424	 7.41566888095823 
425	 7.38832737188876 
426	 7.36684494976421 
427	 7.37554026115702 
428	 7.36209586451982 
429	 7.33056318197195 
430	 7.30073139248873 
431	 7.2590052837993 
432	 7.21662438127434 
433	 7.18295704521439 
434	 7.16320043193686 
435	 7.14175366318123 
436	 7.12732028956206 
437	 7.11727997241666 
438	 7.07476063658071 
439	 7.05555322698336 
440	 7.03797010251605 
441	 6.98929496163252 
442	 6.96571624626445 
443	 6.94056738138787 
444	 6.9092765408934 
445	 6.89004288170871 
446	 6.85934540762001 
447	 6.83311220204804 
448	 6.8186999875052 
449	 6.78787713640586 
450	 6.74928951687021 
451	 6.71855502542482 
452	 6.70666202056197 
453	 6.67597085080742 
454	 6.64386055484351 
455	 6.61734751795413 
456	 6.5871285263142 
457	 6.55265088518257 
458	 6.51744927935868 
459	 6.4846983686674 
460	 6.45398292513552 
461	 6.4215973842455 
462	 6.39045270242627 
463	 6.36609443916189 
464	 6.34487596887983 
465	 6.31669618827296 
466	 6.28281206965419 
467	 6.26138590199051 
468	 6.2364458511212 
469	 6.20984019335688 
470	 6.18598566604097 
471	 6.16079774703996 
472	 6.1295690472012 
473	 6.09934510757729 
474	 6.08276756903609 
475	 6.0600851834458 
476	 6.03994445619223 
477	 6.02539711531155 
478	 6.00199692208695 
479	 5.98174796802781 
480	 5.96497610004601 
481	 5.94902451751262 
482	 5.93608757202786 
483	 5.9283977515831 
484	 5.9219427637579 
485	 5.90732273864919 
486	 5.89320189581388 
487	 5.87560035269691 
488	 5.85364150116302 
489	 5.84024255886083 
490	 5.8219868035756 
491	 5.80353452376899 
492	 5.79414928444528 
493	 5.78327786941554 
494	 5.76811662383319 
495	 5.7507766023337 
496	 5.73826414425502 
497	 5.72890504257151 
498	 5.71709555437808 
499	 5.70064598462052 
500	 5.69283409774342 
501	 5.67466891433218 
502	 5.64804026673179 
503	 5.62698409930354 
504	 5.60926624022655 
505	 5.58886748807996 
506	 5.56641540054803 
507	 5.55400834941829 
508	 5.5358501669196 
509	 5.51517258682043 
510	 5.49867986425003 
511	 5.48273940895328 
512	 5.45926656084846 
513	 5.4327482575243 
514	 5.41701529438218 
515	 5.40111617478295 
516	 5.38682746707226 
517	 5.37410154935104 
518	 5.35390183614099 
519	 5.32871124405503 
520	 5.30330398602323 
521	 5.28168254519674 
522	 5.25729022378462 
523	 5.23844636553098 
524	 5.22655548396449 
525	 5.21496464513757 
526	 5.1981371035625 
527	 5.17853358141825 
528	 5.16094882201247 
529	 5.15096394567931 
530	 5.1394349146831 
531	 5.12730103261757 
532	 5.1198146870323 
533	 5.10722791230183 
534	 5.09484248576552 
535	 5.08570214318602 
536	 5.07680495784915 
537	 5.06002626768522 
538	 5.04604720626188 
539	 5.04473258367454 
540	 5.03595380607874 
541	 5.02379613776286 
542	 5.01165179749492 
543	 5.00136190513976 
544	 4.9913035265518 
545	 4.98124937668118 
546	 4.97184050102495 
547	 4.96553531789011 
548	 4.95840717142004 
549	 4.95089872549414 
550	 4.94423276110377 
551	 4.93243774345764 
552	 4.91974202330993 
553	 4.90947279819262 
554	 4.90295205655074 
555	 4.88578004673503 
556	 4.86764518036248 
557	 4.85742197960871 
558	 4.84159178355218 
559	 4.8237598576824 
560	 4.8068627120373 
561	 4.79292874182229 
562	 4.78122974384231 
563	 4.76577075074503 
564	 4.74683217002374 
565	 4.73688942421968 
566	 4.72518064120875 
567	 4.70949950616211 
568	 4.69178545536996 
569	 4.67880840654777 
570	 4.66792232223353 
571	 4.65628389022496 
572	 4.64161193133104 
573	 4.62880834135082 
574	 4.6153014739922 
575	 4.59937377463346 
576	 4.58520819073587 
577	 4.57072400385495 
578	 4.55680377200811 
579	 4.54510636361095 
580	 4.53315292708126 
581	 4.5211877869551 
582	 4.51068038716641 
583	 4.50434287907069 
584	 4.49583548253376 
585	 4.48506345804832 
586	 4.47378279184159 
587	 4.46327726549295 
588	 4.45355355829227 
589	 4.44477263816902 
590	 4.43732067940978 
591	 4.43085197297889 
592	 4.42805069047965 
593	 4.42798318820994 
594	 4.42272235609926 
595	 4.42070637559827 
596	 4.42096683858566 
597	 4.41971325902785 
598	 4.41629451216304 
599	 4.41164505838733 
600	 4.40715033015227 
601	 4.40440914944418 
602	 4.40124888978636 
603	 4.39870756362556 
604	 4.39778980289908 
605	 4.39810784304272 
606	 4.39644567038148 
607	 4.39530401752824 
608	 4.39847188672354 
609	 4.39622717630672 
610	 4.39163437305907 
611	 4.38731120929455 
612	 4.38335947526315 
613	 4.38146578880074 
614	 4.37978224648184 
615	 4.37620430121227 
616	 4.3714362100242 
617	 4.36711221636862 
618	 4.36269152000313 
619	 4.35619128165964 
620	 4.3486097889949 
621	 4.34043117868111 
622	 4.33237864520799 
623	 4.3259126757847 
624	 4.31924774499132 
625	 4.31096297929439 
626	 4.3007451796274 
627	 4.29255173952015 
628	 4.28346434394915 
629	 4.27375430424911 
630	 4.26692372825544 
631	 4.26098165764099 
632	 4.25337883386143 
633	 4.24406409287708 
634	 4.23920778291822 
635	 4.23656885137652 
636	 4.23431432003474 
637	 4.23119492245751 
638	 4.22955437336049 
639	 4.22950160130771 
640	 4.23022169964873 
641	 4.23000613296317 
642	 4.23179741591822 
643	 4.23465003840601 
644	 4.23652373520278 
645	 4.23492063150001 
646	 4.23426569978129 
647	 4.23476192625416 
648	 4.23443102440915 
649	 4.23769728878763 
650	 4.24165292070666 
651	 4.24343696655615 
652	 4.2418916062928 
653	 4.24038985478154 
654	 4.24043344014691 
655	 4.24304868527868 
656	 4.25015716140576 
657	 4.25613385254408 
658	 4.25976941044403 
659	 4.26482059429736 
660	 4.2731358785095 
661	 4.28192732495252 
662	 4.28928594376869 
663	 4.29672186480257 
664	 4.30553609931105 
665	 4.31435952666946 
666	 4.3217302098746 
667	 4.33063496971139 
668	 4.34017667085511 
669	 4.34918057455992 
670	 4.35668813730869 
671	 4.36483680469537 
672	 4.37136428045869 
673	 4.37551053895582 
674	 4.38213605697376 
675	 4.38803843710113 
676	 4.3910374695218 
677	 4.39084457381849 
678	 4.39552894113628 
679	 4.3997104365694 
680	 4.40004960877125 
681	 4.39650381232938 
682	 4.39449865236711 
683	 4.38752122208724 
684	 4.37214768462941 
685	 4.35843288346325 
686	 4.34508179525383 
687	 4.32772088341764 
688	 4.3039086608637 
689	 4.28628642377079 
690	 4.26363491822312 
691	 4.2333594004694 
692	 4.20443877084248 
693	 4.17012982899401 
694	 4.13595961219086 
695	 4.10790677532526 
696	 4.08672832945432 
697	 4.06775854921553 
698	 4.04554791522473 
699	 4.01689362227547 
700	 3.99294628507498 
701	 3.96956737065318 
702	 3.94615333434897 
703	 3.92733021978932 
704	 3.91040681691066 
705	 3.89340437046099 
706	 3.87526022524731 
707	 3.85694335753132 
708	 3.84106194302302 
709	 3.82620682411301 
710	 3.80973717739425 
711	 3.79388796034447 
712	 3.7774446032828 
713	 3.76065904388423 
714	 3.74538096820418 
715	 3.72273668012707 
716	 3.69356386444585 
717	 3.66101147403226 
718	 3.63018948195059 
719	 3.61073312711162 
720	 3.60296833833607 
721	 3.59957298579859 
722	 3.59521210254692 
723	 3.58058969274515 
724	 3.55687203219828 
725	 3.53830910746561 
726	 3.52444116332041 
727	 3.51305960541548 
728	 3.50198436475768 
729	 3.49180082689982 
730	 3.48138066896345 
731	 3.47360174741032 
732	 3.47108003289695 
733	 3.46854157618087 
734	 3.46261020936996 
735	 3.45325781051008 
736	 3.44340985180214 
737	 3.43487784714697 
738	 3.42666692117212 
739	 3.41800104488649 
740	 3.41003200620637 
741	 3.40350904687473 
742	 3.39676622972876 
743	 3.38816698973355 
744	 3.37982052611999 
745	 3.37118198974002 
746	 3.36284438350806 
747	 3.35598035237358 
748	 3.34775690502338 
749	 3.33878130660288 
750	 3.32996009573891 
751	 3.32183877385908 
752	 3.31409028177581 
753	 3.30698824044858 
754	 3.30018259258669 
755	 3.2906073401639 
756	 3.28204458969898 
757	 3.2735253975146 
758	 3.26203160150599 
759	 3.25524282485141 
760	 3.24698902209079 
761	 3.2328451616422 
762	 3.22169142444164 
763	 3.21746020079388 
764	 3.21329989991337 
765	 3.20701944514257 
766	 3.20676313545039 
767	 3.20098198748859 
768	 3.1932308991642 
769	 3.18897752082435 
770	 3.18234152170266 
771	 3.17488027209342 
772	 3.16814843915779 
773	 3.16292488540131 
774	 3.15385944145689 
775	 3.146135069654 
776	 3.1415964915736 
777	 3.13387053722692 
778	 3.1259524941716 
779	 3.11894567772004 
780	 3.11302045472338 
781	 3.10662330391756 
782	 3.10089399522382 
783	 3.09528279563628 
784	 3.08840191042525 
785	 3.07989471049043 
786	 3.07131412269258 
787	 3.06317283075928 
788	 3.05475087056309 
789	 3.04562926487294 
790	 3.03785098402678 
791	 3.03220363892391 
792	 3.02607767879989 
793	 3.02022196645333 
794	 3.01445382619494 
795	 3.00799067303256 
796	 2.9982784984142 
797	 2.99140427771648 
798	 2.98666892625671 
799	 2.97979620178262 
800	 2.97321566480724 
801	 2.96597421288368 
802	 2.95866323119642 
803	 2.95358782497348 
804	 2.94848392615284 
805	 2.94289343091894 
806	 2.937140000849 
807	 2.93246439779646 
808	 2.92517973315016 
809	 2.91724303484543 
810	 2.91042594982544 
811	 2.89833561967907 
812	 2.88537421850657 
813	 2.87266522815906 
814	 2.8596270876811 
815	 2.84802324969963 
816	 2.83830194302289 
817	 2.83068669203565 
818	 2.8252147326099 
819	 2.82413472969926 
820	 2.82446956641916 
821	 2.82279134519275 
822	 2.81641694953323 
823	 2.81018763050281 
824	 2.80494029823461 
825	 2.80078928525498 
826	 2.79911040075293 
827	 2.79591889275794 
828	 2.7912501057266 
829	 2.78661218630937 
830	 2.78012417780371 
831	 2.7762422757873 
832	 2.77451477368618 
833	 2.77110127552105 
834	 2.76808565975734 
835	 2.76543284218851 
836	 2.7630489404802 
837	 2.76098305305919 
838	 2.75876719987667 
839	 2.75534741280886 
840	 2.7502487308659 
841	 2.74402819808484 
842	 2.74185101758452 
843	 2.7397309193873 
844	 2.73374703334289 
845	 2.72966330714307 
846	 2.72495214211889 
847	 2.7199539242348 
848	 2.71590222367434 
849	 2.71209096325892 
850	 2.70616607176261 
851	 2.69997778178459 
852	 2.69774686991232 
853	 2.6960314552712 
854	 2.69156130301525 
855	 2.68405581611207 
856	 2.67677609240653 
857	 2.67320149540576 
858	 2.66925464049092 
859	 2.66355209829209 
860	 2.66092184605802 
861	 2.65579831834315 
862	 2.65134790017179 
863	 2.65001286644889 
864	 2.64709506959626 
865	 2.64306609662472 
866	 2.63913173117531 
867	 2.63580469883748 
868	 2.62952114938293 
869	 2.62311398523689 
870	 2.61854607709165 
871	 2.61608933436243 
872	 2.61118357356707 
873	 2.60706276582603 
874	 2.60376738468855 
875	 2.59900549738861 
876	 2.59275278866788 
877	 2.58898725850156 
878	 2.58680704278198 
879	 2.58089480241592 
880	 2.57697650993685 
881	 2.57274535169559 
882	 2.56773166200127 
883	 2.56517655791614 
884	 2.56060335706811 
885	 2.5563037536846 
886	 2.55351157874015 
887	 2.54917127856212 
888	 2.54417177923769 
889	 2.53882601471805 
890	 2.53321631452129 
891	 2.52722696367172 
892	 2.51945734252052 
893	 2.51073611397763 
894	 2.5019563714641 
895	 2.49099921070065 
896	 2.48446104714506 
897	 2.47856624962214 
898	 2.46814316015343 
899	 2.46367455330131 
900	 2.46099265034919 
901	 2.4578593947421 
902	 2.45429434118437 
903	 2.45510475572387 
904	 2.45186221331688 
905	 2.44480671808366 
906	 2.43996316989154 
907	 2.44096416326803 
908	 2.43289279902619 
909	 2.41980712814422 
910	 2.41940947234164 
911	 2.41380552898687 
912	 2.40935414777516 
913	 2.40584923550816 
914	 2.39636584272984 
915	 2.39485924515169 
916	 2.39383154287927 
917	 2.39162300851591 
918	 2.3950746994908 
919	 2.39395220827576 
920	 2.3929556937723 
921	 2.3926536910482 
922	 2.38640671877663 
923	 2.38548642251867 
924	 2.3818548332788 
925	 2.37177801183865 
926	 2.36321766042545 
927	 2.35144954291039 
928	 2.34035641671855 
929	 2.33128347566495 
930	 2.31783925348562 
931	 2.30781004503104 
932	 2.29500900252047 
933	 2.27663714407752 
934	 2.26505652135514 
935	 2.25876404836886 
936	 2.25039142090811 
937	 2.24121636193957 
938	 2.24991815714629 
939	 2.24770821881264 
940	 2.24752781215184 
941	 2.2573679645079 
942	 2.25821993852643 
943	 2.25982926179628 
944	 2.26264839879783 
945	 2.26249018695528 
946	 2.25047281348559 
947	 2.24697594193309 
948	 2.24422096488881 
949	 2.23697707017203 
950	 2.24060087658882 
951	 2.24537046663729 
952	 2.24825688033631 
953	 2.24834170992605 
954	 2.24560077877731 
955	 2.24422816754744 
956	 2.2492989715859 
957	 2.25791850539128 
958	 2.25306704889054 
959	 2.25291998790541 
960	 2.26053785927002 
961	 2.27013836754854 
962	 2.26843313847314 
963	 2.27816979016882 
964	 2.28020913559474 
965	 2.27079314469514 
966	 2.28463885082147 
967	 2.28976692499376 
968	 2.28839152406908 
969	 2.2868151098493 
970	 2.28586713118502 
971	 2.29272469841406 
972	 2.29427964512416 
973	 2.28769567852396 
974	 2.2893598840064 
975	 2.28725688237854 
976	 2.28135067797678 
977	 2.27774137068768 
978	 2.28485836187524 
979	 2.28189520188965 
980	 2.27838646600819 
981	 2.27988254368769 
982	 2.28139493168662 
983	 2.27443474693888 
984	 2.27157046238732 
985	 2.27536859513893 
986	 2.27719839201226 
987	 2.27913959073641 
988	 2.2749578128344 
989	 2.26876189311098 
990	 2.26997864449718 
991	 2.26640403471318 
992	 2.26877155699712 
993	 2.27554098682244 
994	 2.27741650482661 
995	 2.27560003320928 
996	 2.26445504373525 
997	 2.25702100234255 
998	 2.26521811845459 
999	 2.26067153508306 
1000	 2.2485035548426 
1001	 2.29642503026925 
1002	 2.29412426603736 
1003	 2.29124121688307 
1004	 2.28776814364545 
1005	 2.28492457327912 
1006	 2.28255389386078 
1007	 2.28002254694519 
1008	 2.27783663118424 
1009	 2.27475585556871 
1010	 2.2715135021817 
1011	 2.26800007673405 
1012	 2.26314712957421 
1013	 2.25974771220564 
1014	 2.25653034273415 
1015	 2.25326758140271 
1016	 2.25062677952097 
1017	 2.24759662238169 
1018	 2.2449743336489 
1019	 2.2430630739385 
1020	 2.24026546930832 
1021	 2.23705978174394 
1022	 2.23411072297146 
1023	 2.23111530064365 
1024	 2.22745222840385 
1025	 2.22409228765006 
1026	 2.22102330244616 
1027	 2.21771339822575 
1028	 2.21514667343926 
1029	 2.21226843968665 
1030	 2.20911161231739 
1031	 2.20608372173417 
1032	 2.20222339052353 
1033	 2.19891022785179 
1034	 2.19618642790823 
1035	 2.19321204195004 
1036	 2.19002046609739 
1037	 2.18675778557733 
1038	 2.18352125663381 
1039	 2.18004379435694 
1040	 2.17604980950278 
1041	 2.17299016276835 
1042	 2.17015327980109 
1043	 2.1669180200456 
1044	 2.16408529053333 
1045	 2.16177305557525 
1046	 2.15871112568529 
1047	 2.15534766838458 
1048	 2.15222936725234 
1049	 2.14952894108202 
1050	 2.1471196945764 
1051	 2.14535210087532 
1052	 2.14293767842888 
1053	 2.14076534765288 
1054	 2.13865727290467 
1055	 2.13598714049718 
1056	 2.13416684426213 
1057	 2.13214630183125 
1058	 2.13028352098208 
1059	 2.12877515708867 
1060	 2.12635517953633 
1061	 2.12434902249206 
1062	 2.12188581312896 
1063	 2.11884185195 
1064	 2.11771208393919 
1065	 2.11600054163827 
1066	 2.11440721493675 
1067	 2.11255588249306 
1068	 2.11169335509812 
1069	 2.10938616447782 
1070	 2.10744876301555 
1071	 2.1061420852721 
1072	 2.10351476202371 
1073	 2.10139869407837 
1074	 2.09958950892638 
1075	 2.09728267619888 
1076	 2.09475703735562 
1077	 2.09233287820404 
1078	 2.09034700349038 
1079	 2.08840913150118 
1080	 2.08716886817574 
1081	 2.0852877878878 
1082	 2.08326714441422 
1083	 2.08016694639776 
1084	 2.07776491424905 
1085	 2.0757898062127 
1086	 2.07388113731655 
1087	 2.07235862538909 
1088	 2.07044471888165 
1089	 2.06706115057056 
1090	 2.06343131480984 
1091	 2.06046861884188 
1092	 2.05724244756611 
1093	 2.05415292203645 
1094	 2.05107701183323 
1095	 2.04774799684205 
1096	 2.04442001556644 
1097	 2.04119867484311 
1098	 2.03736572328311 
1099	 2.03328560890084 
1100	 2.02894462484652 
1101	 2.02443374184201 
1102	 2.02071192843128 
1103	 2.01718044474585 
1104	 2.01305658147942 
1105	 2.00875528879325 
1106	 2.00408675588952 
1107	 1.99895600584177 
1108	 1.99359162103228 
1109	 1.98821769550426 
1110	 1.98174808149057 
1111	 1.97449972458991 
1112	 1.96602223027385 
1113	 1.95767921138436 
1114	 1.94781906507989 
1115	 1.93811965556282 
1116	 1.92817850719102 
1117	 1.91800752058653 
1118	 1.90793376229805 
1119	 1.89695423846574 
1120	 1.88607143435837 
1121	 1.87731197990556 
1122	 1.86992196643111 
1123	 1.86469356680932 
1124	 1.86120441095286 
1125	 1.85830098018249 
1126	 1.85816904917305 
1127	 1.86022802380496 
1128	 1.8623479611433 
1129	 1.86715862446694 
1130	 1.87114971495732 
1131	 1.87423291696141 
1132	 1.878378962863 
1133	 1.8833763024745 
1134	 1.8886345650514 
1135	 1.8937980936103 
1136	 1.89722989701555 
1137	 1.9006470688555 
1138	 1.90321558307014 
1139	 1.90430695326974 
1140	 1.90596863696902 
1141	 1.90621351831239 
1142	 1.90622805749046 
1143	 1.90692190930191 
1144	 1.90723232078064 
1145	 1.90857963874167 
1146	 1.91061419580674 
1147	 1.91298138409352 
1148	 1.91499241228246 
1149	 1.91898734017775 
1150	 1.924628289924 
1151	 1.92979763933365 
1152	 1.93530437791623 
1153	 1.94136490124211 
1154	 1.94734043647831 
1155	 1.95243600378118 
1156	 1.95811808533995 
1157	 1.96384493454221 
1158	 1.96913034407511 
1159	 1.97319936057388 
1160	 1.97713842283686 
1161	 1.98101527039872 
1162	 1.98443712702613 
1163	 1.98771541565589 
1164	 1.99007262706352 
1165	 1.99188849538252 
1166	 1.99336994493834 
1167	 1.99412413423125 
1168	 1.99487648723292 
1169	 1.99561794496292 
1170	 1.99613081897515 
1171	 1.99602515522835 
1172	 1.99559754676455 
1173	 1.9955275637149 
1174	 1.99543100290447 
1175	 1.99494549427262 
1176	 1.99431591454255 
1177	 1.99330470810926 
1178	 1.99148594255347 
1179	 1.99014970603641 
1180	 1.98876042062838 
1181	 1.9876376110704 
1182	 1.98664952846472 
1183	 1.98581015640492 
1184	 1.98501502865978 
1185	 1.98445798491569 
1186	 1.9843492901757 
1187	 1.9839197556913 
1188	 1.98342561213961 
1189	 1.98329402092472 
1190	 1.98251641599677 
1191	 1.98153299376874 
1192	 1.9809445027021 
1193	 1.98008213313852 
1194	 1.97916577606402 
1195	 1.9784363671577 
1196	 1.97718834915916 
1197	 1.97528477752178 
1198	 1.97402508404497 
1199	 1.97289536050507 
1200	 1.97161319199317 
1201	 1.97059398721094 
1202	 1.96942682644572 
1203	 1.96787435578455 
1204	 1.96656454948839 
1205	 1.96547513782473 
1206	 1.96437190161634 
1207	 1.96348921462464 
1208	 1.96234729674351 
1209	 1.96106421271124 
1210	 1.95974271618068 
1211	 1.9587117211629 
1212	 1.95751666337285 
1213	 1.95630635945858 
1214	 1.95514171855366 
1215	 1.95429813032932 
1216	 1.95337529681628 
1217	 1.95267315662912 
1218	 1.95270462507113 
1219	 1.9519481197069 
1220	 1.95065665525915 
1221	 1.94971153016966 
1222	 1.94875270857117 
1223	 1.94767512875937 
1224	 1.94675488544024 
1225	 1.94563568670304 
1226	 1.94410212297044 
1227	 1.94281788020204 
1228	 1.94180880887548 
1229	 1.94037857888836 
1230	 1.93926050189371 
1231	 1.93837448744006 
1232	 1.9375115901764 
1233	 1.93703591435637 
1234	 1.93588427172024 
1235	 1.93446610763616 
1236	 1.93315704097615 
1237	 1.93131410824585 
1238	 1.92998529409903 
1239	 1.92917170062193 
1240	 1.92795429572635 
1241	 1.92670699339276 
1242	 1.92536462000016 
1243	 1.92370604058188 
1244	 1.92227929819519 
1245	 1.92083953314325 
1246	 1.91957993554811 
1247	 1.91863818098692 
1248	 1.91747789131251 
1249	 1.9164134621219 
1250	 1.91512811446919 
1251	 1.9134262648592 
1252	 1.91192878572543 
1253	 1.9105711995766 
1254	 1.90929015414227 
1255	 1.90787037977849 
1256	 1.90666556513664 
1257	 1.90507938598889 
1258	 1.90302455934433 
1259	 1.90135204399327 
1260	 1.89967232832882 
1261	 1.89810869445174 
1262	 1.89672729490455 
1263	 1.89532115899487 
1264	 1.89383766604822 
1265	 1.89263727085178 
1266	 1.89160807236941 
1267	 1.89070034037117 
1268	 1.89009867097511 
1269	 1.88946573625086 
1270	 1.88913694410243 
1271	 1.88851047935836 
1272	 1.88763582287952 
1273	 1.88697626221338 
1274	 1.88621440749269 
1275	 1.88516907797411 
1276	 1.88459256860916 
1277	 1.88422249455802 
1278	 1.88394274556946 
1279	 1.88394657005735 
1280	 1.88374293372264 
1281	 1.88366257021564 
1282	 1.88333849691397 
1283	 1.88271487603877 
1284	 1.88236986900471 
1285	 1.88192821280578 
1286	 1.88174543195328 
1287	 1.88210321545436 
1288	 1.8819235935184 
1289	 1.88154222811443 
1290	 1.88121275308745 
1291	 1.88037860418184 
1292	 1.87999538905477 
1293	 1.88032855917488 
1294	 1.88004477117901 
1295	 1.87970272004897 
1296	 1.87905289032588 
1297	 1.8783724822645 
1298	 1.87718867221179 
1299	 1.87635975438551 
1300	 1.87566041608789 
1301	 1.87497611163736 
1302	 1.87430664973644 
1303	 1.87357305900187 
1304	 1.8729913458458 
1305	 1.87216214832051 
1306	 1.87085705975455 
1307	 1.87018035845572 
1308	 1.86992762362836 
1309	 1.86928802991456 
1310	 1.86870196489666 
1311	 1.86820040245999 
1312	 1.86722733581001 
1313	 1.86677871872523 
1314	 1.86734568933489 
1315	 1.86705085786253 
1316	 1.86628772802316 
1317	 1.86570391840515 
1318	 1.86477713943509 
1319	 1.86385197200351 
1320	 1.86295998478093 
1321	 1.8625289628224 
1322	 1.86120979520145 
1323	 1.85923783497409 
1324	 1.8576862136538 
1325	 1.85601174081452 
1326	 1.8540379633664 
1327	 1.85205295083611 
1328	 1.84993068711306 
1329	 1.84678568758379 
1330	 1.84512472662025 
1331	 1.84449190023736 
1332	 1.84329283569771 
1333	 1.84249112580788 
1334	 1.84179692911932 
1335	 1.84123499420162 
1336	 1.84023941450917 
1337	 1.83985637054912 
1338	 1.83849153811847 
1339	 1.83634304445003 
1340	 1.83331328935161 
1341	 1.8292342667733 
1342	 1.82444711533052 
1343	 1.81712728734897 
1344	 1.80969382321801 
1345	 1.80135098797183 
1346	 1.7897499191428 
1347	 1.77742010243738 
1348	 1.76428725990016 
1349	 1.74914451438403 
1350	 1.73061281169085 
1351	 1.71108366537819 
1352	 1.68852155423888 
1353	 1.66374083957164 
1354	 1.64194824322834 
1355	 1.61237593782145 
1356	 1.59192857483442 
1357	 1.55613326088224 
1358	 1.53530141777265 
1359	 1.48673360397504 
1360	 1.43354646781916 
1361	 1.37243756314284 
1362	 1.36723449639064 
1363	 1.32442676394502 
1364	 1.34437455435643 
1365	 1.34545284747689 
1366	 1.33726727642189 
1367	 1.32425210903202 
1368	 1.31722347297531 
1369	 1.32364148165066 
1370	 1.33912615157198 
1371	 1.33511473796459 
1372	 1.31987130301926 
1373	 1.32310754688174 
1374	 1.32714060359361 
1375	 1.32851955893366 
1376	 1.33149823699098 
1377	 1.34124329379061 
1378	 1.3425026126719 
1379	 1.32370897805842 
1380	 1.33113995860551 
1381	 1.35697761875542 
1382	 1.36624970060275 
1383	 1.37538866793367 
1384	 1.38622931316993 
1385	 1.388029243297 
1386	 1.3976746007882 
1387	 1.41292886830824 
1388	 1.42363512478325 
1389	 1.42806416258624 
1390	 1.44278929832103 
1391	 1.46378852455251 
1392	 1.47847694327533 
1393	 1.49475921619496 
1394	 1.51120765564869 
1395	 1.52607236256443 
1396	 1.53976367574997 
1397	 1.55235689921981 
1398	 1.56850780330923 
1399	 1.58278504598941 
1400	 1.59988875754774 
1401	 1.62597234425701 
1402	 1.6438866176717 
1403	 1.64889935979264 
1404	 1.66667463637064 
1405	 1.69108411878536 
1406	 1.70695469175873 
1407	 1.72683392755627 
1408	 1.75092613408016 
1409	 1.7670688121702 
1410	 1.7855815026513 
1411	 1.80518089145008 
1412	 1.82739593600055 
1413	 1.8451347353946 
1414	 1.8620169681814 
1415	 1.8762138411354 
1416	 1.88749497951064 
1417	 1.90097299415289 
1418	 1.9127731440844 
1419	 1.92751257769177 
1420	 1.94505787012309 
1421	 1.95975466175974 
1422	 1.97603480076303 
1423	 1.98743765223267 
1424	 1.99588472117109 
1425	 2.00488347017961 
1426	 2.01264514763844 
1427	 2.02052233865054 
1428	 2.02980003126174 
1429	 2.03678797330213 
1430	 2.04299633033672 
1431	 2.04798684750576 
1432	 2.05137225426646 
1433	 2.05503292760606 
1434	 2.05711047514626 
1435	 2.06077791105955 
1436	 2.06597125085485 
1437	 2.0697406621725 
1438	 2.07265260520506 
1439	 2.07652149157225 
1440	 2.07877304305096 
1441	 2.08321639005165 
1442	 2.08985900554092 
1443	 2.09597562960696 
1444	 2.10253150010567 
1445	 2.10972773261752 
1446	 2.11728915012562 
1447	 2.1259476786693 
1448	 2.13316129769476 
1449	 2.14038903762898 
1450	 2.14719490618476 
1451	 2.15276463780401 
1452	 2.15904750430892 
1453	 2.16624705563694 
1454	 2.17179133295903 
1455	 2.17772093862554 
1456	 2.1810787261084 
1457	 2.18369077005803 
1458	 2.18434014329019 
1459	 2.1831370571647 
1460	 2.18147178502538 
1461	 2.17773716360632 
1462	 2.17502879607876 
1463	 2.17201374667084 
1464	 2.1683937433383 
1465	 2.16481013046411 
1466	 2.1605816880088 
1467	 2.15392970342205 
1468	 2.15020165228727 
1469	 2.14760318135366 
1470	 2.14587233945861 
1471	 2.14686284971772 
1472	 2.14680817163471 
1473	 2.14617640963293 
1474	 2.14689164705115 
1475	 2.14804312283991 
1476	 2.14974175823574 
1477	 2.15247062875584 
1478	 2.15517487934754 
1479	 2.1587052571137 
1480	 2.16118039396869 
1481	 2.16277640382139 
1482	 2.16529784348854 
1483	 2.16772973941879 
1484	 2.1701532654481 
1485	 2.17338806797028 
1486	 2.17624031741816 
1487	 2.17878919916485 
1488	 2.18066301016521 
1489	 2.18321474148052 
1490	 2.18616278639642 
1491	 2.19012956056195 
1492	 2.19351107528978 
1493	 2.19573011748591 
1494	 2.19706489766376 
1495	 2.1977302538049 
1496	 2.19676964455087 
1497	 2.19682218754969 
1498	 2.19700902904651 
1499	 2.19710779689152 
1500	 2.19740403539585 
1501	 2.19686151489899 
1502	 2.19590711347211 
1503	 2.19511142289938 
1504	 2.19396210475512 
1505	 2.19268865798809 
1506	 2.19164564285653 
1507	 2.19015185525851 
1508	 2.18790426874611 
1509	 2.18631766797203 
1510	 2.18502427529788 
1511	 2.18352425062622 
1512	 2.18203220798545 
1513	 2.18060567062329 
1514	 2.17904594434395 
1515	 2.17766950698436 
1516	 2.17642549259364 
1517	 2.17531046193281 
1518	 2.17448625456934 
1519	 2.17319876411975 
1520	 2.17179185923193 
1521	 2.1704050158691 
1522	 2.16868708861984 
1523	 2.16716386239585 
1524	 2.16585685820001 
1525	 2.16444087901943 
1526	 2.16288985150873 
1527	 2.16140153100658 
1528	 2.16000811711123 
1529	 2.15848584434032 
1530	 2.15680624063696 
1531	 2.15529789789354 
1532	 2.15403782458375 
1533	 2.15239622936998 
1534	 2.15044473909002 
1535	 2.14881362351763 
1536	 2.14722604806838 
1537	 2.14540669317855 
1538	 2.14373028335027 
1539	 2.14202414413022 
1540	 2.13990467346528 
1541	 2.13798780808255 
1542	 2.13645694422502 
1543	 2.1346481665647 
1544	 2.13250349026326 
1545	 2.13065104424534 
1546	 2.12877936813872 
1547	 2.12706947593411 
1548	 2.12579874518265 
1549	 2.1242222510426 
1550	 2.12217111447863 
1551	 2.12076185167859 
1552	 2.12021236967297 
1553	 2.11866616565767 
1554	 2.11679386946654 
1555	 2.11510727536878 
1556	 2.11243611317606 
1557	 2.11029410508132 
1558	 2.10902510715342 
1559	 2.10748025346674 
1560	 2.10578844069449 
1561	 2.10413294005882 
1562	 2.10237674251527 
1563	 2.10077668841908 
1564	 2.09912005893627 
1565	 2.09785064486641 
1566	 2.09645146757919 
1567	 2.09452337884565 
1568	 2.09283089159977 
1569	 2.09070750570686 
1570	 2.08959966053539 
1571	 2.08902917397206 
1572	 2.08818988395109 
1573	 2.08792203806145 
1574	 2.08689669245614 
1575	 2.08556993202933 
1576	 2.0838637411842 
1577	 2.0816919247985 
1578	 2.08003431761748 
1579	 2.07805407659035 
1580	 2.0767747361423 
1581	 2.07630608132614 
1582	 2.07493305600711 
1583	 2.07328950362495 
1584	 2.07203390480788 
1585	 2.07067285366687 
1586	 2.0691648173016 
1587	 2.06806075871703 
1588	 2.06626409864325 
1589	 2.06363069331426 
1590	 2.06186714712888 
1591	 2.06032770588296 
1592	 2.05868086406808 
1593	 2.05758161942119 
1594	 2.05544535473254 
1595	 2.05244081339767 
1596	 2.05049758934583 
1597	 2.04830794188904 
1598	 2.04687682944106 
1599	 2.04678441937666 
1600	 2.04521134070912 
1601	 2.04317229446186 
1602	 2.04123605838583 
1603	 2.03840698842229 
1604	 2.03691697797872 
1605	 2.03627441137112 
1606	 2.03503892924291 
1607	 2.03440872631545 
1608	 2.03271098520393 
1609	 2.03000958550525 
1610	 2.02829374102544 
1611	 2.02642124946013 
1612	 2.02520885254813 
1613	 2.02501991765634 
1614	 2.02368792840967 
1615	 2.02198054965658 
1616	 2.02066824793344 
1617	 2.01912333950316 
1618	 2.01758509884028 
1619	 2.01627885057034 
1620	 2.01506312714974 
1621	 2.01349444953168 
1622	 2.01240922761055 
1623	 2.01219510256569 
1624	 2.01086265598456 
1625	 2.00881669946969 
1626	 2.00759572508203 
1627	 2.00626500371842 
1628	 2.00515515529269 
1629	 2.00482470124121 
1630	 2.00364577716599 
1631	 2.00181412182488 
1632	 2.00048028964419 
1633	 1.99917008966716 
1634	 1.99792828299199 
1635	 1.99687324871999 
1636	 1.99572292945089 
1637	 1.99432210401734 
1638	 1.99354865227276 
1639	 1.9932583627873 
1640	 1.99254224130464 
1641	 1.99194432478394 
1642	 1.99133227500131 
1643	 1.99057337132492 
1644	 1.98955529304783 
1645	 1.98842537403856 
1646	 1.98786496687241 
1647	 1.98720378201045 
1648	 1.98658781822038 
1649	 1.98631986250932 
1650	 1.98657951950609 
1651	 1.98700690519551 
1652	 1.98694641592828 
1653	 1.98764468211477 
1654	 1.98729812745729 
1655	 1.98558058886795 
1656	 1.98514630229336 
1657	 1.98520048346435 
1658	 1.98482754411114 
1659	 1.98450324872052 
1660	 1.98467086184496 
1661	 1.98544634906231 
1662	 1.98589158491625 
1663	 1.98636969164965 
1664	 1.98635892035422 
1665	 1.98590478107107 
1666	 1.98587247556654 
1667	 1.98613515289749 
1668	 1.98627134226549 
1669	 1.98637874473694 
1670	 1.98733854803495 
1671	 1.98780701014302 
1672	 1.98782284261468 
1673	 1.98840925585563 
1674	 1.98818139308497 
1675	 1.98823315091386 
1676	 1.98923435472994 
1677	 1.98985391812239 
1678	 1.99018400304218 
1679	 1.99051457496868 
1680	 1.99056823471797 
1681	 1.99051246995689 
1682	 1.99124557481833 
1683	 1.99231625808979 
1684	 1.99328981421255 
1685	 1.99441993157465 
1686	 1.99506291138658 
1687	 1.99550253946138 
1688	 1.99631597400581 
1689	 1.99715553957843 
1690	 1.99767150520487 
1691	 1.99840488738001 
1692	 1.99906046134144 
1693	 1.99942811958349 
1694	 1.99965032200183 
1695	 2.00017422236797 
1696	 2.0002635528718 
1697	 2.00096894232012 
1698	 2.00271149164968 
1699	 2.00396991844162 
1700	 2.00565534872921 
1701	 2.00651964230804 
1702	 2.00655991064807 
1703	 2.0068234265953 
1704	 2.00595543337226 
1705	 2.00646415168204 
1706	 2.00811162292977 
1707	 2.00929938191051 
1708	 2.01113554572672 
1709	 2.01285214242835 
1710	 2.01448932258939 
1711	 2.01553546193909 
1712	 2.0162727877619 
1713	 2.01711321545801 
1714	 2.01731825482865 
1715	 2.01820019798325 
1716	 2.01995494591036 
1717	 2.02105508703849 
1718	 2.02151969893931 
1719	 2.02251669576005 
1720	 2.02409262819478 
1721	 2.02479488721562 
1722	 2.025340098601 
1723	 2.02600127488895 
1724	 2.02588782083746 
1725	 2.02615074726372 
1726	 2.02730000993435 
1727	 2.02711177540729 
1728	 2.02584358423156 
1729	 2.02551612971762 
1730	 2.02500607564003 
1731	 2.02479685550494 
1732	 2.0249099456754 
1733	 2.02388885395917 
1734	 2.02288844152696 
1735	 2.02199126482647 
1736	 2.02060141105403 
1737	 2.01998957696969 
1738	 2.02070655217558 
1739	 2.02086182421877 
1740	 2.02029772087077 
1741	 2.01989478360108 
1742	 2.01886927073668 
1743	 2.01880984991022 
1744	 2.0198188487267 
1745	 2.02034330795391 
1746	 2.0201710284783 
1747	 2.01905889848625 
1748	 2.01923335192495 
1749	 2.02082547509412 
1750	 2.02235171727656 
1751	 2.02409198868754 
1752	 2.02479260899134 
1753	 2.02469215919988 
1754	 2.02438907792681 
1755	 2.02418567735993 
1756	 2.02423849393694 
1757	 2.02312397638892 
1758	 2.02243630827468 
1759	 2.02192899218027 
1760	 2.02129771961524 
1761	 2.02076414873706 
1762	 2.0201953920345 
1763	 2.01984974764073 
1764	 2.01864468878185 
1765	 2.01707675104959 
1766	 2.01536937316918 
1767	 2.0126266759475 
1768	 2.0109878985434 
1769	 2.00986385455882 
1770	 2.00822814005791 
1771	 2.00699074766006 
1772	 2.00442044765857 
1773	 2.00091649618979 
1774	 1.99728239161504 
1775	 1.99474713136418 
1776	 1.99321645626331 
1777	 1.98959620649058 
1778	 1.98624016505164 
1779	 1.98390500560603 
1780	 1.98083560363471 
1781	 1.97838797164199 
1782	 1.97639242640703 
1783	 1.97446752199589 
1784	 1.97140269222081 
1785	 1.96891901487753 
1786	 1.96759244029905 
1787	 1.96201232838186 
1788	 1.955099046892 
1789	 1.94981602709096 
1790	 1.94400349470122 
1791	 1.93829348725438 
1792	 1.93204360830694 
1793	 1.92480813093635 
1794	 1.91586896509841 
1795	 1.90578999854029 
1796	 1.8981423301014 
1797	 1.89188644009628 
1798	 1.88227390605099 
1799	 1.87390084008823 
1800	 1.86649590962352 
1801	 1.8350916530033 
1802	 1.82722881141756 
1803	 1.81542701793895 
1804	 1.79810292531511 
1805	 1.78612913331918 
1806	 1.77742205845381 
1807	 1.76501892881483 
1808	 1.75300829137236 
1809	 1.7418282200841 
1810	 1.73107342581788 
1811	 1.71572811106066 
1812	 1.70455908805856 
1813	 1.70216776241272 
1814	 1.6921370779796 
1815	 1.67735688675614 
1816	 1.66304035441534 
1817	 1.64296002750103 
1818	 1.62852191152432 
1819	 1.61642795540106 
1820	 1.60568525116438 
1821	 1.59868648576718 
1822	 1.6071629606822 
1823	 1.60054285786094 
1824	 1.58641259863165 
1825	 1.57510787380746 
1826	 1.55210888303804 
1827	 1.53199347586746 
1828	 1.51212606805563 
1829	 1.49132301413816 
1830	 1.48770230329569 
1831	 1.51820060903929 
1832	 1.51651937436563 
1833	 1.57024617789827 
1834	 1.54226857124833 
1835	 1.27837866450443 
1836	 1.17977634464126 
1837	 1.21338422278878 
1838	 1.20234889923116 
1839	 1.23113108847718 
1840	 1.46577797036996 
1841	 1.50619561582997 
1842	 1.4135028770614 
1843	 1.36128936941891 
1844	 1.24454463086877 
1845	 1.21875080061065 
1846	 1.23614865448609 
1847	 1.2153250019579 
1848	 1.19748703548466 
1849	 1.22135439429791 
1850	 1.21015665691651 
1851	 1.13455871217898 
1852	 1.12642415426573 
1853	 1.18289922401955 
1854	 1.17882974841475 
1855	 1.16677912555908 
1856	 1.1537129379972 
1857	 1.14029186835959 
1858	 1.07573754303662 
1859	 1.06569924313858 
1860	 1.06979915688225 
1861	 1.08057077708885 
1862	 1.10922488926025 
1863	 1.13748092731136 
1864	 1.15991043855113 
1865	 1.21215680427043 
1866	 1.38162229586961 
1867	 1.42475757568162 
1868	 1.44962091756355 
1869	 1.4447790684189 
1870	 1.40352361246475 
1871	 1.19188729774935 
1872	 1.20064918197428 
1873	 1.3315313008394 
1874	 1.35726784564142 
1875	 1.37037555610291 
1876	 1.3903623480985 
1877	 1.33846232667425 
1878	 1.39760883577201 
1879	 1.41217728667803 
1880	 1.50865494766592 
1881	 1.54727420837133 
1882	 1.57969707737118 
1883	 1.56789671226426 
1884	 1.52103845310289 
1885	 1.5170036944948 
1886	 1.4923454280595 
1887	 1.50347629674962 
1888	 1.55115746498885 
1889	 1.57194359716161 
1890	 1.60299361311067 
1891	 1.64138006120824 
1892	 1.65937097936948 
1893	 1.68291783281914 
1894	 1.69373233098827 
1895	 1.65427784605602 
1896	 1.65649659440907 
1897	 1.68472393002899 
1898	 1.7239606587946 
1899	 1.79704164846597 
1900	 1.83126809435908 
1901	 1.82406460344403 
1902	 1.70059308805623 
1903	 1.69485915955366 
1904	 1.67814990937597 
1905	 1.68509263661529 
1906	 1.77754219009799 
1907	 1.93175067722144 
1908	 1.80927689584 
1909	 1.81069550001805 
1910	 1.86398297733361 
1911	 1.82049294113654 
1912	 1.84948161050126 
1913	 1.92313731888994 
1914	 1.93528671322749 
1915	 1.9272143274503 
1916	 1.95364510929395 
1917	 1.95805504103712 
1918	 2.0146284247756 
1919	 2.09209654382536 
1920	 2.10744498575188 
1921	 2.10785042713886 
1922	 2.10076032460649 
1923	 2.10326793635652 
1924	 2.08218081734737 
1925	 2.09993648151134 
1926	 2.15287293239351 
1927	 2.18005250270265 
1928	 2.21076538950642 
1929	 2.24037562075304 
1930	 2.24051600974962 
1931	 2.23028684518752 
1932	 2.2266988124789 
1933	 2.22822168980474 
1934	 2.23732396978859 
1935	 2.24941896432812 
1936	 2.26960450943371 
1937	 2.30500449722475 
1938	 2.32387688163408 
1939	 2.34173619769454 
1940	 2.35509209552552 
1941	 2.35970565183457 
1942	 2.35651459472696 
1943	 2.36886229119473 
1944	 2.3865295752544 
1945	 2.40145633678954 
1946	 2.40295924228812 
1947	 2.40842253325892 
1948	 2.40982881779749 
1949	 2.41561016212691 
1950	 2.42202921465179 
1951	 2.43689507357857 
1952	 2.44018700100053 
1953	 2.42638216065338 
1954	 2.42602338585956 
1955	 2.43094602083621 
1956	 2.43495906945915 
1957	 2.4459276883246 
1958	 2.45306421950329 
1959	 2.45017373482187 
1960	 2.45626483846958 
1961	 2.46804515369434 
1962	 2.47843345582881 
1963	 2.48183727499396 
1964	 2.48524450214155 
1965	 2.48730252360753 
1966	 2.485964883166 
1967	 2.48871517041617 
1968	 2.49228231366785 
1969	 2.49457654414481 
1970	 2.49801622076967 
1971	 2.49941358031466 
1972	 2.4999239910614 
1973	 2.49837973528473 
1974	 2.49946105318779 
1975	 2.49806655616702 
1976	 2.49588333645616 
1977	 2.49269675501452 
1978	 2.4862327307199 
1979	 2.48388858721357 
1980	 2.48106785037026 
1981	 2.48013304860761 
1982	 2.47936872464607 
1983	 2.48154802812718 
1984	 2.47564340797732 
1985	 2.4740129953268 
1986	 2.47448249243172 
1987	 2.46995050827636 
1988	 2.46722360236316 
1989	 2.46197537517656 
1990	 2.45498784466462 
1991	 2.45052001850386 
1992	 2.44816648232401 
1993	 2.44646983458682 
1994	 2.44373467015902 
1995	 2.44136114496707 
1996	 2.43951145610602 
1997	 2.4356346427893 
1998	 2.43279398052173 
1999	 2.42915156747786 
2000	 2.42319867626923 
2001	 2.42360714791282 
2002	 2.42363797608625 
2003	 2.42598599818349 
2004	 2.43022534065827 
2005	 2.4270477092196 
2006	 2.42515619691971 
2007	 2.42151221765644 
2008	 2.41772460562569 
2009	 2.41587631770212 
2010	 2.42133448343149 
2011	 2.41889933226177 
2012	 2.41026881443252 
2013	 2.40355344909037 
2014	 2.39773579040092 
2015	 2.39986996104854 
2016	 2.40485401416235 
2017	 2.41410843437064 
2018	 2.41796676207442 
2019	 2.41701336472487 
2020	 2.4100345240878 
2021	 2.41030900791427 
2022	 2.41162639423966 
2023	 2.41232455883501 
2024	 2.41948753391918 
2025	 2.42772525750797 
2026	 2.43102515462835 
2027	 2.43401937674614 
2028	 2.43835353584256 
2029	 2.4418561892315 
2030	 2.4440152393556 
2031	 2.44856407172298 
2032	 2.45117276033231 
2033	 2.45329574708439 
2034	 2.45091614161003 
2035	 2.453350902579 
2036	 2.45834734719149 
2037	 2.46089118567199 
2038	 2.46671645622308 
2039	 2.47050097722578 
2040	 2.46965669766657 
2041	 2.47204119897471 
2042	 2.47573015961564 
2043	 2.47871138064998 
2044	 2.48304960674063 
2045	 2.48597816055197 
2046	 2.4877194925605 
2047	 2.48786367076111 
2048	 2.49339314142365 
2049	 2.49883920810944 
2050	 2.50108428164176 
2051	 2.50894667047317 
2052	 2.51309769748965 
2053	 2.51104259297082 
2054	 2.51238736229555 
2055	 2.51159070474071 
2056	 2.51072664241288 
2057	 2.51456516456084 
2058	 2.51909021943206 
2059	 2.52298478177334 
2060	 2.5282346907064 
2061	 2.53303305571182 
2062	 2.53509626769206 
2063	 2.53360110838294 
2064	 2.53311844040568 
2065	 2.53279521463855 
2066	 2.53024307424877 
2067	 2.52916635434221 
2068	 2.52777513584025 
2069	 2.52601356110264 
2070	 2.52739016343285 
2071	 2.53132598840475 
2072	 2.53622994302965 
2073	 2.54449085849264 
2074	 2.55162934274625 
2075	 2.55256730197526 
2076	 2.55142986504747 
2077	 2.55116243780757 
2078	 2.5497098233859 
2079	 2.55126218725623 
2080	 2.55624682335728 
2081	 2.55903049303299 
2082	 2.55831746704193 
2083	 2.55513867774272 
2084	 2.55180582634821 
2085	 2.55024129176937 
2086	 2.55221501269074 
2087	 2.55405594324148 
2088	 2.55908154140435 
2089	 2.56258336533926 
2090	 2.56264944118369 
2091	 2.5596232559253 
2092	 2.55921287412673 
2093	 2.55841633303873 
2094	 2.55610913528899 
2095	 2.5572051840653 
2096	 2.5545787947392 
2097	 2.55113038254985 
2098	 2.55239355398123 
2099	 2.55252517547655 
2100	 2.55244155535549 
2101	 2.55507023751598 
2102	 2.55605568962717 
2103	 2.55628820243508 
2104	 2.555387091138 
2105	 2.55671819893307 
2106	 2.55567429693059 
2107	 2.55665088140439 
2108	 2.55999787879046 
2109	 2.55890253639885 
2110	 2.55894347188912 
2111	 2.55772919233585 
2112	 2.55187235635451 
2113	 2.54668044772033 
2114	 2.54466833874869 
2115	 2.54161452081186 
2116	 2.54039763271283 
2117	 2.54065952383189 
2118	 2.54342558950821 
2119	 2.54289274494108 
2120	 2.54230557153842 
2121	 2.54207154299295 
2122	 2.5390761925351 
2123	 2.53791819706799 
2124	 2.53571779888209 
2125	 2.53530265791087 
2126	 2.53664030971727 
2127	 2.53819573162995 
2128	 2.54050074329522 
2129	 2.54045572184598 
2130	 2.53838596991369 
2131	 2.53762540573481 
2132	 2.53691834280677 
2133	 2.53474338806955 
2134	 2.53370863782934 
2135	 2.53370953314257 
2136	 2.53128264452262 
2137	 2.52890184556096 
2138	 2.53045165380046 
2139	 2.52814150399518 
2140	 2.52693097754157 
2141	 2.52862143312189 
2142	 2.52501301627546 
2143	 2.52460666960658 
2144	 2.52523974027674 
2145	 2.52080913932031 
2146	 2.51987988316875 
2147	 2.51983572391629 
2148	 2.51237688142178 
2149	 2.50449983311578 
2150	 2.50044198052391 
2151	 2.49815912347402 
2152	 2.49881627142602 
2153	 2.49937445124916 
2154	 2.50464613766681 
2155	 2.50267510446356 
2156	 2.49581737173638 
2157	 2.48845130723934 
2158	 2.48143300011232 
2159	 2.47605132161832 
2160	 2.47829211676114 
2161	 2.478929480383 
2162	 2.47817144993326 
2163	 2.48042241350028 
2164	 2.47808250498093 
2165	 2.47692536727378 
2166	 2.47631639038042 
2167	 2.47319817409364 
2168	 2.47071359689781 
2169	 2.46744174286572 
2170	 2.46466828896126 
2171	 2.46132994488025 
2172	 2.46092683195802 
2173	 2.46028348999824 
2174	 2.45895231375496 
2175	 2.45829760466084 
2176	 2.45651194789963 
2177	 2.45345431443321 
2178	 2.44960584885105 
2179	 2.44377501950965 
2180	 2.43685319313809 
2181	 2.43162193950922 
2182	 2.42771933116874 
2183	 2.42842022683628 
2184	 2.42821285549732 
2185	 2.42192516313756 
2186	 2.41995228898114 
2187	 2.41860657813588 
2188	 2.41659670644099 
2189	 2.4140048662983 
2190	 2.41446246110821 
2191	 2.41082997901383 
2192	 2.40520519560435 
2193	 2.40090981012308 
2194	 2.40036317869778 
2195	 2.40378335641699 
2196	 2.40426677795652 
2197	 2.39966184630215 
2198	 2.39588936100818 
2199	 2.39301361989757 
2200	 2.39123519817158 
2201	 2.39516441758141 
2202	 2.39824809425194 
2203	 2.39272798139925 
2204	 2.385771834041 
2205	 2.38058558725407 
2206	 2.37551883957129 
2207	 2.37593040069858 
2208	 2.37796846594998 
2209	 2.38493978611468 
2210	 2.38570336653652 
2211	 2.3854153453791 
2212	 2.38854415851369 
2213	 2.38139929962821 
2214	 2.37495226264418 
2215	 2.37470058720534 
2216	 2.36679776426457 
2217	 2.36499036912503 
2218	 2.36748073946216 
2219	 2.36593641597027 
2220	 2.36900157227173 
2221	 2.37670930117213 
2222	 2.38085652282283 
2223	 2.380151401834 
2224	 2.38128243215851 
2225	 2.37816543050416 
2226	 2.37624294025482 
2227	 2.38147740298876 
2228	 2.38518019376376 
2229	 2.38889622454191 
2230	 2.39204887446865 
2231	 2.395780747298 
2232	 2.40175588029796 
2233	 2.40484614958236 
2234	 2.40530569971178 
2235	 2.40966055860695 
2236	 2.41375200632866 
2237	 2.4175296652647 
2238	 2.42609842323966 
2239	 2.43144610444246 
2240	 2.43661271231162 
2241	 2.44201728387805 
2242	 2.44813782858533 
2243	 2.45599757531322 
2244	 2.45804753221487 
2245	 2.46355817980092 
2246	 2.46766637189192 
2247	 2.47034627428972 
2248	 2.48341775197128 
2249	 2.49228861433525 
2250	 2.49770997188932 
2251	 2.50690974351575 
2252	 2.51477483765367 
2253	 2.52138542943771 
2254	 2.53341548951978 
2255	 2.54856531865471 
2256	 2.5573223420969 
2257	 2.56095113946878 
2258	 2.56757063531366 
2259	 2.5720601557805 
2260	 2.57045905989816 
2261	 2.57471116333368 
2262	 2.57789249082239 
2263	 2.58189484949939 
2264	 2.587894049093 
2265	 2.59049592293354 
2266	 2.59815558526558 
2267	 2.61007380923457 
2268	 2.62357404380917 
2269	 2.63508363441818 
2270	 2.64042854208694 
2271	 2.64385920504793 
2272	 2.64303858311139 
2273	 2.64513846719906 
2274	 2.65248970633842 
2275	 2.65459344227916 
2276	 2.65344213101249 
2277	 2.65600661871364 
2278	 2.65425854367165 
2279	 2.64935240176829 
2280	 2.65063780666044 
2281	 2.64795589430004 
2282	 2.6500178918813 
2283	 2.6613045618609 
2284	 2.66629646467056 
2285	 2.66834197300227 
2286	 2.67283024462803 
2287	 2.67825089646999 
2288	 2.67688676219565 
2289	 2.67445902095364 
2290	 2.68383586736029 
2291	 2.68886266256817 
2292	 2.6882621179368 
2293	 2.69949290463579 
2294	 2.70324818145941 
2295	 2.69894410251711 
2296	 2.70728824007211 
2297	 2.70989761207642 
2298	 2.71098921335426 
2299	 2.72082246400058 
2300	 2.72138639880722 
2301	 2.7293480167005 
2302	 2.74100998013887 
2303	 2.74318736144105 
2304	 2.74900735067876 
2305	 2.74839657158121 
2306	 2.74494802476364 
2307	 2.75367809842151 
2308	 2.77450923921592 
2309	 2.79343405130967 
2310	 2.80147822567369 
2311	 2.80412061955908 
2312	 2.79425801186932 
2313	 2.78875391292092 
2314	 2.79570193351642 
2315	 2.78356755128333 
2316	 2.77046512878875 
2317	 2.77149731774048 
2318	 2.76527060204731 
2319	 2.76312380660537 
2320	 2.7704001449579 
2321	 2.7754191380256 
2322	 2.7697311102761 
2323	 2.7688899899217 
2324	 2.77428368295355 
2325	 2.7841691735866 
2326	 2.78091085144391 
2327	 2.77806103958947 
2328	 2.78159385374411 
2329	 2.78251944179082 
2330	 2.78004756185574 
2331	 2.77849308473609 
2332	 2.77930543442436 
2333	 2.76693725360762 
2334	 2.75921709875633 
2335	 2.77189976956801 
2336	 2.78170404086649 
2337	 2.78582550522825 
2338	 2.78517153944495 
2339	 2.77791981099167 
2340	 2.76925800692875 
2341	 2.76507203815265 
2342	 2.75553308508257 
2343	 2.74193501496564 
2344	 2.74147177569792 
2345	 2.74936689847658 
2346	 2.7745127312416 
2347	 2.80099263083535 
2348	 2.80718128649048 
2349	 2.80750153146876 
2350	 2.80545099766764 
2351	 2.80095826037795 
2352	 2.79884344827953 
2353	 2.80677862943836 
2354	 2.80518175874181 
2355	 2.8038152905013 
2356	 2.82912626802023 
2357	 2.83043386534934 
2358	 2.8125741475608 
2359	 2.80359565604189 
2360	 2.77072132228812 
2361	 2.76182582408678 
2362	 2.78117883383406 
2363	 2.77364437103436 
2364	 2.76748157081898 
2365	 2.75553449842667 
2366	 2.72970139998594 
2367	 2.73484260348926 
2368	 2.76125472975866 
2369	 2.77463252650048 
2370	 2.79382916899208 
2371	 2.80177668161401 
2372	 2.79697331412348 
2373	 2.76779637473168 
2374	 2.76278047979774 
2375	 2.76072600037045 
2376	 2.75836862785271 
2377	 2.76501225694375 
2378	 2.75729690584031 
2379	 2.73475648414933 
2380	 2.72517384323193 
2381	 2.72212621669561 
2382	 2.72652258835836 
2383	 2.74247285335351 
2384	 2.74607416662069 
2385	 2.74638703280972 
2386	 2.73432418150059 
2387	 2.7026477761246 
2388	 2.69804071173308 
2389	 2.70754055257581 
2390	 2.71442763421684 
2391	 2.73462554303606 
2392	 2.74076179105876 
2393	 2.72468562501674 
2394	 2.73396609595072 
2395	 2.76230010295308 
2396	 2.78105319321632 
2397	 2.82751546519181 
2398	 2.83025917654889 
2399	 2.79102883066288 
2400	 2.77739567099864 
2401	 2.74988069197935 
2402	 2.72748452537745 
2403	 2.75922447781659 
2404	 2.76988479334904 
2405	 2.77126463174197 
2406	 2.77330406925236 
2407	 2.74361926400119 
2408	 2.73237142449488 
2409	 2.73516492642297 
2410	 2.74390144983048 
2411	 2.74105259541721 
2412	 2.73086672761217 
2413	 2.76371068216445 
2414	 2.75416373449675 
2415	 2.76193068129399 
2416	 2.83235803268064 
2417	 2.84185598897688 
2418	 2.84639559698693 
2419	 2.85486764504604 
2420	 2.84013173534977 
2421	 2.8362977051567 
2422	 2.8669866715631 
2423	 2.91551921087411 
2424	 2.90480476974354 
2425	 2.84611812086752 
2426	 2.81607779471713 
2427	 2.81919239823916 
2428	 2.83505182835269 
2429	 2.90557170962786 
2430	 2.97123935609553 
2431	 3.0006970143423 
2432	 3.02779916627509 
2433	 3.02464265997056 
2434	 3.01608114904511 
2435	 3.00048032503539 
2436	 2.97629707348691 
2437	 2.89869093255846 
2438	 2.8876845351452 
2439	 2.89842966249914 
2440	 2.90754626046297 
2441	 3.0092615381147 
2442	 3.03823747909546 
2443	 3.01234923668858 
2444	 3.00072714743041 
2445	 2.91054330537425 
2446	 2.89910086638217 
2447	 2.97672418036645 
2448	 3.00154263698671 
2449	 3.08231613542033 
2450	 3.10236461026636 
2451	 2.95346257892164 
2452	 2.93633166202634 
2453	 3.01240832030354 
2454	 3.03167304975797 
2455	 3.12838949611461 
2456	 3.1449973366922 
2457	 3.04951753695069 
2458	 2.99672034559815 
2459	 2.93987405470374 
2460	 2.92692074931241 
2461	 2.92063535973944 
2462	 2.90203898541969 
2463	 2.88511687002813 
2464	 2.88562945656781 
2465	 2.91354296144166 
2466	 2.93593125277482 
2467	 2.98951570956423 
2468	 3.03341041840519 
2469	 3.07988887428497 
2470	 3.08452572325083 
2471	 3.09030672019359 
2472	 3.07078575811711 
2473	 2.87844417375473 
2474	 2.84694937171164 
2475	 2.9287507931694 
2476	 3.00700945607854 
2477	 3.33143784085962 
2478	 3.41543850215476 
2479	 3.25256613283965 
2480	 3.1868285721326 
2481	 2.93039994412797 
2482	 2.90519892636702 
2483	 3.21680830788307 
2484	 3.30843762606857 
2485	 3.3630120827853 
2486	 3.27156459968168 
2487	 3.04850865735772 
2488	 3.09694702923289 
2489	 2.88499639542183 
2490	 2.84801705394914 
2491	 3.35490001368462 
2492	 2.95077719461929 
2493	 2.79628519420537 
2494	 3.05553611548262 
2495	 2.74792154060721 
2496	 2.99419919681115 
2497	 3.48408975938392 
2498	 3.07192836191397 
2499	 3.07021353203333 
2500	 3.06160889566221 
