Wavelength	ref00004.asd
350	 7.97598870889662E-02 
351	 8.02238284915722E-02 
352	 7.99580392059401E-02 
353	 7.95200410566528E-02 
354	 0.08035975437461 
355	 8.07051230523185E-02 
356	 7.98209224471577E-02 
357	 8.02847734216774E-02 
358	 8.08885275518733E-02 
359	 8.13341894613201E-02 
360	 8.16357649469581E-02 
361	 8.19730810719178E-02 
362	 8.21329113263124E-02 
363	 8.22558455464617E-02 
364	 8.26205271246534E-02 
365	 8.23497293212786E-02 
366	 8.22772360762908E-02 
367	 0.082702044129498 
368	 0.082917291418313 
369	 8.30834597696954E-02 
370	 0.083289880468463 
371	 8.35574303111338E-02 
372	 8.37218851224018E-02 
373	 8.38861082918943E-02 
374	 0.08403144282462 
375	 8.41266446477651E-02 
376	 8.45561435347918E-02 
377	 8.49168152582278E-02 
378	 8.50990255271538E-02 
379	 8.54175302028443E-02 
380	 8.53130730350759E-02 
381	 8.56419565519234E-02 
382	 8.67287706852173E-02 
383	 8.66392256620493E-02 
384	 8.68597480075572E-02 
385	 8.74873198153705E-02 
386	 8.80066666250375E-02 
387	 8.82693819479041E-02 
388	 8.87643337801255E-02 
389	 8.94607800905206E-02 
390	 8.97598325475091E-02 
391	 8.97648120882349E-02 
392	 8.99695166302084E-02 
393	 9.05621771687469E-02 
394	 9.08933512312064E-02 
395	 9.13796738448056E-02 
396	 0.09182280923645 
397	 9.20041135181352E-02 
398	 9.27511113272145E-02 
399	 9.30102833644089E-02 
400	 0.092849139274792 
401	 9.32561445864321E-02 
402	 9.36658076543069E-02 
403	 9.39787009699121E-02 
404	 9.42148423567414E-02 
405	 9.44799493336387E-02 
406	 9.48370444658619E-02 
407	 9.52193800246478E-02 
408	 9.55229664041234E-02 
409	 9.57332830646701E-02 
410	 9.60084186978208E-02 
411	 9.63612565110796E-02 
412	 9.66747506507489E-02 
413	 9.70017076772004E-02 
414	 9.72263875154362E-02 
415	 9.73625664262347E-02 
416	 0.09773767531954 
417	 9.81560941413732E-02 
418	 9.85320867319605E-02 
419	 9.88413634847532E-02 
420	 9.91686166747675E-02 
421	 9.95496198422456E-02 
422	 9.99016470230856E-02 
423	 0.100070849269725 
424	 0.100419656156336 
425	 0.100788214921834 
426	 0.101037703254105 
427	 0.101258476321882 
428	 0.101590229307043 
429	 0.101954543029084 
430	 0.10222711442945 
431	 0.102513245067746 
432	 0.102816524278604 
433	 0.103165666906525 
434	 0.103593184275206 
435	 0.103739995038649 
436	 0.103852653524885 
437	 0.104121962626054 
438	 0.104427479621544 
439	 0.104736379227236 
440	 0.10498887646736 
441	 0.105160466034556 
442	 0.10543832153368 
443	 0.105667233228694 
444	 0.105835807192153 
445	 0.106079295690415 
446	 0.106237175132152 
447	 0.106438620134327 
448	 0.106752028940868 
449	 0.106989065101594 
450	 0.107099134714935 
451	 0.107188658453245 
452	 0.107410406407707 
453	 0.10770391844999 
454	 0.107981804153197 
455	 0.10822846473313 
456	 0.108513382900805 
457	 0.108719084491041 
458	 0.10891755081613 
459	 0.109162211324933 
460	 0.109306711823405 
461	 0.109532760303086 
462	 0.109764697879066 
463	 0.109827652043206 
464	 0.110009316080025 
465	 0.110202498308963 
466	 0.110370795993533 
467	 0.11064949076688 
468	 0.110814678335941 
469	 0.110935916512075 
470	 0.111115957211104 
471	 0.111228193716911 
472	 0.11142619301161 
473	 0.111668540644653 
474	 0.111795473939737 
475	 0.112021677948811 
476	 0.112230704572846 
477	 0.112368023070231 
478	 0.112580010095934 
479	 0.112797747295309 
480	 0.112988259560657 
481	 0.113141730165179 
482	 0.113300736490089 
483	 0.113523701836655 
484	 0.113772359800719 
485	 0.11392118924513 
486	 0.114133976027103 
487	 0.1143781601066 
488	 0.114598789990376 
489	 0.11479016823706 
490	 0.114981763424428 
491	 0.115188762810038 
492	 0.115415883704372 
493	 0.11563735332733 
494	 0.115860331736487 
495	 0.116090099764332 
496	 0.116326696023244 
497	 0.116535537661079 
498	 0.116750543250381 
499	 0.116999198230429 
500	 0.117231296076825 
501	 0.117447171525285 
502	 0.117683291312838 
503	 0.117982130794382 
504	 0.118215276137292 
505	 0.118428222748631 
506	 0.118652206882937 
507	 0.11885482238378 
508	 0.119139349204025 
509	 0.119429448081848 
510	 0.119636411014301 
511	 0.119880449229939 
512	 0.120154097774923 
513	 0.120433984762698 
514	 0.120687431396339 
515	 0.120900228287458 
516	 0.121194564206056 
517	 0.121596590145089 
518	 0.121852391476207 
519	 0.122082219578256 
520	 0.122338679040563 
521	 0.122633477145019 
522	 0.122877967954447 
523	 0.123159826450533 
524	 0.123458937142162 
525	 0.12362407032843 
526	 0.123913766138441 
527	 0.124279950034946 
528	 0.124602250968653 
529	 0.124759998284163 
530	 0.125010392848597 
531	 0.125365402909678 
532	 0.125696393661856 
533	 0.125973939851357 
534	 0.12624290272813 
535	 0.126529685205519 
536	 0.1268135064486 
537	 0.127134310166367 
538	 0.127441588879613 
539	 0.127678578981181 
540	 0.127880630696117 
541	 0.128200568600423 
542	 0.128575482966847 
543	 0.128773809693622 
544	 0.128993494282206 
545	 0.129276527869732 
546	 0.129604579847546 
547	 0.129887655106589 
548	 0.130135686145373 
549	 0.130393673360431 
550	 0.130701983324435 
551	 0.130944202232337 
552	 0.131242424301884 
553	 0.131573204875174 
554	 0.13172218612358 
555	 0.131997964834486 
556	 0.132329559244658 
557	 0.132597340078492 
558	 0.132837947592871 
559	 0.133152268827409 
560	 0.133469156231846 
561	 0.13363817345439 
562	 0.13391294585736 
563	 0.134191267105171 
564	 0.134409069939168 
565	 0.134649013642339 
566	 0.134875840945553 
567	 0.13506762836892 
568	 0.135228735874071 
569	 0.135469868650128 
570	 0.135685005443588 
571	 0.135856639729219 
572	 0.136056666342439 
573	 0.136225411621362 
574	 0.13643787368376 
575	 0.136710917628704 
576	 0.136836120970754 
577	 0.137037172846849 
578	 0.137287297531386 
579	 0.137453012181032 
580	 0.137573697024951 
581	 0.13769184597913 
582	 0.13782100677466 
583	 0.137934949747591 
584	 0.138086052536448 
585	 0.138251905461541 
586	 0.138394231160687 
587	 0.13848796371136 
588	 0.138674765725666 
589	 0.138885759122558 
590	 0.138914084831877 
591	 0.138965367623333 
592	 0.139105467155894 
593	 0.139311972009641 
594	 0.139443301023786 
595	 0.13957829831685 
596	 0.139732791547214 
597	 0.13989005226137 
598	 0.139966710926233 
599	 0.140049942312857 
600	 0.140172023141628 
601	 0.140299625076564 
602	 0.140364278664512 
603	 0.140460035107591 
604	 0.140622597099846 
605	 0.140636299635598 
606	 0.140721219797329 
607	 0.140844493463478 
608	 0.140880884219033 
609	 0.141035111284854 
610	 0.141199944878659 
611	 0.141286284164302 
612	 0.141273439222436 
613	 0.141358288961555 
614	 0.141478870334356 
615	 0.141539054074114 
616	 0.141613081543098 
617	 0.141670488268145 
618	 0.141719003069815 
619	 0.141792160906496 
620	 0.14187918051058 
621	 0.141953010640188 
622	 0.142010937593318 
623	 0.142103531361471 
624	 0.14216647085767 
625	 0.14222293872881 
626	 0.142316902729997 
627	 0.142424068127988 
628	 0.142552131099534 
629	 0.142647758948545 
630	 0.142611157816886 
631	 0.142687023570474 
632	 0.142795569640626 
633	 0.142836640513106 
634	 0.142813451752922 
635	 0.142920250906378 
636	 0.143098876890647 
637	 0.143190555734856 
638	 0.143276965412704 
639	 0.143313778646649 
640	 0.143312031839843 
641	 0.143362027929561 
642	 0.143452537488116 
643	 0.143548665178646 
644	 0.14362836505342 
645	 0.143753972161547 
646	 0.143711950548433 
647	 0.143635607222194 
648	 0.14382920098774 
649	 0.144000881728425 
650	 0.144031389320318 
651	 0.143961232392713 
652	 0.14404320203515 
653	 0.144186535417942 
654	 0.144329363209385 
655	 0.144427804153082 
656	 0.144484302464468 
657	 0.14456808914265 
658	 0.144657024993315 
659	 0.144683639350188 
660	 0.144735247284629 
661	 0.144761954453518 
662	 0.144758307395271 
663	 0.144847767863868 
664	 0.144889587953512 
665	 0.144904765950616 
666	 0.144954990625343 
667	 0.145001885746071 
668	 0.145017265168835 
669	 0.145042443077759 
670	 0.145162650061646 
671	 0.145074036738139 
672	 0.14501992898963 
673	 0.145171064214607 
674	 0.145304457606785 
675	 0.145397187130253 
676	 0.145489604559215 
677	 0.145625075998738 
678	 0.145653995188759 
679	 0.145686643395381 
680	 0.145787818023651 
681	 0.145951791619053 
682	 0.146082860201256 
683	 0.146210447848431 
684	 0.146392674787809 
685	 0.146709068590101 
686	 0.146918841174102 
687	 0.147133252857446 
688	 0.147553586956635 
689	 0.147785421899259 
690	 0.148054356553461 
691	 0.14838434949589 
692	 0.148530591981139 
693	 0.148933493825961 
694	 0.149359345021739 
695	 0.149606994653272 
696	 0.149963968784466 
697	 0.15037204477327 
698	 0.150732672851529 
699	 0.150966784516229 
700	 0.151332349639109 
701	 0.15168214297131 
702	 0.151936005935508 
703	 0.152139931224934 
704	 0.152381809931141 
705	 0.152628186310925 
706	 0.152850280611108 
707	 0.153099783514314 
708	 0.153425492542129 
709	 0.15372295589057 
710	 0.153862876088727 
711	 0.154093522316885 
712	 0.154372485821264 
713	 0.154607789686326 
714	 0.15468954962239 
715	 0.154869882869958 
716	 0.155106331756739 
717	 0.155324224586804 
718	 0.155532061662487 
719	 0.155776067292645 
720	 0.155991089057366 
721	 0.156099285361646 
722	 0.156229546907524 
723	 0.15636836150224 
724	 0.15653941846536 
725	 0.156790372012193 
726	 0.156968611230799 
727	 0.157101451555356 
728	 0.157253531687176 
729	 0.157472934267927 
730	 0.157673981769239 
731	 0.157882184381341 
732	 0.158124015240591 
733	 0.158182617072515 
734	 0.158244342015588 
735	 0.158397174885544 
736	 0.158612268081466 
737	 0.158756917092263 
738	 0.158896369824012 
739	 0.159067504190506 
740	 0.159154119317113 
741	 0.159331087723198 
742	 0.159561379618831 
743	 0.159746925180883 
744	 0.159897604786012 
745	 0.159969920003601 
746	 0.160036761814073 
747	 0.16023340889862 
748	 0.160345642833839 
749	 0.160494833892816 
750	 0.16072468114242 
751	 0.160873479467413 
752	 0.161008985809965 
753	 0.161138930301736 
754	 0.161257449971575 
755	 0.161357601551161 
756	 0.161482847760627 
757	 0.161679398538145 
758	 0.161973340519067 
759	 0.162163343030347 
760	 0.162492236729805 
761	 0.163003573863607 
762	 0.163013263014034 
763	 0.163065655257525 
764	 0.163163099343464 
765	 0.16320755292635 
766	 0.163156269604986 
767	 0.163158862645227 
768	 0.16325095447166 
769	 0.163406130780966 
770	 0.163453724682918 
771	 0.163591984837776 
772	 0.163818948367705 
773	 0.16395920920817 
774	 0.164052693538288 
775	 0.164111738684881 
776	 0.16420169450771 
777	 0.164484020074568 
778	 0.164607666156494 
779	 0.164672641841093 
780	 0.164830457164389 
781	 0.164925407541394 
782	 0.165069359970869 
783	 0.165260313528392 
784	 0.165434393986442 
785	 0.165580237277896 
786	 0.165687961758851 
787	 0.165789474498623 
788	 0.165953465595505 
789	 0.166144667562551 
790	 0.166326607756997 
791	 0.166468219065327 
792	 0.166541001794318 
793	 0.166755851786183 
794	 0.16700041875671 
795	 0.167111466137254 
796	 0.167188280257729 
797	 0.167288463108055 
798	 0.167455645102727 
799	 0.167684665163876 
800	 0.167707894754223 
801	 0.167797077748677 
802	 0.168024401172988 
803	 0.168183364025636 
804	 0.168399539666347 
805	 0.168614921864616 
806	 0.168766304965995 
807	 0.16884675325613 
808	 0.16896067626968 
809	 0.169070749335846 
810	 0.169126840764651 
811	 0.169212967045532 
812	 0.169430853549343 
813	 0.16967679895109 
814	 0.169759835620803 
815	 0.169847407951232 
816	 0.170041728677078 
817	 0.170320832823849 
818	 0.170536081410796 
819	 0.170629887584057 
820	 0.170659320697536 
821	 0.170725756027046 
822	 0.170962080664901 
823	 0.171186851801513 
824	 0.171350752997345 
825	 0.171469612698289 
826	 0.171635711685681 
827	 0.171809091661824 
828	 0.172060004984658 
829	 0.172413607231442 
830	 0.172463996142749 
831	 0.17249745811113 
832	 0.172629296125474 
833	 0.172807688472752 
834	 0.173007381782696 
835	 0.173172089009227 
836	 0.173281781845452 
837	 0.173365026563251 
838	 0.173483270193141 
839	 0.173665194785598 
840	 0.173894749733479 
841	 0.17409561672471 
842	 0.174183195695034 
843	 0.1742645197163 
844	 0.174452531298958 
845	 0.174689271545923 
846	 0.174804047274255 
847	 0.174826952374783 
848	 0.174895478196653 
849	 0.175142042295232 
850	 0.175323156422682 
851	 0.175420154401384 
852	 0.175579317051421 
853	 0.17563978275735 
854	 0.175805035160758 
855	 0.17607777796155 
856	 0.176205355279726 
857	 0.176253704871738 
858	 0.176359908782074 
859	 0.176555103767672 
860	 0.176687321174588 
861	 0.176940735707074 
862	 0.17716731514538 
863	 0.177252946400022 
864	 0.177372105181085 
865	 0.177565618490656 
866	 0.177724717535124 
867	 0.177760892036337 
868	 0.177894459519691 
869	 0.178051126539449 
870	 0.178164679146322 
871	 0.178223709258543 
872	 0.178437616691664 
873	 0.178684861784377 
874	 0.178837697894126 
875	 0.178825186707333 
876	 0.178883486582693 
877	 0.179012714060928 
878	 0.179106000334478 
879	 0.179035962662973 
880	 0.179385132375321 
881	 0.179766599550152 
882	 0.179877103732355 
883	 0.179761404746007 
884	 0.179772101694894 
885	 0.179998987445249 
886	 0.180327607111483 
887	 0.180414608609358 
888	 0.18044691285496 
889	 0.180488029503565 
890	 0.18060044883293 
891	 0.180925619019177 
892	 0.181171786835371 
893	 0.181195057613267 
894	 0.181050985248398 
895	 0.181264598738835 
896	 0.181423880465566 
897	 0.181494698801462 
898	 0.181588870410323 
899	 0.181633882541306 
900	 0.181777452819487 
901	 0.181880837099783 
902	 0.181785163986422 
903	 0.181997245279452 
904	 0.182508862847097 
905	 0.182875374584332 
906	 0.182604940175373 
907	 0.182532904566245 
908	 0.182754682456376 
909	 0.182997132537528 
910	 0.182865386181481 
911	 0.183265970753334 
912	 0.183594635393543 
913	 0.183642562299236 
914	 0.183734159707548 
915	 0.183768096173439 
916	 0.183908098661398 
917	 0.184050390948405 
918	 0.183838177318711 
919	 0.183843422776416 
920	 0.184063332380204 
921	 0.184468252141935 
922	 0.18506240635714 
923	 0.184845316454002 
924	 0.184561185948522 
925	 0.184787473581876 
926	 0.185276898615797 
927	 0.18503479760552 
928	 0.184747980823914 
929	 0.184840157414518 
930	 0.184456692096733 
931	 0.184705977181022 
932	 0.185266305696204 
933	 0.185694152207705 
934	 0.186271149044344 
935	 0.18607917039887 
936	 0.18634435125108 
937	 0.187286473362507 
938	 0.186329942577939 
939	 0.186365900653618 
940	 0.186794926572787 
941	 0.18675375528649 
942	 0.186432419519771 
943	 0.18679006365394 
944	 0.186850142017997 
945	 0.186195949198809 
946	 0.186681736982923 
947	 0.187107083998343 
948	 0.186901854548923 
949	 0.186477919516763 
950	 0.187743400108748 
951	 0.18858920129394 
952	 0.188502532827558 
953	 0.187983861670611 
954	 0.188567877936427 
955	 0.188747880258689 
956	 0.188572116480318 
957	 0.188513596174053 
958	 0.18902545827578 
959	 0.188774508204657 
960	 0.188399059773458 
961	 0.188582592109683 
962	 0.189142776082452 
963	 0.190008668211555 
964	 0.190278974784724 
965	 0.189707619773309 
966	 0.189349119561627 
967	 0.189506496842278 
968	 0.189541056559647 
969	 0.18919887208603 
970	 0.189142103109371 
971	 0.189210017372026 
972	 0.189537072416876 
973	 0.190192351427818 
974	 0.191014270924285 
975	 0.190346659911368 
976	 0.190442314843015 
977	 0.191748029619285 
978	 0.191621336959821 
979	 0.190756719408382 
980	 0.190264109047731 
981	 0.19039289600324 
982	 0.190404671720938 
983	 0.190493719125581 
984	 0.191187082236825 
985	 0.192043640622713 
986	 0.191930464143745 
987	 0.191708236464993 
988	 0.191234630999358 
989	 0.191231079424821 
990	 0.192480535520694 
991	 0.191734250552188 
992	 0.191911907981789 
993	 0.192839220605153 
994	 0.192491314221911 
995	 0.191706581755399 
996	 0.192271501030758 
997	 0.192950511342076 
998	 0.192125476700356 
999	 0.193387737756091 
1000	 0.193881737765099 
1001	 0.191394346418336 
1002	 0.191426045026238 
1003	 0.191490243639693 
1004	 0.191554358786083 
1005	 0.191636344191104 
1006	 0.191718346750993 
1007	 0.191818074081181 
1008	 0.191987504509132 
1009	 0.192107933330073 
1010	 0.192196605106103 
1011	 0.192312179774764 
1012	 0.192394408591903 
1013	 0.192547898189543 
1014	 0.192732774794969 
1015	 0.192773770187652 
1016	 0.192841481070778 
1017	 0.192890195833599 
1018	 0.192946198058754 
1019	 0.192967517681702 
1020	 0.193093073605225 
1021	 0.193345573266455 
1022	 0.193444783016442 
1023	 0.193499601193177 
1024	 0.193580443260286 
1025	 0.193645145416308 
1026	 0.193653178147955 
1027	 0.193861244083994 
1028	 0.19410400255623 
1029	 0.194094235963679 
1030	 0.194045727658115 
1031	 0.194105582246488 
1032	 0.19415751794866 
1033	 0.194202060610637 
1034	 0.194358144181406 
1035	 0.194459229602189 
1036	 0.194433356930829 
1037	 0.194520588589405 
1038	 0.194690665246541 
1039	 0.1949009664838 
1040	 0.1950074239543 
1041	 0.195070306566503 
1042	 0.195115555995007 
1043	 0.195126095854096 
1044	 0.195248282724361 
1045	 0.195438690827928 
1046	 0.195533673388048 
1047	 0.195679283036107 
1048	 0.195829516387276 
1049	 0.195833381204683 
1050	 0.195855961113429 
1051	 0.195865340526255 
1052	 0.195889005995864 
1053	 0.195942444825699 
1054	 0.196070709889618 
1055	 0.196265337112926 
1056	 0.196479242298536 
1057	 0.196603536899949 
1058	 0.196713760161579 
1059	 0.196839239132178 
1060	 0.196906289900492 
1061	 0.196947277959889 
1062	 0.197077910395371 
1063	 0.197156119328558 
1064	 0.197158944818036 
1065	 0.197215557384182 
1066	 0.197323441813865 
1067	 0.19729487541124 
1068	 0.197306536489114 
1069	 0.197414110854546 
1070	 0.197457786252823 
1071	 0.197633238962536 
1072	 0.197802487606865 
1073	 0.197952777279253 
1074	 0.198155755857608 
1075	 0.198268298543133 
1076	 0.19834329545251 
1077	 0.198456086481095 
1078	 0.198549446759773 
1079	 0.198536883287067 
1080	 0.198554581552032 
1081	 0.198616801330191 
1082	 0.198682186027146 
1083	 0.198733045373403 
1084	 0.198876318519678 
1085	 0.199012514493601 
1086	 0.19909648741516 
1087	 0.199166022032694 
1088	 0.199241104446446 
1089	 0.199308602922337 
1090	 0.199382661521272 
1091	 0.19949252073215 
1092	 0.199574892227699 
1093	 0.199662567423962 
1094	 0.199771914056287 
1095	 0.199836070213755 
1096	 0.199933865470103 
1097	 0.200083578868394 
1098	 0.200214757050261 
1099	 0.200354655907498 
1100	 0.200451739939639 
1101	 0.200569354265151 
1102	 0.200589120692786 
1103	 0.200603325727987 
1104	 0.200675939893549 
1105	 0.200638817733969 
1106	 0.20063033235952 
1107	 0.200677340679781 
1108	 0.20069951760603 
1109	 0.200827563027072 
1110	 0.200887415275796 
1111	 0.200917995963867 
1112	 0.200880035742752 
1113	 0.200905408507244 
1114	 0.200912901618892 
1115	 0.20097103575801 
1116	 0.201119175391613 
1117	 0.201189301722117 
1118	 0.201203578455654 
1119	 0.20117323121752 
1120	 0.201180692519462 
1121	 0.201213282423301 
1122	 0.201305557353445 
1123	 0.201464721383137 
1124	 0.201557717528925 
1125	 0.201606663181961 
1126	 0.201705153620415 
1127	 0.201781361822332 
1128	 0.201924476901026 
1129	 0.202163689987981 
1130	 0.202300492111459 
1131	 0.20241877197809 
1132	 0.202522800770531 
1133	 0.202584537176764 
1134	 0.202611131156344 
1135	 0.202690216736649 
1136	 0.202833998897679 
1137	 0.203029480109466 
1138	 0.203186992812524 
1139	 0.203363905004838 
1140	 0.203390364395871 
1141	 0.203354401785828 
1142	 0.203464040523282 
1143	 0.203559741005262 
1144	 0.203704820720112 
1145	 0.203807108668432 
1146	 0.203879315100107 
1147	 0.203998958233465 
1148	 0.204084575572873 
1149	 0.204239198028449 
1150	 0.204532439709229 
1151	 0.204696485736608 
1152	 0.204813712085369 
1153	 0.204912063705449 
1154	 0.204942351206169 
1155	 0.204992993894679 
1156	 0.205203758960341 
1157	 0.205412580835701 
1158	 0.205547985303255 
1159	 0.2056691061668 
1160	 0.205764849200838 
1161	 0.205728554332812 
1162	 0.205834454214676 
1163	 0.206058860377666 
1164	 0.206172271367413 
1165	 0.206282618157455 
1166	 0.206367452812725 
1167	 0.206346879585581 
1168	 0.206422131314502 
1169	 0.206556136614234 
1170	 0.206683938807023 
1171	 0.206778786398352 
1172	 0.206862662424356 
1173	 0.206904720466412 
1174	 0.20692100743552 
1175	 0.206926072316505 
1176	 0.207002706510589 
1177	 0.207069780746447 
1178	 0.207122317138277 
1179	 0.207195920386915 
1180	 0.207319217260634 
1181	 0.207408528242818 
1182	 0.207505312769582 
1183	 0.207555509463287 
1184	 0.207523665631675 
1185	 0.207591332150631 
1186	 0.207702529328685 
1187	 0.207783905991835 
1188	 0.207926191773767 
1189	 0.208030655258496 
1190	 0.208090007970355 
1191	 0.208118578676878 
1192	 0.208184412896049 
1193	 0.208213569050751 
1194	 0.208238532087931 
1195	 0.208213157235964 
1196	 0.208276671021386 
1197	 0.208377284093677 
1198	 0.208469146142696 
1199	 0.208631052996066 
1200	 0.208702690559774 
1201	 0.208690780454929 
1202	 0.208760325236207 
1203	 0.208832754846962 
1204	 0.208903518926756 
1205	 0.209042175963559 
1206	 0.209131425857696 
1207	 0.20916049531092 
1208	 0.209235558818449 
1209	 0.20933170428287 
1210	 0.209399171208345 
1211	 0.2095479067857 
1212	 0.209641748079422 
1213	 0.209710368466482 
1214	 0.209768645836456 
1215	 0.209801569298619 
1216	 0.209763137031334 
1217	 0.209809391223412 
1218	 0.209864437840588 
1219	 0.209958036868199 
1220	 0.210123593427888 
1221	 0.210236977130017 
1222	 0.210376112060397 
1223	 0.210456812380548 
1224	 0.210486680616861 
1225	 0.210527586793624 
1226	 0.210510370950477 
1227	 0.210551872445175 
1228	 0.210626711461179 
1229	 0.21070378243086 
1230	 0.210782994121207 
1231	 0.210884607685643 
1232	 0.210967234318775 
1233	 0.211047014068472 
1234	 0.211092336049083 
1235	 0.211091542885914 
1236	 0.211178082131383 
1237	 0.21129454309019 
1238	 0.211372176680677 
1239	 0.211515672535215 
1240	 0.21158594394295 
1241	 0.211556613441955 
1242	 0.211585349991202 
1243	 0.211615647064684 
1244	 0.211679706816516 
1245	 0.211788322896053 
1246	 0.211857948696962 
1247	 0.211919999316451 
1248	 0.212000523106843 
1249	 0.212089341389234 
1250	 0.212147268285266 
1251	 0.212182599369628 
1252	 0.212270014608407 
1253	 0.212325553526565 
1254	 0.212331934188305 
1255	 0.212384234607254 
1256	 0.212455774570393 
1257	 0.212553502936979 
1258	 0.212692116437681 
1259	 0.212781400950975 
1260	 0.212890643417627 
1261	 0.212970536692179 
1262	 0.212998410921808 
1263	 0.213032775611359 
1264	 0.213056006939798 
1265	 0.21309803370392 
1266	 0.213081963568832 
1267	 0.213156566249071 
1268	 0.213371148539686 
1269	 0.213468543569639 
1270	 0.213553802798306 
1271	 0.213619744575 
1272	 0.213588953022667 
1273	 0.21356478138554 
1274	 0.213598524674432 
1275	 0.213659412371484 
1276	 0.213756605604823 
1277	 0.2139131174386 
1278	 0.214006365744073 
1279	 0.214120257912433 
1280	 0.214192791119022 
1281	 0.214194228733261 
1282	 0.214255375205394 
1283	 0.214354122007631 
1284	 0.214409602224311 
1285	 0.214441906058409 
1286	 0.214507362730487 
1287	 0.214564515490763 
1288	 0.214628290358232 
1289	 0.214698532914328 
1290	 0.214809775116565 
1291	 0.215000391944277 
1292	 0.215085515956582 
1293	 0.215136918222485 
1294	 0.215206236719525 
1295	 0.215198876332362 
1296	 0.215186327435673 
1297	 0.215247770002869 
1298	 0.2153973864713 
1299	 0.21547931644827 
1300	 0.215560748686549 
1301	 0.215625118401532 
1302	 0.21566501539738 
1303	 0.215726158267472 
1304	 0.215779426092124 
1305	 0.215853551691995 
1306	 0.215963239828698 
1307	 0.216032327655805 
1308	 0.216093423184786 
1309	 0.216148805690032 
1310	 0.216188173426507 
1311	 0.216211293908989 
1312	 0.216190913077097 
1313	 0.216229558856831 
1314	 0.216274429351754 
1315	 0.216339468662582 
1316	 0.21649763213823 
1317	 0.216587767199146 
1318	 0.216657524062455 
1319	 0.216694990956364 
1320	 0.21664717621282 
1321	 0.216648057099785 
1322	 0.216676821185155 
1323	 0.216697755594404 
1324	 0.216771770374321 
1325	 0.216951510013724 
1326	 0.217006074942243 
1327	 0.217017827141814 
1328	 0.217051377189568 
1329	 0.217017141910782 
1330	 0.217038950844405 
1331	 0.217076529611734 
1332	 0.217174294655963 
1333	 0.217357885876097 
1334	 0.217455499161647 
1335	 0.217623632021311 
1336	 0.217666990201004 
1337	 0.217517168911252 
1338	 0.217477961194242 
1339	 0.217482563723716 
1340	 0.217419099164089 
1341	 0.21729827082451 
1342	 0.217251048781124 
1343	 0.217191337651342 
1344	 0.217112983846878 
1345	 0.217104687093174 
1346	 0.217136704163034 
1347	 0.216967056451093 
1348	 0.216826691222581 
1349	 0.21670045901688 
1350	 0.216617189984722 
1351	 0.216460047598142 
1352	 0.2162597912961 
1353	 0.216075599748823 
1354	 0.216020540748184 
1355	 0.215662050850734 
1356	 0.214904460822311 
1357	 0.214185995440774 
1358	 0.212835168479267 
1359	 0.21172962322048 
1360	 0.214065035258598 
1361	 0.214667093376103 
1362	 0.214260566076191 
1363	 0.215190929780891 
1364	 0.209887414556218 
1365	 0.214798765200239 
1366	 0.237547854359672 
1367	 0.237711307264277 
1368	 0.228657295224499 
1369	 0.226085681229851 
1370	 0.214269490951716 
1371	 0.211803347497135 
1372	 0.220272762050033 
1373	 0.221344231510436 
1374	 0.218253433009015 
1375	 0.218326323414975 
1376	 0.21938906593071 
1377	 0.216835085821819 
1378	 0.216361167302 
1379	 0.218348125959526 
1380	 0.218245036267772 
1381	 0.216464834940603 
1382	 0.215446799599748 
1383	 0.215116449361721 
1384	 0.213842442048612 
1385	 0.211145425485115 
1386	 0.210866959472523 
1387	 0.212173989073829 
1388	 0.211778016482311 
1389	 0.210998326583957 
1390	 0.211308054782877 
1391	 0.211497766352417 
1392	 0.211493455474428 
1393	 0.212085083184082 
1394	 0.212508164933304 
1395	 0.212207382385805 
1396	 0.212481578037491 
1397	 0.21380922579699 
1398	 0.214314755466345 
1399	 0.214621535127637 
1400	 0.214403540706083 
1401	 0.212877433031595 
1402	 0.212893915374595 
1403	 0.213633341162875 
1404	 0.213962588438981 
1405	 0.215001975370612 
1406	 0.215500126068124 
1407	 0.215596405619304 
1408	 0.216044734933623 
1409	 0.215145583206327 
1410	 0.214975790939759 
1411	 0.214928517934749 
1412	 0.214552241446322 
1413	 0.214433180143887 
1414	 0.214729011524428 
1415	 0.214990012065255 
1416	 0.215182098856067 
1417	 0.215233491687725 
1418	 0.215552495675085 
1419	 0.215493632562677 
1420	 0.214896649777696 
1421	 0.214923592706499 
1422	 0.215196644539942 
1423	 0.215341154468103 
1424	 0.215627204997646 
1425	 0.215816715283673 
1426	 0.215929292593161 
1427	 0.21604143423552 
1428	 0.216197212394789 
1429	 0.21629855378912 
1430	 0.216346750625921 
1431	 0.216384166794689 
1432	 0.216364678914113 
1433	 0.216433935200933 
1434	 0.216525067168609 
1435	 0.216606019157631 
1436	 0.216794518899551 
1437	 0.216886518532202 
1438	 0.216820721148702 
1439	 0.216905963840678 
1440	 0.217180595165281 
1441	 0.217214260225592 
1442	 0.217246071561698 
1443	 0.217111846850671 
1444	 0.21691231555702 
1445	 0.216812177057642 
1446	 0.216975376942261 
1447	 0.217352329857034 
1448	 0.217639699063029 
1449	 0.218072145527806 
1450	 0.218251986416435 
1451	 0.218285912803695 
1452	 0.218463900823121 
1453	 0.21864964483662 
1454	 0.218742029495941 
1455	 0.218912520604803 
1456	 0.218939725114636 
1457	 0.218763815081583 
1458	 0.218773457573075 
1459	 0.218840290279072 
1460	 0.21890089598015 
1461	 0.219076076704234 
1462	 0.219099855280203 
1463	 0.21899817741793 
1464	 0.219015291031505 
1465	 0.219010523579049 
1466	 0.219028171146523 
1467	 0.219117372135878 
1468	 0.219223182735863 
1469	 0.219314956500721 
1470	 0.219442602826109 
1471	 0.219713210060082 
1472	 0.21983181197388 
1473	 0.219766159523268 
1474	 0.219869678910895 
1475	 0.220041663574361 
1476	 0.220134597305024 
1477	 0.220277103722576 
1478	 0.220408548921934 
1479	 0.22042143125434 
1480	 0.22051079759838 
1481	 0.220689841817686 
1482	 0.220832532490243 
1483	 0.220909386163781 
1484	 0.221083808766845 
1485	 0.221338794850707 
1486	 0.221540448648662 
1487	 0.221755184256917 
1488	 0.222007166931405 
1489	 0.222095410712181 
1490	 0.22216745462048 
1491	 0.222273533477924 
1492	 0.222315448991244 
1493	 0.222428084810558 
1494	 0.222524967376209 
1495	 0.222626046168454 
1496	 0.222711762550717 
1497	 0.222853203390261 
1498	 0.223041743310606 
1499	 0.223163343080709 
1500	 0.223293247435629 
1501	 0.223399902700177 
1502	 0.223444002075094 
1503	 0.223542021934899 
1504	 0.223674678506133 
1505	 0.223782502324237 
1506	 0.223886257101758 
1507	 0.223987945181162 
1508	 0.22410369080268 
1509	 0.224173187251915 
1510	 0.224209530422649 
1511	 0.224272447542222 
1512	 0.224319363856176 
1513	 0.224370852503269 
1514	 0.224426354988994 
1515	 0.224509757914443 
1516	 0.224582671468808 
1517	 0.224688947780202 
1518	 0.224871493120185 
1519	 0.224981106924994 
1520	 0.225063273132881 
1521	 0.225160739661572 
1522	 0.225223841567863 
1523	 0.225316725281608 
1524	 0.225424917519731 
1525	 0.225546689015047 
1526	 0.225731350746952 
1527	 0.22581470189497 
1528	 0.225855717867007 
1529	 0.22590464335378 
1530	 0.225853036492013 
1531	 0.225887608887359 
1532	 0.225996136236109 
1533	 0.226080684161981 
1534	 0.226182017463491 
1535	 0.226268414123686 
1536	 0.226363189005021 
1537	 0.22642782133767 
1538	 0.226462851483879 
1539	 0.226512450707275 
1540	 0.226536780274279 
1541	 0.226584356167818 
1542	 0.22664898701213 
1543	 0.22672041779271 
1544	 0.226790408863159 
1545	 0.226889244019123 
1546	 0.227039669986063 
1547	 0.227146834540072 
1548	 0.227290067559677 
1549	 0.227359737632153 
1550	 0.227309664269606 
1551	 0.22733816292802 
1552	 0.227325613633659 
1553	 0.227391656243869 
1554	 0.22761892714961 
1555	 0.227741804285098 
1556	 0.227825325492708 
1557	 0.227931941335954 
1558	 0.228011268788607 
1559	 0.228062453838267 
1560	 0.228121415886999 
1561	 0.2281830555885 
1562	 0.228205095801123 
1563	 0.228223198388808 
1564	 0.228223098099161 
1565	 0.228263181275691 
1566	 0.228407584043727 
1567	 0.228522838157186 
1568	 0.228646563479176 
1569	 0.228870261963406 
1570	 0.228967201368356 
1571	 0.228982721683884 
1572	 0.228989388487162 
1573	 0.228948747321609 
1574	 0.228987344191534 
1575	 0.22900685660841 
1576	 0.229058352087587 
1577	 0.22918400861011 
1578	 0.229265547492924 
1579	 0.229303518779286 
1580	 0.229400670978461 
1581	 0.22955653170398 
1582	 0.22963257930788 
1583	 0.229684420397925 
1584	 0.229753990510955 
1585	 0.229788475245646 
1586	 0.22985754432708 
1587	 0.22995183071502 
1588	 0.230057477287048 
1589	 0.230180854711765 
1590	 0.230266960929416 
1591	 0.230370201488841 
1592	 0.230436256262716 
1593	 0.230455838736654 
1594	 0.230486587780008 
1595	 0.230505873279872 
1596	 0.23055325870584 
1597	 0.230583499653055 
1598	 0.230661363753929 
1599	 0.230788765984436 
1600	 0.230895914283448 
1601	 0.231028699265983 
1602	 0.231117532775641 
1603	 0.231202381898041 
1604	 0.231243107123882 
1605	 0.231225380655089 
1606	 0.231259019559549 
1607	 0.23126277175732 
1608	 0.231344852864831 
1609	 0.231499566775138 
1610	 0.231596166142284 
1611	 0.231719733179394 
1612	 0.231799196943089 
1613	 0.231817016099457 
1614	 0.231894141130873 
1615	 0.231976575424374 
1616	 0.232080009720856 
1617	 0.232237817814368 
1618	 0.232321816015203 
1619	 0.232384287819795 
1620	 0.232449429936417 
1621	 0.232478055105727 
1622	 0.232514964294202 
1623	 0.232575751473716 
1624	 0.232594938416771 
1625	 0.232535672685611 
1626	 0.232616612113739 
1627	 0.232778392959669 
1628	 0.232839856894291 
1629	 0.232918196028054 
1630	 0.233020734386101 
1631	 0.233075316702152 
1632	 0.233133503931426 
1633	 0.233282587434603 
1634	 0.233322813828082 
1635	 0.233213129536124 
1636	 0.233253234196523 
1637	 0.233358286167333 
1638	 0.233429389731974 
1639	 0.233495155090115 
1640	 0.233675101132616 
1641	 0.233938040302607 
1642	 0.234060321381093 
1643	 0.23423042402735 
1644	 0.234333840917611 
1645	 0.234288092079951 
1646	 0.234306152240982 
1647	 0.234364724825599 
1648	 0.23441814802848 
1649	 0.234436128234937 
1650	 0.234449037304368 
1651	 0.23449133963264 
1652	 0.234548012771304 
1653	 0.234542893521117 
1654	 0.234632743893827 
1655	 0.234854554241746 
1656	 0.23491397207999 
1657	 0.23490218411092 
1658	 0.234996425620392 
1659	 0.235037342443462 
1660	 0.235160308237346 
1661	 0.235229103247269 
1662	 0.235229937681571 
1663	 0.23527717515325 
1664	 0.235326035447253 
1665	 0.235423657936644 
1666	 0.235496378974932 
1667	 0.235426390050357 
1668	 0.235409879525348 
1669	 0.235522268669327 
1670	 0.235620273876362 
1671	 0.235728259608513 
1672	 0.235812228387857 
1673	 0.235734915808858 
1674	 0.235623201479391 
1675	 0.235675586814046 
1676	 0.235763036406724 
1677	 0.235863353793505 
1678	 0.236049525277177 
1679	 0.236116951513991 
1680	 0.23617088446432 
1681	 0.236188463938211 
1682	 0.236005713880163 
1683	 0.235919928085001 
1684	 0.235930898791241 
1685	 0.235925942089572 
1686	 0.235975976489518 
1687	 0.236015352084198 
1688	 0.235966318264074 
1689	 0.235847852115371 
1690	 0.235822080740601 
1691	 0.235818012937363 
1692	 0.235786002359397 
1693	 0.235802364214462 
1694	 0.235904020080528 
1695	 0.235965464291262 
1696	 0.236013058156447 
1697	 0.236082710862095 
1698	 0.236215274270949 
1699	 0.236242511667087 
1700	 0.236194827818239 
1701	 0.236173415376816 
1702	 0.236067309524916 
1703	 0.23602128177591 
1704	 0.236043694525211 
1705	 0.236101053505409 
1706	 0.236150745967441 
1707	 0.236227573288683 
1708	 0.236439833638121 
1709	 0.236436461155515 
1710	 0.236281280755106 
1711	 0.236270290236419 
1712	 0.236216991790667 
1713	 0.236223913372331 
1714	 0.236400235087024 
1715	 0.236441051384113 
1716	 0.236292443735849 
1717	 0.236319484629779 
1718	 0.236505843990638 
1719	 0.236553446765853 
1720	 0.236631878256419 
1721	 0.236654481574088 
1722	 0.236486024373251 
1723	 0.23646613205349 
1724	 0.236557761594598 
1725	 0.236553784354546 
1726	 0.236519762554076 
1727	 0.23651856326002 
1728	 0.236481563532708 
1729	 0.236562246947179 
1730	 0.236767629753956 
1731	 0.236871078131712 
1732	 0.236977867028532 
1733	 0.236882005583179 
1734	 0.23676013921295 
1735	 0.236852298555752 
1736	 0.236723034851386 
1737	 0.236778438290364 
1738	 0.237074370459818 
1739	 0.237024450659113 
1740	 0.236978756929627 
1741	 0.237002819407263 
1742	 0.236919432368714 
1743	 0.236831708351251 
1744	 0.236956581599891 
1745	 0.237115056048217 
1746	 0.237042012163284 
1747	 0.237115366024791 
1748	 0.237110445123535 
1749	 0.236989721610441 
1750	 0.237009198143793 
1751	 0.23695149765466 
1752	 0.237035684453513 
1753	 0.237240855838929 
1754	 0.237262412708976 
1755	 0.237098087801257 
1756	 0.23698524891262 
1757	 0.236775931892017 
1758	 0.236768266089424 
1759	 0.23718146113509 
1760	 0.237335675888097 
1761	 0.237358542940366 
1762	 0.237438190917265 
1763	 0.23753904064244 
1764	 0.237569944264967 
1765	 0.237591042227617 
1766	 0.237556973092802 
1767	 0.237307582776859 
1768	 0.237328605434902 
1769	 0.237555657284682 
1770	 0.237623215305549 
1771	 0.237735314196125 
1772	 0.237755978089454 
1773	 0.237569976183378 
1774	 0.237601306252551 
1775	 0.237836567980915 
1776	 0.238003723935359 
1777	 0.238044049686986 
1778	 0.237967965427581 
1779	 0.237922023460399 
1780	 0.23797265701113 
1781	 0.237996560270128 
1782	 0.238306188132045 
1783	 0.238604442057931 
1784	 0.23863650246929 
1785	 0.238834815479084 
1786	 0.238849781146715 
1787	 0.238620463117974 
1788	 0.238636276805188 
1789	 0.238459554279832 
1790	 0.237861835757275 
1791	 0.237674145107028 
1792	 0.237755908222887 
1793	 0.237707781869362 
1794	 0.238108824044237 
1795	 0.238141081892778 
1796	 0.237576576925528 
1797	 0.237511158000533 
1798	 0.237658760105393 
1799	 0.237705230612457 
1800	 0.237876197829542 
1801	 0.24033421314883 
1802	 0.240485901467318 
1803	 0.240555318885672 
1804	 0.239929102167993 
1805	 0.240192713550594 
1806	 0.241326731696001 
1807	 0.241823936921494 
1808	 0.243214654923552 
1809	 0.243209910473283 
1810	 0.243122532505928 
1811	 0.241432893421032 
1812	 0.24147705746976 
1813	 0.242138673924625 
1814	 0.242720500239152 
1815	 0.245395679622827 
1816	 0.245862493705215 
1817	 0.243831375259711 
1818	 0.243037160851839 
1819	 0.242098203174326 
1820	 0.240127152635118 
1821	 0.238259422711196 
1822	 0.235665682063412 
1823	 0.235924123808978 
1824	 0.23756924976134 
1825	 0.239249988319557 
1826	 0.248230472687384 
1827	 0.253561439851226 
1828	 0.257518197978408 
1829	 0.257608859756959 
1830	 0.25733427214045 
1831	 0.247542917370052 
1832	 0.247591252613279 
1833	 0.253105321125796 
1834	 0.256420858394991 
1835	 0.279997397149244 
1836	 0.293848728985105 
1837	 0.255101430664273 
1838	 0.262164930480552 
1839	 0.291648277684222 
1840	 0.355520172948902 
1841	 0.379535262832383 
1842	 0.433216911109111 
1843	 0.434665768066352 
1844	 0.357356914927533 
1845	 0.344155403866881 
1846	 0.350354870403908 
1847	 0.348803328490198 
1848	 0.353848605676226 
1849	 0.393635709259577 
1850	 0.3910793662806 
1851	 0.366284266450735 
1852	 0.345044875850204 
1853	 0.312745871828887 
1854	 0.286743414136429 
1855	 0.245008395807352 
1856	 0.229800530875173 
1857	 0.231223986623492 
1858	 0.22261755167457 
1859	 0.239350372612779 
1860	 0.29114897787147 
1861	 0.294048951313511 
1862	 0.28607613755266 
1863	 0.287071110122877 
1864	 0.264558513700473 
1865	 0.254920888285519 
1866	 0.268758466699712 
1867	 0.261335486634606 
1868	 0.247708975879604 
1869	 0.257773548021579 
1870	 0.257727688659348 
1871	 0.26949101642911 
1872	 0.26625600712899 
1873	 0.255008229576541 
1874	 0.24513722023878 
1875	 0.230724393928516 
1876	 0.227715007426477 
1877	 0.226938576538734 
1878	 0.226779512605759 
1879	 0.23501460112284 
1880	 0.236286121732267 
1881	 0.239190139302393 
1882	 0.243677499680364 
1883	 0.244993345865294 
1884	 0.246595653636348 
1885	 0.246177319663946 
1886	 0.244461824322197 
1887	 0.240488790638473 
1888	 0.237450399727205 
1889	 0.23433341232129 
1890	 0.233927710034917 
1891	 0.236147400591551 
1892	 0.235523510447848 
1893	 0.2340982734475 
1894	 0.236698368923367 
1895	 0.241819037646789 
1896	 0.245295626652169 
1897	 0.259150082997425 
1898	 0.258520020152472 
1899	 0.251894271794604 
1900	 0.243367850424054 
1901	 0.236444651010116 
1902	 0.228055464547483 
1903	 0.223129919291879 
1904	 0.217280898942053 
1905	 0.21795543871476 
1906	 0.225408503668776 
1907	 0.232170878326209 
1908	 0.238607278043957 
1909	 0.249968181834832 
1910	 0.258190741306161 
1911	 0.254017563868211 
1912	 0.244624828286133 
1913	 0.230334085020054 
1914	 0.223681003104228 
1915	 0.210392732048019 
1916	 0.209939444536496 
1917	 0.216060475775139 
1918	 0.221115671141243 
1919	 0.222055238439383 
1920	 0.224872016651009 
1921	 0.225851824925524 
1922	 0.224721009118632 
1923	 0.22390088206156 
1924	 0.223298542298799 
1925	 0.223008173447554 
1926	 0.221679692674423 
1927	 0.221419809842062 
1928	 0.221497304334764 
1929	 0.224197753551357 
1930	 0.224488543881478 
1931	 0.222746291214458 
1932	 0.224572960214982 
1933	 0.22452458441888 
1934	 0.224535069539681 
1935	 0.226599287045417 
1936	 0.225801782188498 
1937	 0.221544767648425 
1938	 0.221123859399552 
1939	 0.222026619054279 
1940	 0.22118604447998 
1941	 0.221825383786518 
1942	 0.222640119768609 
1943	 0.221589345759217 
1944	 0.221933544071927 
1945	 0.222981562519746 
1946	 0.223154476670017 
1947	 0.223676206130395 
1948	 0.224282961599871 
1949	 0.224775452766597 
1950	 0.224850460888029 
1951	 0.22622389215191 
1952	 0.227415377645391 
1953	 0.227884557426661 
1954	 0.228115969651815 
1955	 0.227573587955487 
1956	 0.227092939087718 
1957	 0.227354307923902 
1958	 0.227693607032959 
1959	 0.228535773983082 
1960	 0.229060969884079 
1961	 0.229668843415957 
1962	 0.22984455048468 
1963	 0.230074206726208 
1964	 0.230300655531338 
1965	 0.230561308044271 
1966	 0.230801114630653 
1967	 0.231021972049245 
1968	 0.231463452444359 
1969	 0.231899290156392 
1970	 0.232578010166376 
1971	 0.232908194976902 
1972	 0.233113819095516 
1973	 0.233321387720815 
1974	 0.23349226610638 
1975	 0.233762744925418 
1976	 0.234255651185506 
1977	 0.234531100039918 
1978	 0.234830711849949 
1979	 0.235032653508749 
1980	 0.235221368947072 
1981	 0.235421377945124 
1982	 0.235705858107172 
1983	 0.236011180760456 
1984	 0.236553178801461 
1985	 0.236839688106048 
1986	 0.237091776709912 
1987	 0.237413180245394 
1988	 0.237445035365061 
1989	 0.237592797563296 
1990	 0.237852356689163 
1991	 0.237911963112386 
1992	 0.237948804662309 
1993	 0.238078203936876 
1994	 0.238227865082875 
1995	 0.238483111907003 
1996	 0.238950232442913 
1997	 0.23957335675617 
1998	 0.240051480162236 
1999	 0.240274185583386 
2000	 0.240536882590349 
2001	 0.240771471097149 
2002	 0.240360241358926 
2003	 0.240850510320645 
2004	 0.242293692360125 
2005	 0.242747422908851 
2006	 0.243256455917223 
2007	 0.244099851108105 
2008	 0.244445237914038 
2009	 0.243948604276438 
2010	 0.244260259935674 
2011	 0.244761989987965 
2012	 0.244961568707863 
2013	 0.244907719482871 
2014	 0.244683241417965 
2015	 0.244419277398892 
2016	 0.244416942413492 
2017	 0.245008510620363 
2018	 0.245550593749937 
2019	 0.245780582983554 
2020	 0.245885100781491 
2021	 0.246272896008133 
2022	 0.246279304562434 
2023	 0.245802142192314 
2024	 0.245912653075536 
2025	 0.245707548509159 
2026	 0.245407273067735 
2027	 0.245786211432016 
2028	 0.246013367969709 
2029	 0.246220205637656 
2030	 0.246340041773511 
2031	 0.246196367444801 
2032	 0.246104029842919 
2033	 0.245874743030628 
2034	 0.245870396739643 
2035	 0.245933191000112 
2036	 0.245824482691818 
2037	 0.24615143425272 
2038	 0.246094756394193 
2039	 0.245844643936695 
2040	 0.246161121441642 
2041	 0.246131319927513 
2042	 0.24623622478199 
2043	 0.24643319279934 
2044	 0.246373175492697 
2045	 0.24626765328413 
2046	 0.246085623707261 
2047	 0.245624635898805 
2048	 0.245320176332333 
2049	 0.245110725160963 
2050	 0.245213819204691 
2051	 0.245612570654425 
2052	 0.245891123868839 
2053	 0.246161401745979 
2054	 0.24603570111836 
2055	 0.245643427507921 
2056	 0.245474454204609 
2057	 0.245536324601072 
2058	 0.245464973656369 
2059	 0.245526804801569 
2060	 0.245855623212621 
2061	 0.246005290482757 
2062	 0.245792859051671 
2063	 0.245917678299184 
2064	 0.245974604306337 
2065	 0.246121271399247 
2066	 0.246120628635247 
2067	 0.246028843027747 
2068	 0.246034833458104 
2069	 0.245766326144822 
2070	 0.245901153206335 
2071	 0.2462828177965 
2072	 0.246546322474287 
2073	 0.246797245159595 
2074	 0.247157702546041 
2075	 0.24738913672351 
2076	 0.247580863172029 
2077	 0.247613367062495 
2078	 0.247552950349989 
2079	 0.247685500304615 
2080	 0.247701856772113 
2081	 0.247994871904393 
2082	 0.248380521203205 
2083	 0.248203983816788 
2084	 0.248006144392577 
2085	 0.247905019809475 
2086	 0.247975818630972 
2087	 0.248068255714146 
2088	 0.248458530313137 
2089	 0.248720476961743 
2090	 0.24869751304381 
2091	 0.248375961389558 
2092	 0.248272378650895 
2093	 0.248403549176525 
2094	 0.248546841221087 
2095	 0.248792148562442 
2096	 0.248788734154036 
2097	 0.24879432207335 
2098	 0.249095253596628 
2099	 0.249325018490923 
2100	 0.249412373615991 
2101	 0.249553217888397 
2102	 0.249641972156892 
2103	 0.24952426691588 
2104	 0.249412633746335 
2105	 0.249708030440116 
2106	 0.249964800972184 
2107	 0.250036550348905 
2108	 0.249996736740453 
2109	 0.249799826779201 
2110	 0.249853014326114 
2111	 0.250273316299614 
2112	 0.250673856297396 
2113	 0.251053560977611 
2114	 0.251260300778432 
2115	 0.250938976887335 
2116	 0.250900017246188 
2117	 0.250991880811829 
2118	 0.251153437897293 
2119	 0.251291743748077 
2120	 0.251608040073996 
2121	 0.251873451508457 
2122	 0.251909837477289 
2123	 0.252205281193428 
2124	 0.252379677388162 
2125	 0.252411908084464 
2126	 0.252642182654932 
2127	 0.252567613608262 
2128	 0.252701264227201 
2129	 0.253014029288352 
2130	 0.252996214809675 
2131	 0.253170108410372 
2132	 0.253279889132651 
2133	 0.253322905014242 
2134	 0.253445072521073 
2135	 0.253680496258898 
2136	 0.253801965420121 
2137	 0.253878747181321 
2138	 0.253922347962953 
2139	 0.253599240827523 
2140	 0.253339730297543 
2141	 0.253366581818666 
2142	 0.252989391461097 
2143	 0.252662632798152 
2144	 0.252874751239584 
2145	 0.252930401744176 
2146	 0.252879064007821 
2147	 0.252993810355291 
2148	 0.252892957879445 
2149	 0.252709772707396 
2150	 0.252704198192571 
2151	 0.252482894290497 
2152	 0.252080247181623 
2153	 0.251833552500903 
2154	 0.251573764568043 
2155	 0.251108127876029 
2156	 0.250839766793244 
2157	 0.25094688664796 
2158	 0.250692392706423 
2159	 0.250509499576665 
2160	 0.250716749158935 
2161	 0.25078535540671 
2162	 0.250844098931975 
2163	 0.250933288727062 
2164	 0.250785124606907 
2165	 0.250175748826457 
2166	 0.249752068720852 
2167	 0.249501928903405 
2168	 0.249135223886568 
2169	 0.248936390041794 
2170	 0.248717955785257 
2171	 0.248394404228956 
2172	 0.247885168030029 
2173	 0.24802117112007 
2174	 0.247817093739671 
2175	 0.247642697625113 
2176	 0.247732282336529 
2177	 0.24732708455515 
2178	 0.24693831962452 
2179	 0.246547093753731 
2180	 0.246150356963902 
2181	 0.245886498629861 
2182	 0.245826467830438 
2183	 0.246097815058436 
2184	 0.246081793733945 
2185	 0.246218527037432 
2186	 0.246308688293727 
2187	 0.246389421926718 
2188	 0.246478929182827 
2189	 0.246656511541804 
2190	 0.246858843383512 
2191	 0.247182046844498 
2192	 0.247120501049361 
2193	 0.246810532974532 
2194	 0.2465424636487 
2195	 0.245991308903335 
2196	 0.245636720913235 
2197	 0.245216318037489 
2198	 0.244895927494834 
2199	 0.244531742941936 
2200	 0.244133045563255 
2201	 0.244293961634375 
2202	 0.244203815067196 
2203	 0.244030878605373 
2204	 0.244075005208996 
2205	 0.244280381358624 
2206	 0.24437454539879 
2207	 0.244299772902458 
2208	 0.244397295007485 
2209	 0.244411401113101 
2210	 0.244452103546773 
2211	 0.24464787553764 
2212	 0.244848641921278 
2213	 0.244609044453367 
2214	 0.244630552990943 
2215	 0.24469506862861 
2216	 0.244808764690366 
2217	 0.245259836991502 
2218	 0.245219425745491 
2219	 0.244918582380409 
2220	 0.244784675048174 
2221	 0.244722256060265 
2222	 0.245066426962632 
2223	 0.245174641773079 
2224	 0.245199753610157 
2225	 0.245180645347374 
2226	 0.24487361865384 
2227	 0.24474313452157 
2228	 0.244627394032079 
2229	 0.245062630596577 
2230	 0.245189445868388 
2231	 0.245060455878491 
2232	 0.244585580568025 
2233	 0.244843145352455 
2234	 0.245136129304709 
2235	 0.245555676574569 
2236	 0.246126562095091 
2237	 0.246480955087421 
2238	 0.245767842333574 
2239	 0.244961846598458 
2240	 0.244740186225462 
2241	 0.244711410966146 
2242	 0.245414679228899 
2243	 0.246153974909196 
2244	 0.246677476839207 
2245	 0.247107637802609 
2246	 0.246838595235297 
2247	 0.246168382487821 
2248	 0.245575252593861 
2249	 0.245199760735419 
2250	 0.244791085777411 
2251	 0.24433516094224 
2252	 0.244544136349237 
2253	 0.244999592329099 
2254	 0.245190840361622 
2255	 0.245345144689166 
2256	 0.245392508018361 
2257	 0.245180411054386 
2258	 0.244949262862189 
2259	 0.244806950789442 
2260	 0.244641350805113 
2261	 0.244604272506212 
2262	 0.243976156573039 
2263	 0.243348632141617 
2264	 0.243521794662592 
2265	 0.244227797370304 
2266	 0.244716124700255 
2267	 0.244770794548836 
2268	 0.244623755348315 
2269	 0.243992407465209 
2270	 0.24331962684454 
2271	 0.24286906279544 
2272	 0.242651188253565 
2273	 0.242070910348248 
2274	 0.241461214272659 
2275	 0.241602750594115 
2276	 0.241990419486811 
2277	 0.242572885765737 
2278	 0.24317876338794 
2279	 0.243432092437463 
2280	 0.243550210613618 
2281	 0.243917682631772 
2282	 0.244142486744762 
2283	 0.244284124395074 
2284	 0.244136287105988 
2285	 0.24346127859845 
2286	 0.243391771217637 
2287	 0.243621807538566 
2288	 0.243982316624231 
2289	 0.244180808034539 
2290	 0.24399805775911 
2291	 0.242776035243798 
2292	 0.242081719935955 
2293	 0.242143266953832 
2294	 0.242456127393736 
2295	 0.243163777631757 
2296	 0.24325352538704 
2297	 0.242518415484564 
2298	 0.242589229657236 
2299	 0.242918007689634 
2300	 0.242765214320117 
2301	 0.243425939861122 
2302	 0.243494099627036 
2303	 0.243076111561463 
2304	 0.242813223774324 
2305	 0.242533138538107 
2306	 0.242815340580196 
2307	 0.242990351494495 
2308	 0.243978185209532 
2309	 0.24435558992459 
2310	 0.243347906216204 
2311	 0.243127352982512 
2312	 0.242548052046854 
2313	 0.242142691353197 
2314	 0.243422867273069 
2315	 0.24406144279981 
2316	 0.244457001093531 
2317	 0.245871567693449 
2318	 0.245820280070755 
2319	 0.245704358299561 
2320	 0.246526429829634 
2321	 0.246434465750559 
2322	 0.245195153886682 
2323	 0.245321931952899 
2324	 0.245808908307603 
2325	 0.245710734897498 
2326	 0.246835799737633 
2327	 0.247761673429587 
2328	 0.248032430219247 
2329	 0.247893931425724 
2330	 0.247646171263971 
2331	 0.247387181521299 
2332	 0.247837189775192 
2333	 0.248112521822361 
2334	 0.247902882434919 
2335	 0.247616247395395 
2336	 0.245666803504806 
2337	 0.244755780941827 
2338	 0.245378336802419 
2339	 0.245572591930276 
2340	 0.246491824669591 
2341	 0.247183959074377 
2342	 0.246420251867599 
2343	 0.246118742142725 
2344	 0.246830042586841 
2345	 0.246892364867861 
2346	 0.247488806157479 
2347	 0.248002000971473 
2348	 0.246538771406273 
2349	 0.246591232549482 
2350	 0.246998512285447 
2351	 0.246674325511279 
2352	 0.24685537703472 
2353	 0.246235569476311 
2354	 0.246983231101703 
2355	 0.248299859076809 
2356	 0.249617513326691 
2357	 0.249768113625546 
2358	 0.248124498637877 
2359	 0.247819729861181 
2360	 0.247831354517421 
2361	 0.248425928218022 
2362	 0.24888410512336 
2363	 0.247303206306065 
2364	 0.247226739217462 
2365	 0.248041149078809 
2366	 0.248248134917405 
2367	 0.25041980791916 
2368	 0.250979966693669 
2369	 0.250587040264261 
2370	 0.251229729881643 
2371	 0.250664022155802 
2372	 0.25120075344529 
2373	 0.252544870412628 
2374	 0.252511480048419 
2375	 0.252613286310448 
2376	 0.253028375320371 
2377	 0.252296325425541 
2378	 0.252389923119413 
2379	 0.254123041517025 
2380	 0.254447041767025 
2381	 0.254002510203172 
2382	 0.252983148853007 
2383	 0.250423752101203 
2384	 0.250037740018739 
2385	 0.250729481463676 
2386	 0.249692085572662 
2387	 0.248833486975545 
2388	 0.248535720827365 
2389	 0.246521376463136 
2390	 0.24593182169269 
2391	 0.248232703614464 
2392	 0.248477220776388 
2393	 0.24698822781195 
2394	 0.246904262691036 
2395	 0.247767991210703 
2396	 0.247384271111351 
2397	 0.246467994726444 
2398	 0.245740331935727 
2399	 0.244275482334311 
2400	 0.243346922828152 
2401	 0.241912547760229 
2402	 0.243430787633493 
2403	 0.245046100195351 
2404	 0.244472334724223 
2405	 0.246719890887277 
2406	 0.245825390748108 
2407	 0.243310057202567 
2408	 0.244097573711026 
2409	 0.242231138819532 
2410	 0.241283252803219 
2411	 0.24235817636391 
2412	 0.241538237067486 
2413	 0.241160103662819 
2414	 0.240858025911091 
2415	 0.240000810577186 
2416	 0.241341243525094 
2417	 0.242763268039397 
2418	 0.242537499096587 
2419	 0.242935227863359 
2420	 0.241064964664301 
2421	 0.239159161037842 
2422	 0.241531058602483 
2423	 0.243172111908666 
2424	 0.243413547959564 
2425	 0.242657222325213 
2426	 0.242753955084744 
2427	 0.243457114260831 
2428	 0.241766277150559 
2429	 0.245003192079683 
2430	 0.246401360330477 
2431	 0.243394336520006 
2432	 0.24617793628613 
2433	 0.245426395495479 
2434	 0.245767468041291 
2435	 0.250782728145797 
2436	 0.249822580491025 
2437	 0.242411917021423 
2438	 0.239927845217302 
2439	 0.236880980246931 
2440	 0.235950079007863 
2441	 0.242395419871621 
2442	 0.244055703574154 
2443	 0.240921394470328 
2444	 0.239832966050172 
2445	 0.23749897742301 
2446	 0.236071327964733 
2447	 0.238890744445196 
2448	 0.238659564204974 
2449	 0.236869418655329 
2450	 0.23536854372794 
2451	 0.231327322175967 
2452	 0.227781859363852 
2453	 0.221988848049419 
2454	 0.221244054542401 
2455	 0.224027436287967 
2456	 0.226943057849519 
2457	 0.23515300359366 
2458	 0.238006480968287 
2459	 0.239331746470401 
2460	 0.23781166839841 
2461	 0.230680121071563 
2462	 0.228005635606024 
2463	 0.222948354109274 
2464	 0.22024641196638 
2465	 0.223718870988919 
2466	 0.224191235115818 
2467	 0.223370745196664 
2468	 0.225668568505711 
2469	 0.232047053945823 
2470	 0.23201946882993 
2471	 0.226446656410414 
2472	 0.227925411978073 
2473	 0.229170653063948 
2474	 0.227505730762463 
2475	 0.232002982123514 
2476	 0.230916209785813 
2477	 0.218476479716154 
2478	 0.219588315643182 
2479	 0.227778195290636 
2480	 0.242449920249689 
2481	 0.274941846181099 
2482	 0.287435771830892 
2483	 0.300556392100244 
2484	 0.297494920635622 
2485	 0.261645955176069 
2486	 0.254158838995238 
2487	 0.241618067613029 
2488	 0.255575218054675 
2489	 0.274314744875764 
2490	 0.298353558201043 
2491	 0.317364231695537 
2492	 0.322817680369722 
2493	 0.312101008713289 
2494	 0.274537900834593 
2495	 0.266636804651806 
2496	 0.281442470168393 
2497	 0.290861230004167 
2498	 0.299782289493761 
2499	 0.286686684060367 
2500	 0.302044693000141 
