Wavelength	ref00024.asd
350	 6.08132159480827E-02 
351	 6.11624738229947E-02 
352	 0.060734193283351 
353	 0.06074036591922 
354	 0.06062236115297 
355	 6.03357686513904E-02 
356	 5.99992153524877E-02 
357	 5.98579069594629E-02 
358	 6.00083293567224E-02 
359	 5.99528103400903E-02 
360	 0.059434654701411 
361	 6.00243740180839E-02 
362	 6.01619488651268E-02 
363	 5.97545524000672E-02 
364	 5.96988833624362E-02 
365	 5.97470674308877E-02 
366	 5.96681989745012E-02 
367	 5.95852334650056E-02 
368	 6.01068665089582E-02 
369	 6.05267428324661E-02 
370	 6.07342824982411E-02 
371	 6.07791458658202E-02 
372	 6.06295247541624E-02 
373	 6.09250871813803E-02 
374	 6.14140496957246E-02 
375	 6.15232349009503E-02 
376	 6.21190669907364E-02 
377	 6.25599376011857E-02 
378	 0.062755638831702 
379	 6.34040361498384E-02 
380	 6.34920841099299E-02 
381	 6.37699476172686E-02 
382	 6.47851195123619E-02 
383	 6.55442331453094E-02 
384	 0.066242619634025 
385	 6.69192482849405E-02 
386	 6.75772808873162E-02 
387	 6.83114779369299E-02 
388	 6.92152208224472E-02 
389	 7.01411684702305E-02 
390	 7.07285034377824E-02 
391	 7.14754978079449E-02 
392	 7.22796142454736E-02 
393	 7.30309283820544E-02 
394	 7.38469701112641E-02 
395	 7.47456895008606E-02 
396	 7.57214250715715E-02 
397	 7.67071589492732E-02 
398	 7.74566730139626E-02 
399	 7.78716967398217E-02 
400	 7.82670370747484E-02 
401	 7.91863540755749E-02 
402	 7.96551518837456E-02 
403	 7.99601428037132E-02 
404	 0.080376971263039 
405	 8.07641123665987E-02 
406	 8.12122215607402E-02 
407	 8.16013421189915E-02 
408	 8.18182223830908E-02 
409	 8.21757126429063E-02 
410	 8.24247748523289E-02 
411	 8.25590830165648E-02 
412	 8.27873142295087E-02 
413	 8.28713774919127E-02 
414	 8.29602363459914E-02 
415	 8.30915635165761E-02 
416	 8.29173579900763E-02 
417	 8.29931195171528E-02 
418	 8.31029157452051E-02 
419	 8.29005253921534E-02 
420	 8.28227038629424E-02 
421	 8.28061826554264E-02 
422	 8.26951032374729E-02 
423	 8.23152984882046E-02 
424	 8.22124940818038E-02 
425	 0.082198401246507 
426	 8.20437344911749E-02 
427	 8.16934444379875E-02 
428	 8.15030730352606E-02 
429	 8.12390813106121E-02 
430	 8.06397667623901E-02 
431	 8.04466838986247E-02 
432	 8.02567084289988E-02 
433	 7.99423873230216E-02 
434	 7.96666057188401E-02 
435	 7.94092610507396E-02 
436	 0.07915198963874 
437	 7.88852327330697E-02 
438	 7.86167430214024E-02 
439	 7.83922208231626E-02 
440	 7.81557449128888E-02 
441	 7.78605535990997E-02 
442	 7.77268459930669E-02 
443	 7.74991385582524E-02 
444	 0.077173114821349 
445	 7.69905709555343E-02 
446	 7.67372178421222E-02 
447	 0.0764882918797 
448	 7.63051003007779E-02 
449	 7.61008712836835E-02 
450	 0.075800359983512 
451	 7.54952683004807E-02 
452	 7.53059267295173E-02 
453	 7.50190577100599E-02 
454	 7.47069468325415E-02 
455	 7.44173080409859E-02 
456	 7.41413724057733E-02 
457	 7.38793207896144E-02 
458	 7.35436838809559E-02 
459	 7.31040212525916E-02 
460	 7.27430668960333E-02 
461	 7.24201795161529E-02 
462	 7.20917940678121E-02 
463	 7.17289841435557E-02 
464	 7.14539603280636E-02 
465	 7.12046364370879E-02 
466	 7.09296086584081E-02 
467	 7.06233574673115E-02 
468	 7.03840879534724E-02 
469	 7.01253545910554E-02 
470	 6.97755579918927E-02 
471	 6.95273393338069E-02 
472	 6.92876223255695E-02 
473	 6.90506297698095E-02 
474	 6.88668911342686E-02 
475	 6.86504090709953E-02 
476	 6.84226451759527E-02 
477	 6.82216581598954E-02 
478	 6.80875139066361E-02 
479	 6.80044358419179E-02 
480	 6.78995814806153E-02 
481	 0.067717312671679 
482	 6.75841700426252E-02 
483	 6.75122394806285E-02 
484	 0.067481900821913 
485	 6.74446684584623E-02 
486	 6.73446295961787E-02 
487	 6.72635152157138E-02 
488	 6.72477703501878E-02 
489	 6.71753829264035E-02 
490	 6.71127768624308E-02 
491	 6.70879785412625E-02 
492	 6.71045012823853E-02 
493	 6.71189105405921E-02 
494	 6.71375877117767E-02 
495	 6.71691429994347E-02 
496	 6.72189757815728E-02 
497	 6.71990871330367E-02 
498	 6.72373603687753E-02 
499	 6.74183194165962E-02 
500	 6.75079159090258E-02 
501	 6.75756132082628E-02 
502	 6.76486698075113E-02 
503	 6.77274496247892E-02 
504	 6.78054767895382E-02 
505	 6.78490183763999E-02 
506	 6.78757319002599E-02 
507	 6.79907873590082E-02 
508	 6.81135177311445E-02 
509	 6.82208859873543E-02 
510	 0.068309978189694 
511	 0.068372495413381 
512	 6.85487263711611E-02 
513	 6.87639419356195E-02 
514	 6.87772829824388E-02 
515	 0.068847384306744 
516	 6.90495182041695E-02 
517	 6.93166886940841E-02 
518	 6.93122011261224E-02 
519	 6.94464786713876E-02 
520	 6.96014421161987E-02 
521	 6.95433663043413E-02 
522	 6.96713880971561E-02 
523	 6.98379138765037E-02 
524	 6.99471049786217E-02 
525	 7.00003573313727E-02 
526	 7.00789854776158E-02 
527	 7.02158762021626E-02 
528	 7.03975302157143E-02 
529	 7.05168053781372E-02 
530	 7.06673718378675E-02 
531	 7.07806362532155E-02 
532	 7.07427304590121E-02 
533	 7.08999595808772E-02 
534	 7.11262327812553E-02 
535	 0.071296829730848 
536	 7.13834803175076E-02 
537	 7.15251472327691E-02 
538	 7.16781856739488E-02 
539	 7.17738901599052E-02 
540	 7.19124821390279E-02 
541	 7.20589169993675E-02 
542	 7.22005737992051E-02 
543	 7.23488439527394E-02 
544	 7.25239438308808E-02 
545	 7.27004063535669E-02 
546	 0.072855452650302 
547	 7.29790531018619E-02 
548	 7.31600196315353E-02 
549	 7.33948085545447E-02 
550	 7.36297880181343E-02 
551	 7.37896137865232E-02 
552	 0.073937071018415 
553	 7.40911332160238E-02 
554	 7.42047443124528E-02 
555	 7.43473482925308E-02 
556	 7.45590982111938E-02 
557	 7.48354736768666E-02 
558	 7.50645691337142E-02 
559	 7.52212409685258E-02 
560	 7.53358055696596E-02 
561	 7.54817917097269E-02 
562	 7.57252286741944E-02 
563	 7.60020466842385E-02 
564	 7.62494541885621E-02 
565	 7.64294585882601E-02 
566	 7.66762995918835E-02 
567	 7.69927454157158E-02 
568	 7.73328151156596E-02 
569	 7.76756967358374E-02 
570	 7.79671818419649E-02 
571	 7.82075309924073E-02 
572	 7.84535798469558E-02 
573	 7.87939435832843E-02 
574	 7.91799690966397E-02 
575	 7.95631297271839E-02 
576	 7.99565969380711E-02 
577	 8.03752934546564E-02 
578	 8.08137842552274E-02 
579	 8.12696195099873E-02 
580	 8.18241459987469E-02 
581	 8.24490392774078E-02 
582	 8.30916086578181E-02 
583	 8.36845722492116E-02 
584	 8.43898941797662E-02 
585	 8.51575256396984E-02 
586	 8.59159833264557E-02 
587	 8.67462411291292E-02 
588	 8.76932831634662E-02 
589	 8.87199131140045E-02 
590	 0.089728644937227 
591	 9.09475372739329E-02 
592	 9.22620717829839E-02 
593	 9.36598161774661E-02 
594	 0.095342156243152 
595	 9.71172573566782E-02 
596	 9.89617789498353E-02 
597	 0.100913831423847 
598	 0.102953326316334 
599	 0.105137556346884 
600	 0.107481130654627 
601	 0.109949018799033 
602	 0.112623491940517 
603	 0.115420876600748 
604	 0.118277236080604 
605	 0.121295643933819 
606	 0.124490705658992 
607	 0.127800353358489 
608	 0.13113526403852 
609	 0.134666217557282 
610	 0.138300763314662 
611	 0.141943746917732 
612	 0.145564049858576 
613	 0.149237298692241 
614	 0.152942056605683 
615	 0.156631264625321 
616	 0.160321436540864 
617	 0.164026724683991 
618	 0.16769832216156 
619	 0.171315022439819 
620	 0.174906045909249 
621	 0.178487234190611 
622	 0.182058499819811 
623	 0.185586930523731 
624	 0.189040134518308 
625	 0.192431564356038 
626	 0.195784439940169 
627	 0.199135148089037 
628	 0.202362420758609 
629	 0.205446508011062 
630	 0.208433434308374 
631	 0.211267766208198 
632	 0.213865511763905 
633	 0.216201843867326 
634	 0.218440944762702 
635	 0.220401451338654 
636	 0.222043513424951 
637	 0.223390916114558 
638	 0.22448870769731 
639	 0.225284902533709 
640	 0.225801548469069 
641	 0.22614395185198 
642	 0.226229345801395 
643	 0.226075824112353 
644	 0.225718018390145 
645	 0.225136884274814 
646	 0.224455497250697 
647	 0.223705048907473 
648	 0.222874034633827 
649	 0.222135899370729 
650	 0.221381758062723 
651	 0.220585667301526 
652	 0.219873561469339 
653	 0.219141061969073 
654	 0.218292478896888 
655	 0.217186248780084 
656	 0.215650087850976 
657	 0.213683447953179 
658	 0.211535055496428 
659	 0.209239485256324 
660	 0.206647925231988 
661	 0.203845848496367 
662	 0.200976246376351 
663	 0.198029656278717 
664	 0.195183532427123 
665	 0.192413952767502 
666	 0.189687496746194 
667	 0.187418003220373 
668	 0.185419625477982 
669	 0.18367728856855 
670	 0.182316036148395 
671	 0.181242413317787 
672	 0.18051084243527 
673	 0.180134437661506 
674	 0.17995023855445 
675	 0.180022262275092 
676	 0.180310845768061 
677	 0.180771229336293 
678	 0.181539329670458 
679	 0.182576808687408 
680	 0.183952038289035 
681	 0.185849423658011 
682	 0.188393020621654 
683	 0.191634553646891 
684	 0.195657983461697 
685	 0.200676536916176 
686	 0.206782579716555 
687	 0.214308807929693 
688	 0.222800517371311 
689	 0.231410038058996 
690	 0.240422555285921 
691	 0.250276257478005 
692	 0.260667117471445 
693	 0.271618269613208 
694	 0.28306915423854 
695	 0.294833950524776 
696	 0.306771690164564 
697	 0.318642106667946 
698	 0.330327985450749 
699	 0.341676695333295 
700	 0.35264239047153 
701	 0.363277021892858 
702	 0.373493490721231 
703	 0.38301447667729 
704	 0.391918829847339 
705	 0.400268104576641 
706	 0.408216226784503 
707	 0.415938841906005 
708	 0.423274051123448 
709	 0.430284927642365 
710	 0.437075406557523 
711	 0.44365817126796 
712	 0.450106648915348 
713	 0.456374671358737 
714	 0.462287177491184 
715	 0.467984670570347 
716	 0.473312523168282 
717	 0.47834636567634 
718	 0.4834726549877 
719	 0.488881509371113 
720	 0.494458676907823 
721	 0.499923435537716 
722	 0.504892728597798 
723	 0.509305794260557 
724	 0.513486543427065 
725	 0.517623776014777 
726	 0.521703915357732 
727	 0.525696861299128 
728	 0.529585277841933 
729	 0.533038488514686 
730	 0.536326534246321 
731	 0.539550130668833 
732	 0.542723810873246 
733	 0.545682687179299 
734	 0.548340486307576 
735	 0.550773042263235 
736	 0.553118039688362 
737	 0.55536440958422 
738	 0.55744111029102 
739	 0.559330306125173 
740	 0.561044458035701 
741	 0.562727597072869 
742	 0.564251898064869 
743	 0.565483169336792 
744	 0.566770336363509 
745	 0.567910475965449 
746	 0.568824524154852 
747	 0.56956647422489 
748	 0.570394696822651 
749	 0.571175234688166 
750	 0.571840067914592 
751	 0.572535267053659 
752	 0.573006675045432 
753	 0.573382547321987 
754	 0.573810121650619 
755	 0.574085017380284 
756	 0.574373068412228 
757	 0.574698129723815 
758	 0.575126530165573 
759	 0.576969558717995 
760	 0.579366551386362 
761	 0.580889945623686 
762	 0.580381138851334 
763	 0.579955274271857 
764	 0.579492858652434 
765	 0.578690573447089 
766	 0.577854446497667 
767	 0.577403695949843 
768	 0.577213622767515 
769	 0.577071187736916 
770	 0.577072135717236 
771	 0.5771114965493 
772	 0.577191818139048 
773	 0.577387512927938 
774	 0.577441330048097 
775	 0.577487078650547 
776	 0.577583717152718 
777	 0.577552538860574 
778	 0.577720937475618 
779	 0.577896596888121 
780	 0.577876859582399 
781	 0.577969281178783 
782	 0.577979757322613 
783	 0.578020303316867 
784	 0.578269697343885 
785	 0.578154332168833 
786	 0.578154479433196 
787	 0.578312523035112 
788	 0.578148600471265 
789	 0.57826198896893 
790	 0.578403268129622 
791	 0.578374604461546 
792	 0.578416021042266 
793	 0.578614451347297 
794	 0.578851975901462 
795	 0.578960083870396 
796	 0.578887780760714 
797	 0.578911913244919 
798	 0.57909241833598 
799	 0.579310895254937 
800	 0.579260353013145 
801	 0.579257181271136 
802	 0.579369214926366 
803	 0.579328665815763 
804	 0.579450172565657 
805	 0.579646946763058 
806	 0.579808024902894 
807	 0.579952301393255 
808	 0.579915106536773 
809	 0.579822452937125 
810	 0.57979065500468 
811	 0.579507414261882 
812	 0.579121386984664 
813	 0.578770925067742 
814	 0.578537473632366 
815	 0.5781157850524 
816	 0.577903005588322 
817	 0.57799424025388 
818	 0.578085296206445 
819	 0.578252515125803 
820	 0.578484694755118 
821	 0.578730419017394 
822	 0.578893543538958 
823	 0.578858077382926 
824	 0.578894608684138 
825	 0.579206778460826 
826	 0.579512140843205 
827	 0.579656816586168 
828	 0.579702493163648 
829	 0.579744391694607 
830	 0.579448330920507 
831	 0.579480797587388 
832	 0.579819018925997 
833	 0.579946705454509 
834	 0.580175365627235 
835	 0.580500729936609 
836	 0.580818215345523 
837	 0.580962719952753 
838	 0.581007491439151 
839	 0.581155784440464 
840	 0.581417503090825 
841	 0.581372239591643 
842	 0.581548866979614 
843	 0.581760318208502 
844	 0.581769167330735 
845	 0.581913933617728 
846	 0.581922369634671 
847	 0.581915411031968 
848	 0.582103396150633 
849	 0.582162244265239 
850	 0.58229595881234 
851	 0.582423206558592 
852	 0.582317066444274 
853	 0.582541550201074 
854	 0.582796841170789 
855	 0.582844214452398 
856	 0.58266684935485 
857	 0.582551956844862 
858	 0.582735087199098 
859	 0.583119288120036 
860	 0.583145646130248 
861	 0.583047535991569 
862	 0.583076665328864 
863	 0.583328064043232 
864	 0.583490174033173 
865	 0.583522817885146 
866	 0.583566880886422 
867	 0.583704832625958 
868	 0.583493599805023 
869	 0.583410727935594 
870	 0.583434967991417 
871	 0.583403216063247 
872	 0.583813968109249 
873	 0.584124520733488 
874	 0.584168754320723 
875	 0.58410599519624 
876	 0.583952043556893 
877	 0.584112187500287 
878	 0.584411400408844 
879	 0.584182878726973 
880	 0.584308652080975 
881	 0.584440792160747 
882	 0.584426766204881 
883	 0.584600684607763 
884	 0.584488287767421 
885	 0.584344517760704 
886	 0.584405614578235 
887	 0.584597429085175 
888	 0.584478214061981 
889	 0.584351883311015 
890	 0.584466868492982 
891	 0.584427209740069 
892	 0.584176383548016 
893	 0.583778259586072 
894	 0.583329312278271 
895	 0.582803306160328 
896	 0.582501983284496 
897	 0.582192319013284 
898	 0.581627244870467 
899	 0.581660209160813 
900	 0.581554026362016 
901	 0.581522405581405 
902	 0.582062348577514 
903	 0.582302469294144 
904	 0.582362465703766 
905	 0.582447464983862 
906	 0.582661939126411 
907	 0.582340100793637 
908	 0.58177170348544 
909	 0.581422594688721 
910	 0.581633834268166 
911	 0.581119108156758 
912	 0.58101510445411 
913	 0.581454341341622 
914	 0.581457549183961 
915	 0.581719418422907 
916	 0.581764846578735 
917	 0.58164833093147 
918	 0.582058179953828 
919	 0.582101369510555 
920	 0.582251356506335 
921	 0.582539356509065 
922	 0.582257972974296 
923	 0.582323733166107 
924	 0.582028133445367 
925	 0.581099829253571 
926	 0.580357513520098 
927	 0.579226549973614 
928	 0.578145763992243 
929	 0.577227746419829 
930	 0.575584240652032 
931	 0.573977957715309 
932	 0.572121578758174 
933	 0.569890001729868 
934	 0.568106293231606 
935	 0.567646299857304 
936	 0.567240859158279 
937	 0.566401656025235 
938	 0.567194484795249 
939	 0.567264005535032 
940	 0.567153729917798 
941	 0.567477296329212 
942	 0.567711961422942 
943	 0.567556549785374 
944	 0.566772095952871 
945	 0.565557614189989 
946	 0.564931042980606 
947	 0.5636329480375 
948	 0.563172907103646 
949	 0.564107925111033 
950	 0.563703624974977 
951	 0.562129114236045 
952	 0.561428197824515 
953	 0.56224211542756 
954	 0.561462795973349 
955	 0.560971495468343 
956	 0.560471632449738 
957	 0.559674299973207 
958	 0.55930517719067 
959	 0.558815715987405 
960	 0.558419402334731 
961	 0.558580843681928 
962	 0.55980499429369 
963	 0.561163428231344 
964	 0.560909494311343 
965	 0.559672414549931 
966	 0.561786820465689 
967	 0.562849515474523 
968	 0.562807734463761 
969	 0.562542565028885 
970	 0.562806079391157 
971	 0.563535856316171 
972	 0.563985790478945 
973	 0.563718969294807 
974	 0.563037294264087 
975	 0.563064890735456 
976	 0.563707883292523 
977	 0.564321652001625 
978	 0.564128273440145 
979	 0.56478128340097 
980	 0.56535681601261 
981	 0.565663865014036 
982	 0.566538460323794 
983	 0.566257083111777 
984	 0.566688486679029 
985	 0.567508654376267 
986	 0.566600373935004 
987	 0.567498874685943 
988	 0.568147599258591 
989	 0.567976897349777 
990	 0.568046992245688 
991	 0.568724881485131 
992	 0.569371783205678 
993	 0.56981679895529 
994	 0.570235758832117 
995	 0.570537656525897 
996	 0.570856230342448 
997	 0.57115136522015 
998	 0.571377556489411 
999	 0.571981807960681 
1000	 0.571163234277681 
1001	 0.571681428559245 
1002	 0.571925954599152 
1003	 0.572185871407356 
1004	 0.572474395368692 
1005	 0.572810904842468 
1006	 0.5732612512308 
1007	 0.5735206521337 
1008	 0.573664922827646 
1009	 0.574001431122818 
1010	 0.574351303168416 
1011	 0.574642899075036 
1012	 0.575016782071922 
1013	 0.575429646129186 
1014	 0.575737313160743 
1015	 0.576049016841557 
1016	 0.576527980782767 
1017	 0.576920162347103 
1018	 0.577246258791297 
1019	 0.577454556702047 
1020	 0.577724533109109 
1021	 0.577978077487508 
1022	 0.578292261599854 
1023	 0.578617435163556 
1024	 0.578999292820347 
1025	 0.579437976441675 
1026	 0.579716782513658 
1027	 0.579987645630845 
1028	 0.58028349116531 
1029	 0.580467871270239 
1030	 0.580680032483665 
1031	 0.5809986348665 
1032	 0.581205461047056 
1033	 0.581436259903875 
1034	 0.581701699254728 
1035	 0.581936419020528 
1036	 0.582154244667579 
1037	 0.582396578858566 
1038	 0.582651115582257 
1039	 0.582868700362127 
1040	 0.583086895630028 
1041	 0.583169638251996 
1042	 0.583271171954809 
1043	 0.583417142549258 
1044	 0.583618234258641 
1045	 0.583947731374755 
1046	 0.584158634800169 
1047	 0.584234618095675 
1048	 0.584343349826151 
1049	 0.584521938995404 
1050	 0.584655791786958 
1051	 0.584815236686669 
1052	 0.584943014378102 
1053	 0.585134949418933 
1054	 0.585330855652165 
1055	 0.585477490719063 
1056	 0.585693814108672 
1057	 0.585919404516271 
1058	 0.585950001691278 
1059	 0.585941346586095 
1060	 0.586169695990909 
1061	 0.58632735727149 
1062	 0.586409601033165 
1063	 0.586522927127232 
1064	 0.586461981257046 
1065	 0.586450921995888 
1066	 0.586407450983421 
1067	 0.586400351807328 
1068	 0.58636722915928 
1069	 0.586465204230138 
1070	 0.586522444629201 
1071	 0.586462622978692 
1072	 0.586431311835436 
1073	 0.5863617043065 
1074	 0.586362421506254 
1075	 0.586337851520553 
1076	 0.586183602164453 
1077	 0.586177790027103 
1078	 0.586080840082537 
1079	 0.585847340775461 
1080	 0.585718519731869 
1081	 0.585617146456269 
1082	 0.5854983636225 
1083	 0.585323934850085 
1084	 0.585204164676702 
1085	 0.585235193252129 
1086	 0.585118836288825 
1087	 0.584873113716241 
1088	 0.584688691808772 
1089	 0.584400682377013 
1090	 0.584138016867979 
1091	 0.583999953088151 
1092	 0.583799202983054 
1093	 0.583521512763642 
1094	 0.583299314089944 
1095	 0.583033379814116 
1096	 0.582727427262317 
1097	 0.582488787532694 
1098	 0.582172200452069 
1099	 0.581771285175208 
1100	 0.58129093186132 
1101	 0.580884209357971 
1102	 0.580457784257879 
1103	 0.580010666063827 
1104	 0.579525489323236 
1105	 0.578942559193864 
1106	 0.578359740076429 
1107	 0.577810677887162 
1108	 0.577203325495902 
1109	 0.576518362588101 
1110	 0.575800283323748 
1111	 0.574937462323227 
1112	 0.573774062759375 
1113	 0.572698726361604 
1114	 0.571512254050652 
1115	 0.570285700589845 
1116	 0.568958491822966 
1117	 0.567663577729494 
1118	 0.56647296190934 
1119	 0.56534092089065 
1120	 0.564274353892703 
1121	 0.563340779533486 
1122	 0.562275189079373 
1123	 0.561162236708309 
1124	 0.560280349670631 
1125	 0.559504928607609 
1126	 0.558775979570422 
1127	 0.558218262948259 
1128	 0.557743407618101 
1129	 0.557553183323078 
1130	 0.556943171193591 
1131	 0.556309790557103 
1132	 0.555560819815205 
1133	 0.554562056109575 
1134	 0.553611221272497 
1135	 0.552715194978895 
1136	 0.551904961001979 
1137	 0.550807263824325 
1138	 0.549495304515488 
1139	 0.548125192884713 
1140	 0.546390599373351 
1141	 0.544725212205026 
1142	 0.543102480791458 
1143	 0.541388228756292 
1144	 0.539608706577712 
1145	 0.537894167216198 
1146	 0.535976394054081 
1147	 0.534395429166895 
1148	 0.532968101502642 
1149	 0.531744730035037 
1150	 0.530735698893647 
1151	 0.529964700150644 
1152	 0.529442047370669 
1153	 0.529001421957629 
1154	 0.528783318488869 
1155	 0.528635886114319 
1156	 0.528423737221056 
1157	 0.528322810649424 
1158	 0.528281090129151 
1159	 0.528242179302284 
1160	 0.528230535582113 
1161	 0.528296872710969 
1162	 0.528299187829424 
1163	 0.528276014525791 
1164	 0.528282589640876 
1165	 0.528283004929225 
1166	 0.528303471716048 
1167	 0.528355693491486 
1168	 0.528364673241163 
1169	 0.528364104288567 
1170	 0.528393592247511 
1171	 0.528282169776445 
1172	 0.528141439603615 
1173	 0.5281039295489 
1174	 0.528034278229374 
1175	 0.528051943532076 
1176	 0.528097717323181 
1177	 0.528039969145772 
1178	 0.52791931020866 
1179	 0.527769565663981 
1180	 0.527503451535517 
1181	 0.52737871536232 
1182	 0.527317335607503 
1183	 0.527186811955072 
1184	 0.527070707491549 
1185	 0.526980076183789 
1186	 0.526852234557284 
1187	 0.526735082628962 
1188	 0.526642604254274 
1189	 0.526610440851291 
1190	 0.526559584913341 
1191	 0.52645040106001 
1192	 0.526420355661037 
1193	 0.526390663883343 
1194	 0.526300433513972 
1195	 0.526137000876859 
1196	 0.526047050044993 
1197	 0.525919866176018 
1198	 0.525908334615941 
1199	 0.526019941051053 
1200	 0.526045059431758 
1201	 0.526043548862271 
1202	 0.526120095415388 
1203	 0.526152244850168 
1204	 0.526290071102294 
1205	 0.526583349720287 
1206	 0.526828642646909 
1207	 0.527124812160035 
1208	 0.527363953806937 
1209	 0.527571427987967 
1210	 0.527753199188937 
1211	 0.527992238192847 
1212	 0.528225249419723 
1213	 0.528524539988224 
1214	 0.528947308671087 
1215	 0.529237303970174 
1216	 0.529494051726879 
1217	 0.529746211990012 
1218	 0.529905691103384 
1219	 0.530179854860852 
1220	 0.530520136843011 
1221	 0.530832201114033 
1222	 0.531195008022189 
1223	 0.531516710704591 
1224	 0.531795374605623 
1225	 0.532102227526678 
1226	 0.532439463921682 
1227	 0.532742662768359 
1228	 0.533015204284433 
1229	 0.533312997733681 
1230	 0.533652305891952 
1231	 0.53392171000955 
1232	 0.534187653743087 
1233	 0.534452122189374 
1234	 0.534742251439876 
1235	 0.534975188616323 
1236	 0.535300629636137 
1237	 0.53574204072878 
1238	 0.536076007222573 
1239	 0.536449743252417 
1240	 0.536695101934452 
1241	 0.536789688781546 
1242	 0.536981659785631 
1243	 0.537149325880403 
1244	 0.537320906888792 
1245	 0.537540193288899 
1246	 0.53775176644729 
1247	 0.537930966083775 
1248	 0.538113428631858 
1249	 0.538332545193475 
1250	 0.538531193207839 
1251	 0.538660915951896 
1252	 0.538883114384754 
1253	 0.539054669599011 
1254	 0.539230951796001 
1255	 0.539391645795987 
1256	 0.539540070446502 
1257	 0.539675339244058 
1258	 0.539792949412672 
1259	 0.539929362611421 
1260	 0.540067265067766 
1261	 0.540196409317575 
1262	 0.540380599951007 
1263	 0.540461226682475 
1264	 0.540464584534112 
1265	 0.540475647723581 
1266	 0.540396443318878 
1267	 0.540376604553539 
1268	 0.540434703057621 
1269	 0.540410652604728 
1270	 0.540361266189641 
1271	 0.540299459016421 
1272	 0.54021950476322 
1273	 0.540062803471062 
1274	 0.539910580284143 
1275	 0.539751449212478 
1276	 0.539577710730134 
1277	 0.539371524882877 
1278	 0.539153038325619 
1279	 0.538935867022094 
1280	 0.53869365381506 
1281	 0.538456362973121 
1282	 0.538115587883365 
1283	 0.537732092819292 
1284	 0.537313475253283 
1285	 0.536747423099906 
1286	 0.536293466604806 
1287	 0.535888007240069 
1288	 0.535460683171022 
1289	 0.535093673008654 
1290	 0.534652837907381 
1291	 0.534228854938067 
1292	 0.533682780136823 
1293	 0.533020863062474 
1294	 0.532354665039268 
1295	 0.531603901732472 
1296	 0.530803872530505 
1297	 0.53005393257936 
1298	 0.529324596440926 
1299	 0.528556305547937 
1300	 0.527799911424174 
1301	 0.52696033070863 
1302	 0.52607884729791 
1303	 0.525145529863746 
1304	 0.524145720366269 
1305	 0.523115305071595 
1306	 0.522017508685005 
1307	 0.520930386474981 
1308	 0.519833085934796 
1309	 0.518672738034232 
1310	 0.517537348363712 
1311	 0.516263801441478 
1312	 0.514775943487804 
1313	 0.513430610009058 
1314	 0.51209193056209 
1315	 0.510736629166189 
1316	 0.509547172157841 
1317	 0.508186763301782 
1318	 0.5066506932948 
1319	 0.505155450033713 
1320	 0.503585734893765 
1321	 0.502023501287126 
1322	 0.500406014979977 
1323	 0.498786458377257 
1324	 0.497047141365909 
1325	 0.495168655034991 
1326	 0.493292632617291 
1327	 0.491294632994295 
1328	 0.489338381098912 
1329	 0.487358735455293 
1330	 0.485329932679612 
1331	 0.483261375230398 
1332	 0.481251243853629 
1333	 0.479223421543201 
1334	 0.47729499310646 
1335	 0.475476249681811 
1336	 0.473675482511004 
1337	 0.471922940934522 
1338	 0.470140965038593 
1339	 0.468275799711655 
1340	 0.466447799265644 
1341	 0.464388921538403 
1342	 0.462441782241514 
1343	 0.460363791682058 
1344	 0.458258690382056 
1345	 0.455883838292259 
1346	 0.45352922952281 
1347	 0.451044923269076 
1348	 0.448361860039618 
1349	 0.445610081560668 
1350	 0.442891843279588 
1351	 0.439719283785383 
1352	 0.436571794351295 
1353	 0.432565011471297 
1354	 0.428403260822983 
1355	 0.423311371579282 
1356	 0.419340142229684 
1357	 0.413455293860635 
1358	 0.412363961695222 
1359	 0.406920637466158 
1360	 0.405981767718513 
1361	 0.397892810937031 
1362	 0.388164433598715 
1363	 0.372031064496098 
1364	 0.346633675306325 
1365	 0.335405098138707 
1366	 0.349071582002404 
1367	 0.349752666719765 
1368	 0.360610340252398 
1369	 0.359814906520215 
1370	 0.347350640065477 
1371	 0.343107880486655 
1372	 0.338693172484862 
1373	 0.337751832880704 
1374	 0.341691219539828 
1375	 0.342494261661155 
1376	 0.342593645017626 
1377	 0.342103891242877 
1378	 0.339463282535821 
1379	 0.335213002652849 
1380	 0.327097772462593 
1381	 0.314654495898456 
1382	 0.307459310536638 
1383	 0.299776422143549 
1384	 0.292828771036713 
1385	 0.291852399614448 
1386	 0.284918133198712 
1387	 0.273681230789502 
1388	 0.267986618507307 
1389	 0.263844770753416 
1390	 0.259927348019331 
1391	 0.258793889711212 
1392	 0.255101873515631 
1393	 0.24983541654418 
1394	 0.245285598464187 
1395	 0.24092368522689 
1396	 0.235696538608675 
1397	 0.230173254098679 
1398	 0.224815404316884 
1399	 0.218039353849399 
1400	 0.213015692058021 
1401	 0.209511623541139 
1402	 0.205606174599966 
1403	 0.202786744328253 
1404	 0.199208551258637 
1405	 0.194962601733197 
1406	 0.191681909805127 
1407	 0.188007995198394 
1408	 0.185192180662727 
1409	 0.183169709880671 
1410	 0.181104457443776 
1411	 0.179464168154558 
1412	 0.178199160260853 
1413	 0.176968717361288 
1414	 0.17587439045146 
1415	 0.174852925493102 
1416	 0.173981670404246 
1417	 0.173114783931997 
1418	 0.172415429044116 
1419	 0.17137979155806 
1420	 0.170195439759801 
1421	 0.16922845021206 
1422	 0.168092060695525 
1423	 0.167255687911297 
1424	 0.166590460254216 
1425	 0.166012945809134 
1426	 0.165511003268551 
1427	 0.165022823597413 
1428	 0.164578872820262 
1429	 0.164199720536188 
1430	 0.163917963301154 
1431	 0.163484310079135 
1432	 0.162987348575199 
1433	 0.162590586184861 
1434	 0.16209714712315 
1435	 0.161672383596053 
1436	 0.161389638542275 
1437	 0.161099016901008 
1438	 0.160688328820544 
1439	 0.160479716725794 
1440	 0.160337841798631 
1441	 0.160348476459498 
1442	 0.160549204884772 
1443	 0.160796104232299 
1444	 0.160872838851787 
1445	 0.161030219639318 
1446	 0.161161289914128 
1447	 0.161217919087282 
1448	 0.161372562403984 
1449	 0.161573693243285 
1450	 0.161886000316477 
1451	 0.162231186093186 
1452	 0.16257837984462 
1453	 0.163078288247467 
1454	 0.163362480235834 
1455	 0.163548160239303 
1456	 0.163737181536291 
1457	 0.163845644308468 
1458	 0.164065959496435 
1459	 0.164336800667265 
1460	 0.164599025435193 
1461	 0.164917616073983 
1462	 0.165240026921377 
1463	 0.165505486961209 
1464	 0.16594574587639 
1465	 0.166502998179548 
1466	 0.167151482320411 
1467	 0.167980081678002 
1468	 0.168770568496841 
1469	 0.169451218135446 
1470	 0.170439103878422 
1471	 0.171548446415513 
1472	 0.172696486246049 
1473	 0.17402706578139 
1474	 0.175281283549142 
1475	 0.176428235763609 
1476	 0.177624387106091 
1477	 0.17874049552538 
1478	 0.180041960384369 
1479	 0.181379605677374 
1480	 0.182797210403276 
1481	 0.184343637186569 
1482	 0.185896901210577 
1483	 0.187456444299275 
1484	 0.189022025267711 
1485	 0.190609329256261 
1486	 0.192193127674018 
1487	 0.193709071111523 
1488	 0.195293336725049 
1489	 0.196808356266275 
1490	 0.198374952315608 
1491	 0.199998694569151 
1492	 0.201505586180638 
1493	 0.203047297991979 
1494	 0.204598484210764 
1495	 0.206132663850531 
1496	 0.207676555881088 
1497	 0.209202126967548 
1498	 0.210770011420004 
1499	 0.212273834507194 
1500	 0.213722539953506 
1501	 0.215322081702315 
1502	 0.216987078163486 
1503	 0.218641788988486 
1504	 0.220376459272926 
1505	 0.22208915723292 
1506	 0.223753306650722 
1507	 0.225472515518078 
1508	 0.227307415612513 
1509	 0.228968181866528 
1510	 0.230544962084166 
1511	 0.232149952305925 
1512	 0.233682291716269 
1513	 0.235267629487594 
1514	 0.236873360009072 
1515	 0.238533463917401 
1516	 0.240237682401677 
1517	 0.241934328244477 
1518	 0.243711831192232 
1519	 0.245443137575291 
1520	 0.247166372055039 
1521	 0.248851413007327 
1522	 0.250500019648395 
1523	 0.252193206966306 
1524	 0.253878570331173 
1525	 0.255573790276453 
1526	 0.257354478049558 
1527	 0.259049022238239 
1528	 0.26071337991971 
1529	 0.26232825231983 
1530	 0.263870028073575 
1531	 0.265448688300081 
1532	 0.266996072897489 
1533	 0.268574229067694 
1534	 0.270170811969086 
1535	 0.271798256095123 
1536	 0.27348050572134 
1537	 0.275109880204083 
1538	 0.276754052976943 
1539	 0.27837061720477 
1540	 0.279964879363181 
1541	 0.281506573747309 
1542	 0.282999110202028 
1543	 0.28451136170776 
1544	 0.285975494245539 
1545	 0.287455752272721 
1546	 0.288968731290464 
1547	 0.290475780813669 
1548	 0.29198044372936 
1549	 0.293472849173351 
1550	 0.295004647327158 
1551	 0.296483284365625 
1552	 0.297906346997691 
1553	 0.299338066141599 
1554	 0.300748806374583 
1555	 0.302152453849333 
1556	 0.303569896073505 
1557	 0.30495624118951 
1558	 0.306319874795484 
1559	 0.307662083019803 
1560	 0.309004365182942 
1561	 0.310298243481062 
1562	 0.311525513954447 
1563	 0.312780489313744 
1564	 0.314032743814305 
1565	 0.315274151039814 
1566	 0.316479294239983 
1567	 0.317725086985955 
1568	 0.3189815810309 
1569	 0.320233063000421 
1570	 0.321445774943869 
1571	 0.322686980429637 
1572	 0.323887139912808 
1573	 0.324991111851672 
1574	 0.32618370783472 
1575	 0.327433342802073 
1576	 0.328587095465851 
1577	 0.329684617642912 
1578	 0.330824425235406 
1579	 0.331925715856978 
1580	 0.333040597722228 
1581	 0.334192820253043 
1582	 0.335282299917628 
1583	 0.336329802873895 
1584	 0.337375434775548 
1585	 0.338412023319209 
1586	 0.339426504631543 
1587	 0.340416188816541 
1588	 0.341415475517113 
1589	 0.342409807953228 
1590	 0.343399900568494 
1591	 0.344405635855756 
1592	 0.345359297384785 
1593	 0.346268472342455 
1594	 0.347236379598374 
1595	 0.34822949466588 
1596	 0.349149200108191 
1597	 0.350078074738951 
1598	 0.350988395696849 
1599	 0.351817926113744 
1600	 0.352709203240265 
1601	 0.353691590185009 
1602	 0.354523156744096 
1603	 0.355266845972034 
1604	 0.356059585118385 
1605	 0.35677357034125 
1606	 0.357584051341299 
1607	 0.358464132737624 
1608	 0.359301077949528 
1609	 0.360143215288962 
1610	 0.3609698901678 
1611	 0.361797526463387 
1612	 0.362578553136799 
1613	 0.36334068585089 
1614	 0.364075329983029 
1615	 0.364740550723665 
1616	 0.365473963185411 
1617	 0.366239379341948 
1618	 0.366949239752026 
1619	 0.367672034587627 
1620	 0.36835101404523 
1621	 0.368950234752238 
1622	 0.369627726046537 
1623	 0.370363251363198 
1624	 0.370998692684657 
1625	 0.371622235653066 
1626	 0.372223471313581 
1627	 0.372764115503686 
1628	 0.373297420609278 
1629	 0.373796860214568 
1630	 0.37440097308286 
1631	 0.375044636581071 
1632	 0.375605818034602 
1633	 0.376244981755486 
1634	 0.37678076197302 
1635	 0.377145812818826 
1636	 0.377680118345695 
1637	 0.37829695976955 
1638	 0.378842791061483 
1639	 0.379416772763082 
1640	 0.379943793455286 
1641	 0.380432978501204 
1642	 0.380922198138487 
1643	 0.381382166179234 
1644	 0.381843790506564 
1645	 0.382313460341899 
1646	 0.382685868870435 
1647	 0.3830105456133 
1648	 0.383340508244552 
1649	 0.383575168086343 
1650	 0.383922296191316 
1651	 0.384389700495317 
1652	 0.384695908832548 
1653	 0.384917400011639 
1654	 0.385230025620373 
1655	 0.385479060112457 
1656	 0.385806817360789 
1657	 0.386283126371567 
1658	 0.386622908351769 
1659	 0.386866775711581 
1660	 0.387039675920488 
1661	 0.387292681927079 
1662	 0.387544050658007 
1663	 0.387791919649856 
1664	 0.38812218224272 
1665	 0.388277008120848 
1666	 0.38831580749096 
1667	 0.388398460438166 
1668	 0.388494107254268 
1669	 0.388681607032189 
1670	 0.388746668862451 
1671	 0.388771393783912 
1672	 0.388895574672756 
1673	 0.388888087926785 
1674	 0.389047131320322 
1675	 0.389352233134964 
1676	 0.389359898612645 
1677	 0.389334825801708 
1678	 0.389328540629295 
1679	 0.389168566834051 
1680	 0.38910183865586 
1681	 0.389013290530404 
1682	 0.388815069588489 
1683	 0.388665776903211 
1684	 0.38849545128546 
1685	 0.388284472169978 
1686	 0.388103657002222 
1687	 0.387906250083493 
1688	 0.387664495601803 
1689	 0.387482710720986 
1690	 0.38719164552024 
1691	 0.386909624363502 
1692	 0.386563047011045 
1693	 0.38623487697667 
1694	 0.385965202469494 
1695	 0.385678899612627 
1696	 0.38537668578957 
1697	 0.385075794126586 
1698	 0.384793606340357 
1699	 0.384428198103565 
1700	 0.38399287380179 
1701	 0.383613018695631 
1702	 0.383157474586458 
1703	 0.38282350204304 
1704	 0.382686665273065 
1705	 0.382334013051739 
1706	 0.381846050402209 
1707	 0.381493071987571 
1708	 0.38110743799551 
1709	 0.380712174692842 
1710	 0.380523493167318 
1711	 0.380114686838488 
1712	 0.379426858609396 
1713	 0.378938228129741 
1714	 0.378539207659172 
1715	 0.378024298893785 
1716	 0.377531394796001 
1717	 0.377011722774492 
1718	 0.376376496922987 
1719	 0.375763071624375 
1720	 0.375197674570838 
1721	 0.374584177699766 
1722	 0.373879980197385 
1723	 0.373217043639743 
1724	 0.372536681417307 
1725	 0.371971275942926 
1726	 0.371533393327105 
1727	 0.370915936022126 
1728	 0.370289350547944 
1729	 0.369586121217029 
1730	 0.368738043073606 
1731	 0.367918440136536 
1732	 0.367200252271909 
1733	 0.366482211797127 
1734	 0.365611074010152 
1735	 0.364876314722527 
1736	 0.364112682947157 
1737	 0.363292355597512 
1738	 0.362594947728555 
1739	 0.361761690209038 
1740	 0.360916195643994 
1741	 0.360131957872395 
1742	 0.359046667523582 
1743	 0.357974651056514 
1744	 0.3570139315741 
1745	 0.355915562417284 
1746	 0.354822272150547 
1747	 0.353746938133422 
1748	 0.352645187995209 
1749	 0.351604408539305 
1750	 0.35065595822359 
1751	 0.349776420832325 
1752	 0.348801709181927 
1753	 0.347789273142592 
1754	 0.346909248729712 
1755	 0.345885699425873 
1756	 0.344828928199727 
1757	 0.343690003232869 
1758	 0.342620739957711 
1759	 0.341687281575105 
1760	 0.340677766322536 
1761	 0.339637473471294 
1762	 0.338680060792491 
1763	 0.337637689029877 
1764	 0.336627374956468 
1765	 0.335753155638185 
1766	 0.33478909125589 
1767	 0.333713964336898 
1768	 0.332929778848115 
1769	 0.33234443566891 
1770	 0.331617855217948 
1771	 0.330970857772927 
1772	 0.330182205959495 
1773	 0.329190611710701 
1774	 0.328244555328701 
1775	 0.327310546929753 
1776	 0.326364916847842 
1777	 0.325457435845018 
1778	 0.324828998541587 
1779	 0.324633992014294 
1780	 0.324123979450195 
1781	 0.323374347283515 
1782	 0.322891463511623 
1783	 0.32239738502386 
1784	 0.32185426589485 
1785	 0.32162943177671 
1786	 0.321285132136164 
1787	 0.320524281317283 
1788	 0.320156019722294 
1789	 0.32003007768744 
1790	 0.319695213662037 
1791	 0.319316136919935 
1792	 0.318821514114345 
1793	 0.318286357038556 
1794	 0.317738506694066 
1795	 0.317213565354025 
1796	 0.316794041176319 
1797	 0.316454698823668 
1798	 0.316294777205312 
1799	 0.31604700959157 
1800	 0.315910640423012 
1801	 0.307466174365375 
1802	 0.307978180448162 
1803	 0.307537384382444 
1804	 0.306342758601504 
1805	 0.305544043763079 
1806	 0.303922063765366 
1807	 0.302897333735956 
1808	 0.302289429519006 
1809	 0.302537192199224 
1810	 0.301942772364665 
1811	 0.30088878328431 
1812	 0.300705145242154 
1813	 0.301772968140593 
1814	 0.300661809187156 
1815	 0.297521931087652 
1816	 0.296821705189964 
1817	 0.29622847194404 
1818	 0.294869111741615 
1819	 0.294036298191812 
1820	 0.29590324766309 
1821	 0.298119040240485 
1822	 0.301091882869159 
1823	 0.301475687996036 
1824	 0.304754669646196 
1825	 0.304940491284944 
1826	 0.294145102716715 
1827	 0.288399208724898 
1828	 0.283811669355411 
1829	 0.28240977215459 
1830	 0.281376777630386 
1831	 0.287413346244148 
1832	 0.288338697482301 
1833	 0.291882553978444 
1834	 0.293672673178877 
1835	 0.278831264597017 
1836	 0.276566515569201 
1837	 0.31065027367013 
1838	 0.311114486287508 
1839	 0.296320040098079 
1840	 0.261917550537282 
1841	 0.252867652892365 
1842	 0.232864961922703 
1843	 0.214852126898416 
1844	 0.207929023216227 
1845	 0.212338575060127 
1846	 0.20772714553458 
1847	 0.211510673421811 
1848	 0.225825262392097 
1849	 0.288135176715466 
1850	 0.290543495314081 
1851	 0.268696699424043 
1852	 0.245046634706307 
1853	 0.173651551783439 
1854	 0.156850124481833 
1855	 0.150415655166666 
1856	 0.160934814207864 
1857	 0.206591495258006 
1858	 0.254010882053862 
1859	 0.268701971491791 
1860	 0.276128530731044 
1861	 0.279536711700409 
1862	 0.261887988741214 
1863	 0.254307465076535 
1864	 0.246882279880839 
1865	 0.24565432090887 
1866	 0.248013859744528 
1867	 0.246333549811196 
1868	 0.254483331919546 
1869	 0.255161836477994 
1870	 0.241906278409222 
1871	 0.206404112794955 
1872	 0.189405838212697 
1873	 0.181290953366367 
1874	 0.16671947252457 
1875	 0.156985916530604 
1876	 0.14780009985341 
1877	 0.135918138704672 
1878	 0.129708870333395 
1879	 0.130156093470238 
1880	 0.131762336740586 
1881	 0.132552294062178 
1882	 0.136023619079403 
1883	 0.135623864246248 
1884	 0.134379958812927 
1885	 0.131296831121482 
1886	 0.126286894673708 
1887	 0.123025043800939 
1888	 0.109936236335819 
1889	 0.105973194956246 
1890	 0.101606015733253 
1891	 9.41240491453983E-02 
1892	 9.14688227459584E-02 
1893	 9.42600457909044E-02 
1894	 9.48429893736105E-02 
1895	 0.099605796328013 
1896	 0.101255870730788 
1897	 0.103331450064872 
1898	 0.101257405492841 
1899	 9.43388160183803E-02 
1900	 9.84829390176822E-02 
1901	 9.15931455954631E-02 
1902	 7.04147660957831E-02 
1903	 6.02696787138896E-02 
1904	 5.01077649116379E-02 
1905	 4.28426731554272E-02 
1906	 3.19607072676612E-02 
1907	 0.062736658435285 
1908	 8.62841261736898E-02 
1909	 7.32029913736444E-02 
1910	 6.97546321978617E-02 
1911	 6.97133602997535E-02 
1912	 7.09106768266519E-02 
1913	 7.03183474348952E-02 
1914	 7.34965439365687E-02 
1915	 8.27587864061416E-02 
1916	 8.26017355118226E-02 
1917	 8.15786197203981E-02 
1918	 0.07552396387022 
1919	 7.17296926264464E-02 
1920	 6.84599901188816E-02 
1921	 6.66402127150033E-02 
1922	 0.069363192994314 
1923	 6.85049554669254E-02 
1924	 0.066340551634823 
1925	 6.54107752852003E-02 
1926	 6.34133685505962E-02 
1927	 6.22952325078739E-02 
1928	 6.22166170044362E-02 
1929	 6.18120086267955E-02 
1930	 6.10155019723059E-02 
1931	 6.34397532217353E-02 
1932	 6.54487473670105E-02 
1933	 6.58102423382574E-02 
1934	 6.73731240063936E-02 
1935	 6.94942138578392E-02 
1936	 7.06104037461466E-02 
1937	 7.18486490819677E-02 
1938	 0.072912713227082 
1939	 7.43700403810006E-02 
1940	 7.33507822222276E-02 
1941	 7.25623977000005E-02 
1942	 7.40027326639534E-02 
1943	 7.39176579405987E-02 
1944	 7.44198626862856E-02 
1945	 7.56605274439874E-02 
1946	 7.53824549217972E-02 
1947	 7.54494381116855E-02 
1948	 7.57952163009813E-02 
1949	 7.57357832332466E-02 
1950	 7.51290199183765E-02 
1951	 7.49326780138394E-02 
1952	 7.52642035659607E-02 
1953	 0.075062257680215 
1954	 7.57773405954762E-02 
1955	 7.64410121204637E-02 
1956	 7.67997030711732E-02 
1957	 7.68666067626054E-02 
1958	 7.74697805987333E-02 
1959	 7.84048299143052E-02 
1960	 7.92940915149513E-02 
1961	 8.01866441049985E-02 
1962	 8.15118970295214E-02 
1963	 8.23212823219477E-02 
1964	 8.17270614742324E-02 
1965	 8.11950260298391E-02 
1966	 8.11533581567773E-02 
1967	 0.081363476817696 
1968	 8.15209676186882E-02 
1969	 8.17194885339928E-02 
1970	 8.21552545176469E-02 
1971	 8.23146290161357E-02 
1972	 0.082034438698802 
1973	 8.26086859533085E-02 
1974	 8.33548581744137E-02 
1975	 8.35719751252412E-02 
1976	 8.40108547154549E-02 
1977	 8.44094616811111E-02 
1978	 8.45399486469996E-02 
1979	 8.51494317621938E-02 
1980	 8.59236734695959E-02 
1981	 8.63242992065433E-02 
1982	 8.68671623942444E-02 
1983	 8.74649519099664E-02 
1984	 8.80685462670059E-02 
1985	 8.84106373912127E-02 
1986	 0.089046975756042 
1987	 8.96091648210065E-02 
1988	 8.97448918255901E-02 
1989	 9.01534720855234E-02 
1990	 9.06725081629482E-02 
1991	 9.09787901560088E-02 
1992	 9.14340169111317E-02 
1993	 9.18732305946641E-02 
1994	 9.20552650528714E-02 
1995	 9.23454046403358E-02 
1996	 9.26408254848085E-02 
1997	 9.30366685896046E-02 
1998	 9.36428532858342E-02 
1999	 9.44772021763373E-02 
2000	 9.53376302697403E-02 
2001	 9.61667473737454E-02 
2002	 9.66938882029467E-02 
2003	 9.70943557005355E-02 
2004	 9.78281885504603E-02 
2005	 0.098547393972364 
2006	 9.94590845712312E-02 
2007	 0.100595180891816 
2008	 0.101606210286769 
2009	 0.102631070969017 
2010	 0.103870483740929 
2011	 0.104418331394227 
2012	 0.10510816095112 
2013	 0.105892003754392 
2014	 0.105992594043277 
2015	 0.106413602881372 
2016	 0.106834272528835 
2017	 0.107036769041937 
2018	 0.107886518740476 
2019	 0.108620491430708 
2020	 0.109490019746701 
2021	 0.110164386678623 
2022	 0.110909098730551 
2023	 0.111491257749693 
2024	 0.112249873068389 
2025	 0.11319728853531 
2026	 0.113941268494504 
2027	 0.114338790944168 
2028	 0.114398850718251 
2029	 0.114761327464331 
2030	 0.115267175316981 
2031	 0.116091585647307 
2032	 0.116751136953375 
2033	 0.117540735511305 
2034	 0.118110538794286 
2035	 0.118805809407185 
2036	 0.119130323678025 
2037	 0.119799839391077 
2038	 0.12061239159781 
2039	 0.121071709073193 
2040	 0.121859303397446 
2041	 0.122629176890237 
2042	 0.123199003350117 
2043	 0.123962251904969 
2044	 0.124703686512653 
2045	 0.125359217182365 
2046	 0.125950436063169 
2047	 0.126660078717798 
2048	 0.127229989901057 
2049	 0.127845045202438 
2050	 0.128803601243816 
2051	 0.129661074005907 
2052	 0.130537088726749 
2053	 0.13149804873414 
2054	 0.132481093933879 
2055	 0.133459334228732 
2056	 0.134536930801078 
2057	 0.135199700667041 
2058	 0.13549177505195 
2059	 0.13611543696435 
2060	 0.136791864138722 
2061	 0.137230577214402 
2062	 0.137976398779787 
2063	 0.139100226396652 
2064	 0.139811834631697 
2065	 0.140567101650691 
2066	 0.141307928796593 
2067	 0.142070795576377 
2068	 0.142876986319096 
2069	 0.143598148986378 
2070	 0.144535832907446 
2071	 0.145415954323572 
2072	 0.146376552199815 
2073	 0.147335925873129 
2074	 0.148327271046358 
2075	 0.149268493324517 
2076	 0.150095534842722 
2077	 0.150825918035027 
2078	 0.151728779726326 
2079	 0.152336670904473 
2080	 0.152937616244528 
2081	 0.153574764957509 
2082	 0.154203372109272 
2083	 0.155154015868885 
2084	 0.156153395079629 
2085	 0.156753336418876 
2086	 0.157149675884696 
2087	 0.157892466795729 
2088	 0.158726848725006 
2089	 0.159540615772507 
2090	 0.160616101797688 
2091	 0.161675902929875 
2092	 0.162117602465217 
2093	 0.162520273355252 
2094	 0.162996086564955 
2095	 0.163504189027991 
2096	 0.16411632211723 
2097	 0.165051589432133 
2098	 0.166003613398628 
2099	 0.16679914345385 
2100	 0.167662576730287 
2101	 0.168249269064387 
2102	 0.169077994124448 
2103	 0.169927607812317 
2104	 0.170969195270589 
2105	 0.171939283258076 
2106	 0.173030235533124 
2107	 0.173784511927693 
2108	 0.174351516357449 
2109	 0.175191018769745 
2110	 0.17589186191857 
2111	 0.176528764674621 
2112	 0.177566537401331 
2113	 0.178428002793223 
2114	 0.179310813484425 
2115	 0.180271393293964 
2116	 0.180855090230527 
2117	 0.18150787584869 
2118	 0.181919378729409 
2119	 0.182646551436607 
2120	 0.183480994615005 
2121	 0.18449717187179 
2122	 0.185629964606881 
2123	 0.186436554377147 
2124	 0.18712065230063 
2125	 0.1877347059078 
2126	 0.188124275543879 
2127	 0.188667980900187 
2128	 0.189196134468265 
2129	 0.189847007567598 
2130	 0.190666979905884 
2131	 0.19144300760269 
2132	 0.192301985876535 
2133	 0.193176095897225 
2134	 0.193978878242386 
2135	 0.19466105061181 
2136	 0.195452595504065 
2137	 0.196304850290597 
2138	 0.19696573090943 
2139	 0.197500794514604 
2140	 0.198046869838386 
2141	 0.198475296761503 
2142	 0.19891386127072 
2143	 0.199589079889929 
2144	 0.200130045984193 
2145	 0.200497980369618 
2146	 0.200864143909395 
2147	 0.201183156511739 
2148	 0.201591871449988 
2149	 0.202153869768349 
2150	 0.202896398338525 
2151	 0.203494021221761 
2152	 0.204076034007522 
2153	 0.204557604036929 
2154	 0.205079098138521 
2155	 0.205088400032879 
2156	 0.205159699260438 
2157	 0.20528895384901 
2158	 0.205290056945896 
2159	 0.205609916743138 
2160	 0.205920741464523 
2161	 0.206307177622342 
2162	 0.206690703327328 
2163	 0.207291036351622 
2164	 0.208267367696835 
2165	 0.208889753312408 
2166	 0.209273285841613 
2167	 0.209465549086665 
2168	 0.20961350394381 
2169	 0.209327510729251 
2170	 0.20952913814471 
2171	 0.209958550666791 
2172	 0.210336788267806 
2173	 0.210771832889015 
2174	 0.210834070486435 
2175	 0.21077687486241 
2176	 0.210886906779005 
2177	 0.210799615650197 
2178	 0.211010045913309 
2179	 0.211049350661042 
2180	 0.210670581559989 
2181	 0.210797986483985 
2182	 0.210900579072945 
2183	 0.211145765434691 
2184	 0.211925666529214 
2185	 0.212146965726505 
2186	 0.212128323444806 
2187	 0.212539966452191 
2188	 0.213160415937296 
2189	 0.213515630659691 
2190	 0.214036344957839 
2191	 0.214642603309654 
2192	 0.214522910666683 
2193	 0.214200131807619 
2194	 0.213901567582746 
2195	 0.213722626489495 
2196	 0.2140455415104 
2197	 0.214445577264394 
2198	 0.215000842704604 
2199	 0.215451732995028 
2200	 0.215589995800547 
2201	 0.215401301125952 
2202	 0.214978240281782 
2203	 0.214901003397642 
2204	 0.215087928669474 
2205	 0.215048082554277 
2206	 0.214931883923667 
2207	 0.21497218524155 
2208	 0.21498819086888 
2209	 0.21462923687722 
2210	 0.214863864899398 
2211	 0.215623814095549 
2212	 0.215939897305698 
2213	 0.216237742930508 
2214	 0.21657314341044 
2215	 0.21619324235342 
2216	 0.215798492175154 
2217	 0.215541871098983 
2218	 0.215296217550656 
2219	 0.2153478764028 
2220	 0.215354732823887 
2221	 0.215734114337312 
2222	 0.215766637466527 
2223	 0.215538589848425 
2224	 0.215558796388723 
2225	 0.215066310586994 
2226	 0.214836446386182 
2227	 0.214460623177765 
2228	 0.213763676782411 
2229	 0.213324099039031 
2230	 0.212765611893061 
2231	 0.212252664819278 
2232	 0.211683714254818 
2233	 0.211515820259283 
2234	 0.211694162907451 
2235	 0.211418391497494 
2236	 0.21129277118881 
2237	 0.211614595126365 
2238	 0.211049974703157 
2239	 0.210581326417117 
2240	 0.210628115716727 
2241	 0.210531501588797 
2242	 0.210175759273239 
2243	 0.209937777909893 
2244	 0.209690916999053 
2245	 0.20876968044633 
2246	 0.208038881681588 
2247	 0.207700789090575 
2248	 0.207043042531325 
2249	 0.206406222142055 
2250	 0.205928358768265 
2251	 0.20527334595264 
2252	 0.204644116965452 
2253	 0.204177232896816 
2254	 0.203904000969276 
2255	 0.20400709269257 
2256	 0.203886744223925 
2257	 0.203849160432587 
2258	 0.203309232920494 
2259	 0.202331317275787 
2260	 0.201156362857968 
2261	 0.199951590100785 
2262	 0.199140124721778 
2263	 0.198573880510848 
2264	 0.197767991261701 
2265	 0.196937157243105 
2266	 0.196640889584622 
2267	 0.196587736312935 
2268	 0.196594746484276 
2269	 0.197052728901341 
2270	 0.196562481630558 
2271	 0.195915763626052 
2272	 0.195547953936902 
2273	 0.194421812118389 
2274	 0.19373858578761 
2275	 0.192798101896028 
2276	 0.191836808822838 
2277	 0.191186053466547 
2278	 0.190180583883695 
2279	 0.189535132702169 
2280	 0.189281049092149 
2281	 0.188956544813492 
2282	 0.188237652847284 
2283	 0.187661365931314 
2284	 0.1873408963047 
2285	 0.187255022272493 
2286	 0.18708948163074 
2287	 0.187326491936313 
2288	 0.187362483775358 
2289	 0.187013954522066 
2290	 0.18609504583015 
2291	 0.185335749705103 
2292	 0.184319026621985 
2293	 0.183447972287641 
2294	 0.182889232696991 
2295	 0.181615889489079 
2296	 0.181684856658916 
2297	 0.181823948508919 
2298	 0.181209273523087 
2299	 0.182057893443869 
2300	 0.182062484467249 
2301	 0.180651036037607 
2302	 0.179151502413559 
2303	 0.176927137451867 
2304	 0.174938020291769 
2305	 0.173055579803463 
2306	 0.171560529210494 
2307	 0.171404989484176 
2308	 0.171229872847753 
2309	 0.171086215246374 
2310	 0.172056651237339 
2311	 0.172824026257226 
2312	 0.171820565385009 
2313	 0.170587453333425 
2314	 0.169377712212069 
2315	 0.167894073678612 
2316	 0.167575711304508 
2317	 0.16808143875042 
2318	 0.168113603403179 
2319	 0.167597394810321 
2320	 0.166615747120597 
2321	 0.165399008401931 
2322	 0.1633019094397 
2323	 0.162624826405118 
2324	 0.162547734469667 
2325	 0.161874029219729 
2326	 0.161332045263296 
2327	 0.160947026073343 
2328	 0.160163130229222 
2329	 0.160114032607649 
2330	 0.161024271439668 
2331	 0.160699413942692 
2332	 0.159361305710339 
2333	 0.158379360834851 
2334	 0.157343432490758 
2335	 0.157588539905885 
2336	 0.158154065220533 
2337	 0.157039024290144 
2338	 0.15569189271873 
2339	 0.154218763433613 
2340	 0.152292522996683 
2341	 0.150244684980898 
2342	 0.148371512453082 
2343	 0.147822074818166 
2344	 0.147847304640881 
2345	 0.148518149284211 
2346	 0.150951726883263 
2347	 0.151836092572119 
2348	 0.150689964883961 
2349	 0.150581760240197 
2350	 0.149916364892786 
2351	 0.147951474819417 
2352	 0.146299870004375 
2353	 0.144623956563021 
2354	 0.142440346995831 
2355	 0.140188366753668 
2356	 0.139312211184572 
2357	 0.140481964709593 
2358	 0.141459554883723 
2359	 0.141853397079199 
2360	 0.141480283051406 
2361	 0.139503976877449 
2362	 0.138178403171286 
2363	 0.138268519545669 
2364	 0.138616954049477 
2365	 0.139248604102825 
2366	 0.139079337682723 
2367	 0.137917689273567 
2368	 0.138681122593479 
2369	 0.139184572043095 
2370	 0.138701125447687 
2371	 0.138508276414933 
2372	 0.13739796949065 
2373	 0.134323583680847 
2374	 0.133520540263215 
2375	 0.133314542617825 
2376	 0.1327463102728 
2377	 0.133108590883916 
2378	 0.132858662115237 
2379	 0.131730585142281 
2380	 0.131261391962957 
2381	 0.131453589193732 
2382	 0.131363756148952 
2383	 0.132431381656467 
2384	 0.131575068911717 
2385	 0.129317794395804 
2386	 0.127720040970673 
2387	 0.123467400787238 
2388	 0.122034295533859 
2389	 0.123328471536195 
2390	 0.123747558229444 
2391	 0.12511678751535 
2392	 0.125465701028546 
2393	 0.124992525639072 
2394	 0.124913300050524 
2395	 0.125117626870689 
2396	 0.125388413431654 
2397	 0.126650118993255 
2398	 0.126471298764896 
2399	 0.124230353056515 
2400	 0.122771556913479 
2401	 0.121109652045454 
2402	 0.119645815637359 
2403	 0.118214818277677 
2404	 0.118159654154186 
2405	 0.11872927326481 
2406	 0.117426688042539 
2407	 0.118364318280125 
2408	 0.120990004028693 
2409	 0.119731397797952 
2410	 0.117948867070115 
2411	 0.116129416768475 
2412	 0.113747213683019 
2413	 0.113287079383662 
2414	 0.114859784841449 
2415	 0.115464357552466 
2416	 0.112281031328511 
2417	 0.112082046628646 
2418	 0.114967015333852 
2419	 0.115026440915959 
2420	 0.115361701886862 
2421	 0.114292535983373 
2422	 0.111870704780671 
2423	 0.112530291290687 
2424	 0.113282455724402 
2425	 0.114263218301495 
2426	 0.11342983134117 
2427	 0.109238464616226 
2428	 0.107950430699254 
2429	 0.106495359936806 
2430	 0.106318015746982 
2431	 0.107984767035733 
2432	 0.107584288324505 
2433	 0.10542727187877 
2434	 0.103722332716427 
2435	 0.101404377627683 
2436	 0.101258793377442 
2437	 0.104795751374991 
2438	 0.105411168746181 
2439	 0.105856779256288 
2440	 0.106154682494602 
2441	 0.10202639513989 
2442	 0.102106783962881 
2443	 0.106976775123064 
2444	 0.105850824122745 
2445	 0.101701398718977 
2446	 0.100351704040325 
2447	 9.58978933364663E-02 
2448	 9.52858370611938E-02 
2449	 0.102813349403599 
2450	 0.102217829997363 
2451	 9.58926724685845E-02 
2452	 0.095043871043187 
2453	 9.34890490345035E-02 
2454	 9.38372495950509E-02 
2455	 0.099449402725821 
2456	 0.099474325600175 
2457	 9.62876067516671E-02 
2458	 9.54894957638979E-02 
2459	 9.24673313740629E-02 
2460	 9.37077078413961E-02 
2461	 0.101696959243022 
2462	 0.101593733314176 
2463	 0.098477465445598 
2464	 9.58088010433808E-02 
2465	 8.41394702699773E-02 
2466	 8.06673446100934E-02 
2467	 0.084986881657103 
2468	 8.71275055626852E-02 
2469	 9.24155513761975E-02 
2470	 9.50799975403055E-02 
2471	 9.89276914103083E-02 
2472	 9.88878596348103E-02 
2473	 0.092714243996351 
2474	 9.01192791754137E-02 
2475	 8.23521642261911E-02 
2476	 7.97658413204289E-02 
2477	 8.95649167392165E-02 
2478	 9.08393419392377E-02 
2479	 8.87337410274371E-02 
2480	 8.76559324676669E-02 
2481	 7.67411876770155E-02 
2482	 7.09293488008543E-02 
2483	 7.61279178576437E-02 
2484	 6.73532198347089E-02 
2485	 5.06503482555401E-02 
2486	 2.18966620081539E-02 
2487	 4.58677978959953E-03 
2488	-2.01750854933626E-03 
2489	-7.6491275957903E-03 
2490	 0.026144919817528 
2491	 4.70198842886464E-02 
2492	 8.42653543710909E-02 
2493	 0.135571614217897 
2494	 0.131591486363802 
2495	 0.114177256926313 
2496	 6.89379441493743E-02 
2497	 3.11671786202064E-02 
2498	 3.44365314653741E-02 
2499	 2.76647160529629E-02 
2500	 3.49936247536884E-02 
