Wavelength	ref00022.asd
350	 4.10587226046428E-02 
351	 4.13372596702535E-02 
352	 4.22789543755273E-02 
353	 4.19132176352118E-02 
354	 0.041584028999581 
355	 4.17779852885536E-02 
356	 4.23361212975476E-02 
357	 4.21230738735428E-02 
358	 4.20377873284343E-02 
359	 4.21135704275569E-02 
360	 4.22053508613001E-02 
361	 0.042665476310056 
362	 0.042867005369115 
363	 0.042704950619797 
364	 4.24713971764129E-02 
365	 4.24816894201243E-02 
366	 4.23923341903754E-02 
367	 4.20667539462612E-02 
368	 4.17460600960665E-02 
369	 4.20578513126782E-02 
370	 4.24753752218916E-02 
371	 4.25232991200262E-02 
372	 0.042808716037201 
373	 0.043029752532998 
374	 4.30565473170502E-02 
375	 4.29256132529617E-02 
376	 4.31125132251689E-02 
377	 4.34863203340051E-02 
378	 4.39284650941327E-02 
379	 4.44089105557678E-02 
380	 4.45994088777352E-02 
381	 4.50237283460612E-02 
382	 4.59426051428294E-02 
383	 4.64073116644184E-02 
384	 4.70409063629633E-02 
385	 4.78413523844633E-02 
386	 4.85557854780484E-02 
387	 4.92022313377244E-02 
388	 5.02254080481723E-02 
389	 5.14288517449095E-02 
390	 5.20057237095746E-02 
391	 5.33751999723848E-02 
392	 5.50277821265341E-02 
393	 5.65354635038616E-02 
394	 5.84550345787217E-02 
395	 6.06823272177445E-02 
396	 6.29446982851209E-02 
397	 6.50433600246855E-02 
398	 0.067463814586795 
399	 7.00442730891395E-02 
400	 7.27147530586252E-02 
401	 7.55209337635126E-02 
402	 7.84853987194101E-02 
403	 8.18167898444301E-02 
404	 8.56247875147986E-02 
405	 8.98269556240961E-02 
406	 9.42239342073054E-02 
407	 9.89147359545117E-02 
408	 0.104059524495965 
409	 0.109606789111508 
410	 0.115317818602246 
411	 0.121071469452365 
412	 0.126868734592104 
413	 0.132579463575723 
414	 0.138322373979424 
415	 0.144152332356631 
416	 0.149918638633372 
417	 0.155568979984274 
418	 0.161135089556869 
419	 0.166675064657397 
420	 0.172098269338942 
421	 0.177412222410108 
422	 0.182522732555137 
423	 0.18727814347793 
424	 0.19175128875403 
425	 0.195950932218093 
426	 0.199855172951289 
427	 0.203374795627451 
428	 0.206812718946961 
429	 0.21020047687134 
430	 0.21343556801108 
431	 0.216274053411201 
432	 0.219205810603875 
433	 0.222154020833899 
434	 0.224559608832173 
435	 0.226646632545221 
436	 0.228380539347558 
437	 0.2297459488216 
438	 0.230769142682742 
439	 0.231948788204388 
440	 0.233141995572415 
441	 0.234053083973936 
442	 0.235004368181071 
443	 0.235811202111783 
444	 0.236413197185262 
445	 0.236896985296224 
446	 0.237233951975187 
447	 0.237496697441347 
448	 0.237760462709514 
449	 0.238100729249861 
450	 0.238202592013311 
451	 0.238125430460768 
452	 0.238060125930801 
453	 0.237881011253025 
454	 0.237535490681703 
455	 0.237130185875843 
456	 0.236940761538313 
457	 0.236797501330812 
458	 0.236511225003446 
459	 0.236007228077119 
460	 0.235538518157213 
461	 0.235083868456836 
462	 0.23460897996864 
463	 0.234062092971876 
464	 0.233363391372052 
465	 0.232541509353949 
466	 0.231673714821691 
467	 0.230889207553275 
468	 0.230083186682933 
469	 0.229247789869677 
470	 0.22840922150061 
471	 0.227624558516506 
472	 0.226785830559117 
473	 0.225854744845995 
474	 0.224856209254954 
475	 0.223875609146973 
476	 0.222845580014669 
477	 0.22173876778201 
478	 0.220634907279279 
479	 0.219694122248482 
480	 0.218767921782194 
481	 0.217667046203939 
482	 0.216638961576309 
483	 0.215405118306258 
484	 0.213992321179501 
485	 0.212740991372958 
486	 0.211378197374315 
487	 0.210070752761281 
488	 0.208970804351357 
489	 0.207974981694754 
490	 0.207031370634305 
491	 0.205939626577209 
492	 0.204537208455872 
493	 0.203324268626583 
494	 0.202186432224259 
495	 0.201058878240214 
496	 0.19999381093282 
497	 0.198839964846927 
498	 0.19766525206642 
499	 0.196548959026539 
500	 0.195409164731265 
501	 0.194263491869105 
502	 0.193164826793771 
503	 0.192171959690625 
504	 0.191217706626857 
505	 0.190259065544686 
506	 0.189289205404349 
507	 0.188355509437712 
508	 0.187389393431236 
509	 0.186503905278141 
510	 0.185785973723031 
511	 0.184946508276813 
512	 0.184217920245074 
513	 0.183579262980224 
514	 0.182793012039179 
515	 0.182029067807706 
516	 0.181353494721654 
517	 0.18078187358032 
518	 0.180233914776373 
519	 0.179834972397129 
520	 0.179505847832112 
521	 0.179120202644777 
522	 0.17881649049985 
523	 0.17846962906885 
524	 0.178085116835062 
525	 0.17783136741938 
526	 0.17749351434731 
527	 0.17719244357601 
528	 0.177044979237803 
529	 0.176927438409624 
530	 0.176803522019676 
531	 0.176657187208577 
532	 0.176488912758057 
533	 0.176295528994372 
534	 0.176205621412631 
535	 0.176213623897704 
536	 0.176071212469101 
537	 0.175984903220135 
538	 0.175988079359241 
539	 0.176030739736271 
540	 0.175923463435636 
541	 0.175971145283894 
542	 0.1761547783829 
543	 0.176185869710513 
544	 0.176350057133587 
545	 0.176591236318458 
546	 0.176838129229892 
547	 0.177113854764228 
548	 0.177437415935966 
549	 0.177786038450346 
550	 0.178132017384975 
551	 0.178548770888366 
552	 0.178948447996272 
553	 0.179326790752963 
554	 0.179789954424022 
555	 0.180266213501866 
556	 0.180742099386037 
557	 0.181236669257868 
558	 0.181835856083248 
559	 0.182402573748082 
560	 0.182940676260723 
561	 0.183544226082349 
562	 0.184143681423121 
563	 0.184733167166458 
564	 0.185349360184728 
565	 0.186082660227572 
566	 0.186908325316131 
567	 0.187753548060629 
568	 0.188549106506203 
569	 0.189336254508316 
570	 0.190120510676951 
571	 0.190972742951793 
572	 0.192016919057686 
573	 0.193162679144465 
574	 0.194441922625455 
575	 0.195880171902683 
576	 0.197389997858533 
577	 0.199080158956376 
578	 0.200956738564821 
579	 0.202956102380585 
580	 0.204925102598776 
581	 0.206808000370784 
582	 0.208639761021453 
583	 0.210556998878149 
584	 0.212597001847495 
585	 0.214746386883399 
586	 0.216960855351035 
587	 0.219228396103556 
588	 0.221343495191377 
589	 0.223408929523107 
590	 0.225717692484458 
591	 0.228312578017406 
592	 0.231141350165237 
593	 0.234190238279461 
594	 0.237415474006615 
595	 0.240719204798792 
596	 0.244039112148089 
597	 0.247370779064875 
598	 0.250785752367691 
599	 0.254289566386861 
600	 0.257817962722284 
601	 0.261238426854302 
602	 0.264639667713349 
603	 0.267962270857197 
604	 0.271154696867239 
605	 0.274289615511286 
606	 0.27729552305321 
607	 0.280158013450697 
608	 0.28288281274584 
609	 0.285485051126081 
610	 0.288030657571792 
611	 0.290513718683537 
612	 0.292845610973847 
613	 0.295064550285022 
614	 0.297193579713481 
615	 0.299229360197396 
616	 0.30110154815708 
617	 0.302961230430178 
618	 0.304845915244715 
619	 0.306726388059459 
620	 0.308481174339281 
621	 0.310088845586476 
622	 0.311571017171346 
623	 0.312997817918029 
624	 0.314311606339183 
625	 0.315544571032676 
626	 0.316752091047958 
627	 0.317951443733908 
628	 0.319088563056101 
629	 0.320124160439739 
630	 0.321030443701227 
631	 0.321894814454319 
632	 0.322730086766968 
633	 0.32350848592825 
634	 0.324141076346652 
635	 0.324762046112263 
636	 0.325380704507626 
637	 0.325941981751638 
638	 0.326428293776934 
639	 0.326782066322719 
640	 0.327023731487024 
641	 0.32726505750989 
642	 0.327601587720023 
643	 0.327902681532695 
644	 0.328068074943439 
645	 0.328279099671894 
646	 0.328530424950985 
647	 0.328757592942549 
648	 0.328884376138481 
649	 0.329095613494711 
650	 0.329430003228593 
651	 0.329809229185973 
652	 0.330017588964769 
653	 0.330412147054414 
654	 0.33085099862068 
655	 0.331074215037955 
656	 0.330927007541255 
657	 0.330899030494599 
658	 0.331196427176201 
659	 0.331703247820733 
660	 0.332008945550814 
661	 0.332202654964034 
662	 0.332386664233926 
663	 0.332570372352526 
664	 0.332646684094404 
665	 0.332688424971019 
666	 0.332821826094455 
667	 0.333082484767737 
668	 0.333307710530646 
669	 0.333491778211219 
670	 0.33377029756295 
671	 0.3339158278578 
672	 0.334047120366116 
673	 0.334281216040911 
674	 0.334594419397422 
675	 0.334905568709447 
676	 0.33524070717243 
677	 0.335641006935006 
678	 0.335966203839009 
679	 0.336320976853205 
680	 0.336724368848624 
681	 0.337095236423391 
682	 0.337554650670843 
683	 0.338101879127725 
684	 0.338732634583423 
685	 0.339527793331011 
686	 0.340228728489092 
687	 0.340834141755407 
688	 0.341426338205335 
689	 0.342180867143925 
690	 0.342919521242375 
691	 0.343692928813965 
692	 0.344740918602416 
693	 0.345855018376137 
694	 0.34711282967319 
695	 0.348628767444216 
696	 0.350491892829379 
697	 0.352508885302677 
698	 0.354658695938022 
699	 0.356979016582136 
700	 0.359381775236976 
701	 0.362052361645925 
702	 0.364966751981859 
703	 0.36782680528777 
704	 0.370919778152337 
705	 0.374092455878867 
706	 0.377226315444321 
707	 0.380445271990587 
708	 0.383804138286263 
709	 0.38719983236139 
710	 0.390480985530835 
711	 0.393921005091612 
712	 0.397546933823096 
713	 0.401251783364953 
714	 0.404811009061477 
715	 0.408393323597826 
716	 0.411891509198504 
717	 0.415307805467545 
718	 0.418747531340457 
719	 0.422481827474673 
720	 0.426587511495421 
721	 0.430927992687325 
722	 0.434992111632869 
723	 0.438615971888076 
724	 0.442116253283754 
725	 0.445844478579881 
726	 0.449478704789035 
727	 0.452996651377406 
728	 0.456470960335683 
729	 0.459727835702761 
730	 0.462920284560062 
731	 0.46607522688925 
732	 0.469174019257663 
733	 0.472143910084701 
734	 0.474832076692139 
735	 0.477303140261607 
736	 0.479735712186573 
737	 0.482059311205702 
738	 0.484207568405855 
739	 0.48621607323616 
740	 0.488245586678686 
741	 0.490054955745862 
742	 0.491639127069854 
743	 0.493072199607554 
744	 0.494425686033123 
745	 0.495691896877741 
746	 0.496830564846082 
747	 0.497793497278544 
748	 0.498738941356863 
749	 0.499525803716057 
750	 0.500175222117879 
751	 0.501051207733849 
752	 0.501684798882816 
753	 0.5021754262068 
754	 0.502692295370307 
755	 0.50300405372647 
756	 0.503538026667443 
757	 0.504247450568547 
758	 0.504835996937429 
759	 0.505422335063636 
760	 0.506222308852637 
761	 0.507349246697258 
762	 0.50824521899441 
763	 0.508076394302811 
764	 0.507576249885319 
765	 0.507268646546965 
766	 0.506925414816115 
767	 0.506766114980502 
768	 0.506704888564112 
769	 0.506627953991986 
770	 0.506675859343546 
771	 0.506719911611855 
772	 0.506772116983447 
773	 0.50694987529793 
774	 0.507044808452042 
775	 0.507102048098223 
776	 0.507171823872661 
777	 0.507242273020145 
778	 0.507355754160357 
779	 0.50748079538946 
780	 0.507580854764742 
781	 0.507693623486981 
782	 0.507709895810237 
783	 0.507753821219995 
784	 0.508010018470616 
785	 0.508158378523342 
786	 0.508269286450253 
787	 0.508340802095327 
788	 0.508278405379122 
789	 0.508462284320755 
790	 0.508616740663114 
791	 0.508587994915747 
792	 0.508737895464333 
793	 0.509013234336986 
794	 0.50923668785882 
795	 0.509286776419198 
796	 0.509450939165991 
797	 0.509617833687334 
798	 0.509775780027567 
799	 0.509961633478212 
800	 0.510094288937368 
801	 0.510139558023012 
802	 0.510155137590385 
803	 0.51028807785059 
804	 0.510496449194051 
805	 0.510772615517546 
806	 0.511046614523008 
807	 0.511114756648999 
808	 0.511232328726608 
809	 0.51132572097298 
810	 0.511273078357896 
811	 0.511202428410033 
812	 0.511083834575125 
813	 0.510855251027276 
814	 0.510468894376717 
815	 0.510072362341849 
816	 0.509977666164241 
817	 0.51025328968252 
818	 0.510664174151308 
819	 0.511016564739651 
820	 0.511441160379322 
821	 0.511796327009241 
822	 0.511374240284826 
823	 0.511168600099485 
824	 0.511673563776286 
825	 0.512736912320665 
826	 0.51304478292713 
827	 0.512823083476406 
828	 0.512516019502644 
829	 0.512588940352545 
830	 0.512852959889017 
831	 0.513040325258768 
832	 0.513135471700425 
833	 0.513326255399541 
834	 0.513735872227248 
835	 0.51407870776506 
836	 0.51425710988933 
837	 0.51445612230434 
838	 0.514746972442659 
839	 0.515055484018761 
840	 0.515283539413893 
841	 0.515354870230701 
842	 0.51542597182675 
843	 0.515541305730477 
844	 0.515712429583479 
845	 0.515971235056488 
846	 0.516293753637229 
847	 0.51651492975635 
848	 0.516489455320157 
849	 0.516470579800024 
850	 0.516582997605268 
851	 0.516859822523915 
852	 0.517199973421002 
853	 0.517089710734902 
854	 0.516804689625162 
855	 0.516852509137782 
856	 0.51774294433817 
857	 0.518405395203363 
858	 0.518489932222221 
859	 0.518214478249869 
860	 0.518400745464419 
861	 0.518531459889265 
862	 0.518636274553951 
863	 0.518755311377829 
864	 0.518611148988993 
865	 0.518583236179982 
866	 0.518578154207863 
867	 0.518541979744305 
868	 0.519260110304789 
869	 0.519711418565829 
870	 0.519733899000524 
871	 0.5196412476737 
872	 0.519622112254949 
873	 0.519824161489264 
874	 0.520075274800714 
875	 0.520064324842933 
876	 0.520232620901261 
877	 0.520388739624652 
878	 0.520446318425678 
879	 0.520487896164555 
880	 0.520553722245973 
881	 0.520510086092965 
882	 0.520472760012041 
883	 0.520872059134832 
884	 0.520905256554538 
885	 0.520821032899923 
886	 0.52086476374789 
887	 0.520866580226776 
888	 0.520818858216971 
889	 0.520968290095531 
890	 0.521308841790383 
891	 0.521047682069765 
892	 0.520936294310861 
893	 0.520866098364058 
894	 0.520505583303104 
895	 0.519778216163788 
896	 0.519145837031792 
897	 0.518662635783649 
898	 0.518270088813891 
899	 0.518331308339111 
900	 0.518587203632288 
901	 0.519004892026647 
902	 0.519672784435104 
903	 0.520640187809335 
904	 0.521259536403999 
905	 0.521251879542364 
906	 0.520674939315958 
907	 0.519785978973815 
908	 0.518981511773428 
909	 0.518657989426769 
910	 0.519052291847811 
911	 0.519572245841711 
912	 0.519573117511748 
913	 0.519276355065123 
914	 0.519574386914424 
915	 0.519517322569263 
916	 0.519398829763966 
917	 0.51959581072559 
918	 0.520272504282919 
919	 0.520329408129951 
920	 0.520482754274814 
921	 0.520946057321267 
922	 0.520964918803057 
923	 0.520567820146755 
924	 0.520381607172766 
925	 0.52040588012692 
926	 0.519559349202433 
927	 0.51887366825109 
928	 0.517919969059349 
929	 0.515979399234515 
930	 0.512526441538319 
931	 0.510192749560742 
932	 0.508536384759204 
933	 0.506671796677404 
934	 0.504910666436652 
935	 0.504608566288851 
936	 0.505544737428481 
937	 0.507147392968067 
938	 0.509310577040393 
939	 0.51032970924652 
940	 0.510461850095401 
941	 0.510086194984967 
942	 0.508837476073069 
943	 0.506619996166816 
944	 0.504606201980256 
945	 0.503723442795802 
946	 0.50360152371461 
947	 0.504567203397251 
948	 0.504963398920109 
949	 0.503978698411072 
950	 0.503521489682163 
951	 0.502666881099313 
952	 0.501599476460893 
953	 0.500761699592242 
954	 0.500533411932059 
955	 0.499915425363471 
956	 0.499340956292938 
957	 0.498952983064808 
958	 0.497653155605593 
959	 0.496920248724959 
960	 0.49737644950399 
961	 0.498574404521022 
962	 0.498756316313645 
963	 0.498802269316746 
964	 0.498825600612312 
965	 0.499062405827324 
966	 0.500127841117576 
967	 0.501074530311146 
968	 0.501605358648038 
969	 0.501568412241958 
970	 0.500882264817583 
971	 0.501707694490305 
972	 0.502125035447684 
973	 0.501150403454061 
974	 0.500344340310479 
975	 0.499712674463804 
976	 0.500032788818426 
977	 0.501317079661153 
978	 0.502481911540428 
979	 0.502892278552894 
980	 0.50297914973722 
981	 0.503414761074038 
982	 0.504591267635491 
983	 0.504292854042693 
984	 0.504158599960788 
985	 0.504522840770918 
986	 0.504322685072746 
987	 0.505448010740388 
988	 0.505724518095501 
989	 0.505062776433401 
990	 0.505206358241687 
991	 0.506344677625941 
992	 0.506977111953359 
993	 0.507200342024954 
994	 0.507801300947392 
995	 0.506772549663968 
996	 0.507972077527597 
997	 0.509130973685142 
998	 0.507035963404617 
999	 0.508276151019123 
1000	 0.510295954151411 
1001	 0.488686845120062 
1002	 0.489014775958218 
1003	 0.489362706860415 
1004	 0.489703054667368 
1005	 0.490118792849349 
1006	 0.490607188054859 
1007	 0.490994614564842 
1008	 0.4913925268597 
1009	 0.491827716546797 
1010	 0.492232223813734 
1011	 0.492638660094839 
1012	 0.493146595470833 
1013	 0.493545126155752 
1014	 0.493820222594167 
1015	 0.494176611017687 
1016	 0.494564329133627 
1017	 0.494921137000547 
1018	 0.495322208523624 
1019	 0.495774565301239 
1020	 0.496220655861652 
1021	 0.496715657420722 
1022	 0.497158442261237 
1023	 0.497590085070118 
1024	 0.498021862133595 
1025	 0.498471111793703 
1026	 0.498869480605365 
1027	 0.499277347509267 
1028	 0.499698247150568 
1029	 0.500081185451737 
1030	 0.500516694384787 
1031	 0.500943689733828 
1032	 0.501398948086096 
1033	 0.501855161398866 
1034	 0.50231787435888 
1035	 0.502731901165839 
1036	 0.503108418205308 
1037	 0.503553870284575 
1038	 0.504030468632227 
1039	 0.504456223546384 
1040	 0.504908973132294 
1041	 0.505347108777583 
1042	 0.505698543615504 
1043	 0.506111404648422 
1044	 0.506338343909841 
1045	 0.506540808680894 
1046	 0.506931864563553 
1047	 0.507186477855535 
1048	 0.507447896800081 
1049	 0.507749967575745 
1050	 0.507998286315765 
1051	 0.50813768246002 
1052	 0.508234059299364 
1053	 0.508422991229467 
1054	 0.508664416937698 
1055	 0.508765262720861 
1056	 0.50884228312631 
1057	 0.508971689057723 
1058	 0.50901290430783 
1059	 0.508912884230973 
1060	 0.508898745483973 
1061	 0.508943735542659 
1062	 0.508899031943 
1063	 0.508851884460006 
1064	 0.50877327593465 
1065	 0.50867633713263 
1066	 0.50846635095477 
1067	 0.508323416224297 
1068	 0.508307877005353 
1069	 0.508193652356471 
1070	 0.508077006461361 
1071	 0.507973207778856 
1072	 0.507678893094012 
1073	 0.507435298928153 
1074	 0.507305163592108 
1075	 0.50716604932459 
1076	 0.5070546416329 
1077	 0.506876803000549 
1078	 0.506588947225127 
1079	 0.506302355821378 
1080	 0.506019745746903 
1081	 0.505771304718463 
1082	 0.505593902499852 
1083	 0.505461216535693 
1084	 0.505274288484924 
1085	 0.505121689564921 
1086	 0.504869357828448 
1087	 0.504575613806519 
1088	 0.50431490200729 
1089	 0.503908098896098 
1090	 0.503618439086894 
1091	 0.503459669207855 
1092	 0.503219127342124 
1093	 0.502955930424624 
1094	 0.502690815301339 
1095	 0.50235479243337 
1096	 0.501969798524018 
1097	 0.501472492358501 
1098	 0.501061941313526 
1099	 0.50065147762123 
1100	 0.500220161362985 
1101	 0.499884004336117 
1102	 0.499634708025172 
1103	 0.499249823357521 
1104	 0.498854833907389 
1105	 0.49843862185521 
1106	 0.49785740365438 
1107	 0.49735667468759 
1108	 0.496846921725595 
1109	 0.496273363945292 
1110	 0.495698554236437 
1111	 0.495018289252295 
1112	 0.494162224231073 
1113	 0.493421215025453 
1114	 0.492644025044197 
1115	 0.491804171596626 
1116	 0.491038002780026 
1117	 0.490045976744452 
1118	 0.488989845034134 
1119	 0.487938451870557 
1120	 0.486927709095071 
1121	 0.48628043784496 
1122	 0.485791750333683 
1123	 0.48532777755867 
1124	 0.484958638037164 
1125	 0.484552875384783 
1126	 0.484045607796866 
1127	 0.483419789910601 
1128	 0.482930438070133 
1129	 0.482598268270535 
1130	 0.482013914858786 
1131	 0.481487094203104 
1132	 0.480718549209787 
1133	 0.479743655356964 
1134	 0.478694410656776 
1135	 0.477706905925054 
1136	 0.476802636212706 
1137	 0.475833247714207 
1138	 0.474751109393258 
1139	 0.473341755664558 
1140	 0.471740800478215 
1141	 0.470173078578315 
1142	 0.468435902756386 
1143	 0.466781287392067 
1144	 0.465142155702153 
1145	 0.463582386019745 
1146	 0.461901528272409 
1147	 0.460541903549249 
1148	 0.459398051758254 
1149	 0.458369234868962 
1150	 0.457489150460067 
1151	 0.45684186254663 
1152	 0.456435886870074 
1153	 0.456072684852718 
1154	 0.455837013447989 
1155	 0.455674299521317 
1156	 0.455463699386364 
1157	 0.455307149425765 
1158	 0.455235485298229 
1159	 0.45527644233811 
1160	 0.45529501965692 
1161	 0.455357639774695 
1162	 0.455397935325638 
1163	 0.455434524844631 
1164	 0.455474665963662 
1165	 0.455527247044979 
1166	 0.45558265868618 
1167	 0.455642013851146 
1168	 0.455716831765516 
1169	 0.455847416029376 
1170	 0.455871437958751 
1171	 0.45587698836462 
1172	 0.455829864999288 
1173	 0.455760051402634 
1174	 0.455792329634822 
1175	 0.455844573348334 
1176	 0.455850878674524 
1177	 0.455847562543246 
1178	 0.455808022526666 
1179	 0.455738254586549 
1180	 0.45560696369166 
1181	 0.455594635151652 
1182	 0.455624492019056 
1183	 0.455623831642793 
1184	 0.455710660236505 
1185	 0.455724350176576 
1186	 0.455620038155084 
1187	 0.455586480529924 
1188	 0.455579408486202 
1189	 0.455606345639581 
1190	 0.455597814734019 
1191	 0.455599019426948 
1192	 0.455537905591033 
1193	 0.455418990184875 
1194	 0.455352379226897 
1195	 0.455216860969027 
1196	 0.455238577392906 
1197	 0.455390786688867 
1198	 0.45546865602404 
1199	 0.455618882406333 
1200	 0.455716946214107 
1201	 0.45569696851325 
1202	 0.455800299613851 
1203	 0.455979875706257 
1204	 0.456137822981206 
1205	 0.456331568182696 
1206	 0.456526413336119 
1207	 0.456710875771092 
1208	 0.456904653342608 
1209	 0.457089682363627 
1210	 0.457355690901554 
1211	 0.457559507777623 
1212	 0.457791309176055 
1213	 0.458048983682366 
1214	 0.458346387917382 
1215	 0.458590341544135 
1216	 0.458839331968982 
1217	 0.459079941784247 
1218	 0.459280353346521 
1219	 0.459513229241436 
1220	 0.459787048225448 
1221	 0.460011728172598 
1222	 0.460215477640693 
1223	 0.460416092843384 
1224	 0.460588208795676 
1225	 0.460775426583312 
1226	 0.460932032285688 
1227	 0.46115062542003 
1228	 0.461396357082738 
1229	 0.461672706927948 
1230	 0.461948056212925 
1231	 0.462242281405542 
1232	 0.462502708152913 
1233	 0.462720601977436 
1234	 0.462977896436697 
1235	 0.46325263426358 
1236	 0.463512032164534 
1237	 0.463793928025559 
1238	 0.464030637910891 
1239	 0.464252735709016 
1240	 0.464450791111684 
1241	 0.464609338065743 
1242	 0.464777236825356 
1243	 0.464901802001429 
1244	 0.465077126884887 
1245	 0.46528425101659 
1246	 0.46548047789219 
1247	 0.465670987066827 
1248	 0.465910891814853 
1249	 0.46624004295104 
1250	 0.466464515577013 
1251	 0.466640109609488 
1252	 0.46686173373393 
1253	 0.467055299633743 
1254	 0.467139874985285 
1255	 0.46735582469935 
1256	 0.46766766167156 
1257	 0.467940876996768 
1258	 0.468260048746144 
1259	 0.468505953570581 
1260	 0.4687260414539 
1261	 0.468948637742548 
1262	 0.469139853450699 
1263	 0.469312482445038 
1264	 0.469519695723547 
1265	 0.469640725309033 
1266	 0.469642842051553 
1267	 0.469700796654746 
1268	 0.46981462678248 
1269	 0.469801796524956 
1270	 0.469737983824139 
1271	 0.469657325714466 
1272	 0.469531657789956 
1273	 0.469260258070057 
1274	 0.469084165877977 
1275	 0.46897966727561 
1276	 0.46871195888626 
1277	 0.468378878135322 
1278	 0.468026230478376 
1279	 0.467557063596903 
1280	 0.467166526885612 
1281	 0.46681726349189 
1282	 0.466401680852393 
1283	 0.46599289232524 
1284	 0.465517779357219 
1285	 0.464959790400792 
1286	 0.464434887108939 
1287	 0.463922247594709 
1288	 0.463345045445202 
1289	 0.462731687940298 
1290	 0.46211985069887 
1291	 0.461510259886252 
1292	 0.46080566413241 
1293	 0.4600239855519 
1294	 0.459269068657163 
1295	 0.458441877170133 
1296	 0.457609620264257 
1297	 0.456758609650213 
1298	 0.455933542157488 
1299	 0.455079812030576 
1300	 0.454176574010874 
1301	 0.453258493703929 
1302	 0.452363120191645 
1303	 0.451403265743939 
1304	 0.450339397222939 
1305	 0.449343659604971 
1306	 0.448404209599043 
1307	 0.447353834386272 
1308	 0.446257960841358 
1309	 0.445155765640171 
1310	 0.443974173061136 
1311	 0.442802799899327 
1312	 0.441599780985046 
1313	 0.44045851314624 
1314	 0.439379092528351 
1315	 0.438216633837286 
1316	 0.437115638366148 
1317	 0.435921390250932 
1318	 0.434545811420869 
1319	 0.43324613216689 
1320	 0.431987737606801 
1321	 0.430670415772183 
1322	 0.429279919175016 
1323	 0.427837971379171 
1324	 0.426402025319193 
1325	 0.424849473067596 
1326	 0.423327435049875 
1327	 0.421807015958079 
1328	 0.420262851512326 
1329	 0.418643455252022 
1330	 0.417057645769479 
1331	 0.415492587593803 
1332	 0.413967427435972 
1333	 0.412435014708353 
1334	 0.411005022636951 
1335	 0.409701275305912 
1336	 0.408387665995318 
1337	 0.407139388039414 
1338	 0.405844496427944 
1339	 0.404423485210272 
1340	 0.403096063351745 
1341	 0.40166689637854 
1342	 0.400272464286068 
1343	 0.39887118283426 
1344	 0.397349641734614 
1345	 0.395539843418478 
1346	 0.393572591489581 
1347	 0.39161719038909 
1348	 0.389520175663038 
1349	 0.387526112907863 
1350	 0.385915886436019 
1351	 0.383814302627011 
1352	 0.381994474943667 
1353	 0.379179802106885 
1354	 0.375696134681368 
1355	 0.37173595881848 
1356	 0.367491273787921 
1357	 0.362654586911227 
1358	 0.364022057355145 
1359	 0.359741688864959 
1360	 0.353595682356987 
1361	 0.349196016900315 
1362	 0.352077707006789 
1363	 0.346598978328279 
1364	 0.350596809288684 
1365	 0.348464483925882 
1366	 0.332309511087563 
1367	 0.323359547659875 
1368	 0.323056375458135 
1369	 0.321391782315408 
1370	 0.317565899455469 
1371	 0.316884563319643 
1372	 0.319871830432971 
1373	 0.320207573077389 
1374	 0.319295703054449 
1375	 0.32009261902352 
1376	 0.320964044557928 
1377	 0.317364087468203 
1378	 0.31375279325211 
1379	 0.308736067603318 
1380	 0.304063083314739 
1381	 0.297462786498234 
1382	 0.292715262052287 
1383	 0.291027452181684 
1384	 0.28531213146627 
1385	 0.278581833129715 
1386	 0.272535337216579 
1387	 0.265173635224579 
1388	 0.260401455175242 
1389	 0.257265795786508 
1390	 0.254182237634577 
1391	 0.252096756582656 
1392	 0.249306577098812 
1393	 0.247143939239817 
1394	 0.243436528875461 
1395	 0.237564070402128 
1396	 0.234296546880051 
1397	 0.232679831344351 
1398	 0.228966856683244 
1399	 0.224979207738779 
1400	 0.221659895775389 
1401	 0.216780632012741 
1402	 0.213370269656786 
1403	 0.212951368130216 
1404	 0.210580658535812 
1405	 0.207785440706155 
1406	 0.204188847418047 
1407	 0.200994697298621 
1408	 0.19871705917911 
1409	 0.197511745370303 
1410	 0.197212235155781 
1411	 0.196764211420947 
1412	 0.1970046822366 
1413	 0.196092980758273 
1414	 0.194916200174606 
1415	 0.193911226594188 
1416	 0.19249076444109 
1417	 0.191608118070756 
1418	 0.191117769057243 
1419	 0.190415424404985 
1420	 0.189474123521587 
1421	 0.189058344227813 
1422	 0.188971577914145 
1423	 0.188568887721234 
1424	 0.18832406037004 
1425	 0.187941046652995 
1426	 0.187133385648858 
1427	 0.186705815136997 
1428	 0.186579717271641 
1429	 0.18622582788332 
1430	 0.185792316395557 
1431	 0.185478004186688 
1432	 0.185161475434696 
1433	 0.184779158214089 
1434	 0.184339576897912 
1435	 0.184092049399855 
1436	 0.183886750428316 
1437	 0.18365831671252 
1438	 0.183622326261251 
1439	 0.183541823312439 
1440	 0.18323652672991 
1441	 0.183154951975131 
1442	 0.183163949175072 
1443	 0.183352792004943 
1444	 0.183597143248872 
1445	 0.183657119730222 
1446	 0.183633981520423 
1447	 0.183509373042082 
1448	 0.183671328869842 
1449	 0.183846668095269 
1450	 0.184176802018867 
1451	 0.184750548422354 
1452	 0.18508686386933 
1453	 0.185380113430738 
1454	 0.185630344852572 
1455	 0.185842931522424 
1456	 0.186021421661391 
1457	 0.186124766503757 
1458	 0.186335909019535 
1459	 0.186608448211676 
1460	 0.186814437274559 
1461	 0.18709012415562 
1462	 0.187320063588759 
1463	 0.187391243293322 
1464	 0.187670991458824 
1465	 0.188065992169725 
1466	 0.188502038289688 
1467	 0.189048135131383 
1468	 0.189649722604631 
1469	 0.190239070660741 
1470	 0.190994793433509 
1471	 0.191836636790822 
1472	 0.192762269107248 
1473	 0.193758251419334 
1474	 0.194787988009087 
1475	 0.195890264975817 
1476	 0.196923887791784 
1477	 0.197975589063501 
1478	 0.198963506760967 
1479	 0.199792776370878 
1480	 0.200769674960898 
1481	 0.201674494836846 
1482	 0.202767279766621 
1483	 0.204022362074972 
1484	 0.205270473262401 
1485	 0.20660430643405 
1486	 0.207912419928569 
1487	 0.209220620919912 
1488	 0.210478897398972 
1489	 0.21171452328338 
1490	 0.21289093073971 
1491	 0.214025206724806 
1492	 0.215158556945782 
1493	 0.216294378104657 
1494	 0.217485729250774 
1495	 0.218613641400391 
1496	 0.219767204624271 
1497	 0.220863247935574 
1498	 0.221896006480598 
1499	 0.22304509752509 
1500	 0.224259188013298 
1501	 0.225440948869796 
1502	 0.226681241968543 
1503	 0.227912149738686 
1504	 0.22911061366165 
1505	 0.230337498519288 
1506	 0.231600382616726 
1507	 0.232850016772761 
1508	 0.234103036097259 
1509	 0.235312670411377 
1510	 0.236508775788377 
1511	 0.237717570026322 
1512	 0.238914545372489 
1513	 0.240080934102567 
1514	 0.241245023098974 
1515	 0.24243740053656 
1516	 0.243605799652227 
1517	 0.244808403113865 
1518	 0.246076839057686 
1519	 0.247327604011109 
1520	 0.248597047874166 
1521	 0.249815619323354 
1522	 0.251007135027379 
1523	 0.252238547716794 
1524	 0.253454540204426 
1525	 0.25468011065826 
1526	 0.255999745061588 
1527	 0.257208573226919 
1528	 0.258323667340372 
1529	 0.259489335559729 
1530	 0.260626382061284 
1531	 0.261790202423364 
1532	 0.263010925568193 
1533	 0.264189234123361 
1534	 0.26533260177112 
1535	 0.266514022359386 
1536	 0.267756433656286 
1537	 0.268899037275163 
1538	 0.269976051912825 
1539	 0.271099975453801 
1540	 0.272171025451324 
1541	 0.273269506418131 
1542	 0.2744247285089 
1543	 0.275579182286753 
1544	 0.276752748866933 
1545	 0.277874826041932 
1546	 0.279012566350737 
1547	 0.28011434712918 
1548	 0.281120805456617 
1549	 0.282173630973088 
1550	 0.283261648269016 
1551	 0.28432865923604 
1552	 0.285413102405096 
1553	 0.28646449527694 
1554	 0.287481138293108 
1555	 0.288497371170237 
1556	 0.289496908018757 
1557	 0.290493497859589 
1558	 0.291495255891379 
1559	 0.292477005318076 
1560	 0.293449332916279 
1561	 0.294407943190591 
1562	 0.295344157769254 
1563	 0.296283608863319 
1564	 0.297253835741832 
1565	 0.298153935619335 
1566	 0.299084908996046 
1567	 0.300034038327671 
1568	 0.300985963733064 
1569	 0.301963332396191 
1570	 0.302869771794632 
1571	 0.303755238360554 
1572	 0.304636637807355 
1573	 0.30544528278529 
1574	 0.306336499834326 
1575	 0.307267603849664 
1576	 0.308158773046168 
1577	 0.309069912846699 
1578	 0.309877816625474 
1579	 0.310590390284929 
1580	 0.311411264191862 
1581	 0.31222860288217 
1582	 0.313006863024632 
1583	 0.313848538968577 
1584	 0.314594633978615 
1585	 0.315207810062537 
1586	 0.315966801052624 
1587	 0.316797075278054 
1588	 0.317559713411329 
1589	 0.318347808445061 
1590	 0.319103502727137 
1591	 0.319805092569451 
1592	 0.320544308025706 
1593	 0.321338925592121 
1594	 0.322021199814871 
1595	 0.322659112979189 
1596	 0.323285032563781 
1597	 0.32383158073425 
1598	 0.324447914519427 
1599	 0.325092607456409 
1600	 0.325724008321213 
1601	 0.326358316762084 
1602	 0.327011398087776 
1603	 0.32768734334466 
1604	 0.328306404059767 
1605	 0.328921206143584 
1606	 0.329508375390601 
1607	 0.330012385168997 
1608	 0.330613961030307 
1609	 0.331257401760764 
1610	 0.331881710801709 
1611	 0.332535200840608 
1612	 0.33315240018359 
1613	 0.333770618327435 
1614	 0.334317541670808 
1615	 0.334809653356129 
1616	 0.335347506051303 
1617	 0.335839571340835 
1618	 0.336371742100564 
1619	 0.336983822412308 
1620	 0.337492217109584 
1621	 0.337960727365796 
1622	 0.338418697068399 
1623	 0.338798284598348 
1624	 0.339282796569816 
1625	 0.339805401074715 
1626	 0.340299062263099 
1627	 0.340865600080381 
1628	 0.341333242459949 
1629	 0.341718006173848 
1630	 0.342174019236022 
1631	 0.342658464677142 
1632	 0.343061758119044 
1633	 0.343450310667385 
1634	 0.343851945493019 
1635	 0.344148926122146 
1636	 0.344616748419291 
1637	 0.345253820301426 
1638	 0.345674705983851 
1639	 0.346069368753397 
1640	 0.346447426753606 
1641	 0.346680386798983 
1642	 0.347042921602219 
1643	 0.347477316548102 
1644	 0.347887715591262 
1645	 0.348330939759633 
1646	 0.348654640374189 
1647	 0.348954467793831 
1648	 0.349221147174186 
1649	 0.349340024238735 
1650	 0.349639282368103 
1651	 0.350060945936873 
1652	 0.350336039860357 
1653	 0.350617399391171 
1654	 0.350841880186687 
1655	 0.350933759753968 
1656	 0.351155418720062 
1657	 0.351456644588092 
1658	 0.351726136519001 
1659	 0.351887875512742 
1660	 0.352018408013053 
1661	 0.352210580911708 
1662	 0.352468335510545 
1663	 0.352760415889159 
1664	 0.353049682767203 
1665	 0.353255644759741 
1666	 0.353394442857245 
1667	 0.353557135559365 
1668	 0.353671434356126 
1669	 0.353829956300426 
1670	 0.354035371672585 
1671	 0.35415146502108 
1672	 0.354294383627775 
1673	 0.354372374244154 
1674	 0.354343176542534 
1675	 0.354364587822743 
1676	 0.354435333853794 
1677	 0.354530213285518 
1678	 0.354604554612658 
1679	 0.354565513869699 
1680	 0.354448857395457 
1681	 0.354377893002637 
1682	 0.35436604993702 
1683	 0.35438222996944 
1684	 0.354391231999059 
1685	 0.354262073847007 
1686	 0.354052781240775 
1687	 0.353861274969547 
1688	 0.353664555271554 
1689	 0.3535900069749 
1690	 0.353486216795654 
1691	 0.353360693313976 
1692	 0.353194176564879 
1693	 0.353051069014083 
1694	 0.352952666800567 
1695	 0.352831836664764 
1696	 0.35272877481525 
1697	 0.35257775358256 
1698	 0.352375736355262 
1699	 0.352169847125453 
1700	 0.35192171048602 
1701	 0.351710467205967 
1702	 0.351530674475432 
1703	 0.351322861176086 
1704	 0.351105549465785 
1705	 0.350896678122507 
1706	 0.350691490644946 
1707	 0.350424260120584 
1708	 0.350126693256853 
1709	 0.349832699954835 
1710	 0.349521184570041 
1711	 0.349162330803834 
1712	 0.348759346417696 
1713	 0.34845794285568 
1714	 0.348189342038669 
1715	 0.347804476050009 
1716	 0.347453958973926 
1717	 0.347039851741184 
1718	 0.346436620168144 
1719	 0.346011335856173 
1720	 0.345731860077773 
1721	 0.345312468336023 
1722	 0.344889465368567 
1723	 0.344406667944002 
1724	 0.343792345878121 
1725	 0.343301004372935 
1726	 0.342807431223815 
1727	 0.342351294992001 
1728	 0.341989829117356 
1729	 0.341536975982565 
1730	 0.341083228177867 
1731	 0.340565884926929 
1732	 0.34008703202303 
1733	 0.33949464449134 
1734	 0.338881639747179 
1735	 0.33829401043387 
1736	 0.33753649857097 
1737	 0.336870620562363 
1738	 0.336212297475333 
1739	 0.335530746537995 
1740	 0.334982372642514 
1741	 0.334252448220439 
1742	 0.333548188133549 
1743	 0.332870181442791 
1744	 0.331934644303396 
1745	 0.331180109273837 
1746	 0.330493440657925 
1747	 0.329650167995565 
1748	 0.328929833305197 
1749	 0.328216091420311 
1750	 0.327382974990209 
1751	 0.326691171783522 
1752	 0.326079304210175 
1753	 0.325300137335201 
1754	 0.324544155055399 
1755	 0.3237967195087 
1756	 0.323025315985864 
1757	 0.32239114560014 
1758	 0.321666064835504 
1759	 0.320751756778411 
1760	 0.319968894475768 
1761	 0.319282628018875 
1762	 0.318545984335116 
1763	 0.317912877933579 
1764	 0.317265727019749 
1765	 0.316517816338179 
1766	 0.315769191016154 
1767	 0.315017937317186 
1768	 0.314340845734943 
1769	 0.31375053103682 
1770	 0.31302822719482 
1771	 0.312215966037527 
1772	 0.31143581106967 
1773	 0.310452794492918 
1774	 0.309895996114757 
1775	 0.309575396996081 
1776	 0.30910471582083 
1777	 0.308658487873841 
1778	 0.308297193590898 
1779	 0.307839566073171 
1780	 0.307602564086065 
1781	 0.30742937376471 
1782	 0.307033529661644 
1783	 0.306932607783299 
1784	 0.306915507230361 
1785	 0.306618460114213 
1786	 0.306374811446526 
1787	 0.306111138181234 
1788	 0.305789076918203 
1789	 0.305668017368331 
1790	 0.305488055970624 
1791	 0.304974000683101 
1792	 0.304510441900662 
1793	 0.304220981841051 
1794	 0.304137386343303 
1795	 0.304050267065515 
1796	 0.303594451450263 
1797	 0.302856540477034 
1798	 0.302070215165116 
1799	 0.301717280395177 
1800	 0.301780949452789 
1801	 0.293532210935118 
1802	 0.293717370767452 
1803	 0.29345373674831 
1804	 0.292183054613092 
1805	 0.291822860074949 
1806	 0.291698373652978 
1807	 0.291815999891976 
1808	 0.293537527405306 
1809	 0.294025322719226 
1810	 0.293486118275871 
1811	 0.291483515970295 
1812	 0.291025529802777 
1813	 0.290011856708702 
1814	 0.289020433700748 
1815	 0.290519217579899 
1816	 0.289584762154994 
1817	 0.283749580137645 
1818	 0.281199885766481 
1819	 0.279632123549947 
1820	 0.279098052697956 
1821	 0.278584676459353 
1822	 0.28144706031787 
1823	 0.28264800042003 
1824	 0.283721342241754 
1825	 0.283648503153387 
1826	 0.280934469912791 
1827	 0.281665195191264 
1828	 0.283714243951311 
1829	 0.286290777391513 
1830	 0.287867378813606 
1831	 0.298379201121622 
1832	 0.300962602555062 
1833	 0.285380765030288 
1834	 0.27589042215232 
1835	 0.265420606565097 
1836	 0.253296890296832 
1837	 0.253205944872365 
1838	 0.241475781074861 
1839	 0.225800571424992 
1840	 0.197925242536743 
1841	 0.203565308857748 
1842	 0.225507094374303 
1843	 0.237378973154408 
1844	 0.277170112108676 
1845	 0.291016116033183 
1846	 0.276698381706923 
1847	 0.275850471837231 
1848	 0.277142855318096 
1849	 0.286059954811751 
1850	 0.280497164203985 
1851	 0.26459810420577 
1852	 0.266759362839873 
1853	 0.28342124100205 
1854	 0.272900301752111 
1855	 0.248982016413319 
1856	 0.244202280751569 
1857	 0.234217602544518 
1858	 0.216327411714169 
1859	 0.218249211335431 
1860	 0.255104117377997 
1861	 0.253619483875026 
1862	 0.230249171148455 
1863	 0.228626405517548 
1864	 0.230105121071505 
1865	 0.225482150513169 
1866	 0.23570916161498 
1867	 0.224178663365175 
1868	 0.200857233255085 
1869	 0.199960141009781 
1870	 0.185260396916177 
1871	 0.173543403017771 
1872	 0.162448958267624 
1873	 0.13746582525107 
1874	 0.135427790134085 
1875	 0.156765709799631 
1876	 0.157844279546902 
1877	 0.155959933050924 
1878	 0.158362598427519 
1879	 0.153153153649604 
1880	 0.151542021165492 
1881	 0.14918913379746 
1882	 0.14929417600854 
1883	 0.147463775872164 
1884	 0.143689834486756 
1885	 0.14108982191946 
1886	 0.140220535509197 
1887	 0.13767788522795 
1888	 0.132825628135526 
1889	 0.1240230065345 
1890	 0.119600430873309 
1891	 0.113091660443952 
1892	 0.111957549993289 
1893	 0.120932882346836 
1894	 0.119004290193689 
1895	 0.111366146601506 
1896	 0.104718290229812 
1897	 8.92552433185915E-02 
1898	 0.071821358548727 
1899	 7.03041471541002E-02 
1900	 6.67960047089326E-02 
1901	 6.57779107218434E-02 
1902	 8.00714846749919E-02 
1903	 8.41854670674334E-02 
1904	 0.080901093565089 
1905	 8.72855523373984E-02 
1906	 9.68017646404145E-02 
1907	 9.93699313140998E-02 
1908	 0.108361355796549 
1909	 0.109379971544563 
1910	 0.110325620486512 
1911	 9.97574084245501E-02 
1912	 9.54267684788548E-02 
1913	 9.22960669942866E-02 
1914	 8.85354061294423E-02 
1915	 0.086850488874979 
1916	 8.42795298392138E-02 
1917	 8.04380798196609E-02 
1918	 7.61218444843815E-02 
1919	 7.82895552996959E-02 
1920	 7.76122371631802E-02 
1921	 7.82895277700854E-02 
1922	 8.33572444142121E-02 
1923	 8.53375845538158E-02 
1924	 8.64502485890008E-02 
1925	 8.72996650427762E-02 
1926	 8.71693621689285E-02 
1927	 8.74546571913921E-02 
1928	 8.69896494852295E-02 
1929	 8.80290070793346E-02 
1930	 8.95413810341021E-02 
1931	 9.17220174898767E-02 
1932	 9.17033459595679E-02 
1933	 8.97778445719475E-02 
1934	 0.089676377476517 
1935	 8.93040223725238E-02 
1936	 8.86017580724953E-02 
1937	 8.82172451637877E-02 
1938	 8.86753107871579E-02 
1939	 8.81189101694018E-02 
1940	 8.95572093906623E-02 
1941	 0.091790240633736 
1942	 9.42825552899939E-02 
1943	 9.61957271923199E-02 
1944	 9.63057979860427E-02 
1945	 9.66104144856393E-02 
1946	 9.67986467813004E-02 
1947	 9.73963539646278E-02 
1948	 9.86443281981035E-02 
1949	 9.93042320476191E-02 
1950	 0.100018796877865 
1951	 0.100448775099563 
1952	 0.100419683230065 
1953	 9.94036627349788E-02 
1954	 9.91264268490506E-02 
1955	 9.98671970660093E-02 
1956	 0.10064597998557 
1957	 0.102269439558946 
1958	 0.103041956559213 
1959	 0.103157342388573 
1960	 0.103760844718214 
1961	 0.104358487725077 
1962	 0.104618554635089 
1963	 0.10532217490736 
1964	 0.106322556861009 
1965	 0.107081321725153 
1966	 0.107588003466561 
1967	 0.107920172453296 
1968	 0.108384028755891 
1969	 0.108855249517027 
1970	 0.109100847236075 
1971	 0.109630085972814 
1972	 0.110403595389126 
1973	 0.111082431236268 
1974	 0.111771642450089 
1975	 0.112460047351075 
1976	 0.113052381651151 
1977	 0.113661800101337 
1978	 0.114028360936065 
1979	 0.114560381549807 
1980	 0.115198910816011 
1981	 0.115547841524331 
1982	 0.116094142941625 
1983	 0.116725075367454 
1984	 0.117397142778843 
1985	 0.118063096344378 
1986	 0.1188793921774 
1987	 0.119747559643766 
1988	 0.120546585960631 
1989	 0.121416988370031 
1990	 0.122335596150252 
1991	 0.123054558363449 
1992	 0.123502018663367 
1993	 0.123748755359478 
1994	 0.123956767257044 
1995	 0.124319387633058 
1996	 0.12464384182874 
1997	 0.125479010825649 
1998	 0.12641096846174 
1999	 0.127203148956093 
2000	 0.128431008286348 
2001	 0.129235091019523 
2002	 0.129556157870809 
2003	 0.130932668234129 
2004	 0.131665964784707 
2005	 0.131777201011827 
2006	 0.132437207560387 
2007	 0.133529867775335 
2008	 0.133756918928484 
2009	 0.134507829512747 
2010	 0.135063686331106 
2011	 0.13552762405768 
2012	 0.136700835296188 
2013	 0.136877720938661 
2014	 0.137637734563972 
2015	 0.13868194635684 
2016	 0.139146491071594 
2017	 0.140085259905527 
2018	 0.140779426267898 
2019	 0.141392671213434 
2020	 0.141845480880613 
2021	 0.142492741653029 
2022	 0.142944118184774 
2023	 0.143498403494983 
2024	 0.144075927726016 
2025	 0.144337708412444 
2026	 0.144903694951696 
2027	 0.145545185520238 
2028	 0.146098657781783 
2029	 0.146861869747363 
2030	 0.147522870573995 
2031	 0.148193728032051 
2032	 0.148913198071509 
2033	 0.149846843155633 
2034	 0.1505360601593 
2035	 0.151041828193059 
2036	 0.15163135023668 
2037	 0.152024735241012 
2038	 0.152526100061224 
2039	 0.153358221342181 
2040	 0.153879281534015 
2041	 0.154503310186509 
2042	 0.155228446754485 
2043	 0.155472884511138 
2044	 0.156008443774347 
2045	 0.156634630182775 
2046	 0.157330189874398 
2047	 0.157989791052626 
2048	 0.158991606862175 
2049	 0.159919356272588 
2050	 0.160631086802034 
2051	 0.161149873738886 
2052	 0.161813149185722 
2053	 0.162467220618781 
2054	 0.162759898560582 
2055	 0.163351024156385 
2056	 0.163996370354127 
2057	 0.164431294428572 
2058	 0.165115124887968 
2059	 0.165790639771849 
2060	 0.166528192791267 
2061	 0.16729516554968 
2062	 0.167861605304296 
2063	 0.168402412836502 
2064	 0.169166629002127 
2065	 0.169647057226837 
2066	 0.170286583200769 
2067	 0.171022884373693 
2068	 0.171934704211343 
2069	 0.173018627690731 
2070	 0.173577430560572 
2071	 0.174145352305231 
2072	 0.174810837778993 
2073	 0.175358528514448 
2074	 0.175718497043338 
2075	 0.176611626335094 
2076	 0.177446851493167 
2077	 0.177915658593048 
2078	 0.178395154891432 
2079	 0.178716372852671 
2080	 0.179171033102974 
2081	 0.180031076587935 
2082	 0.18085215212124 
2083	 0.181464916890525 
2084	 0.182068023869963 
2085	 0.182453451130943 
2086	 0.182786777083977 
2087	 0.183313847131192 
2088	 0.183964671641181 
2089	 0.184789224087393 
2090	 0.185538460385267 
2091	 0.186130448338264 
2092	 0.186895009093929 
2093	 0.187438667200176 
2094	 0.187960243283809 
2095	 0.188775352707046 
2096	 0.189300079239707 
2097	 0.18989480866001 
2098	 0.190574593883621 
2099	 0.190956705892546 
2100	 0.191728542445098 
2101	 0.192641972192125 
2102	 0.193353833503826 
2103	 0.194057827769182 
2104	 0.194816522960862 
2105	 0.195202191312808 
2106	 0.195549367632964 
2107	 0.196146791056151 
2108	 0.19664614835693 
2109	 0.197019295253693 
2110	 0.197554462030641 
2111	 0.198096954004826 
2112	 0.198902278944299 
2113	 0.200107514028257 
2114	 0.201113232252261 
2115	 0.201841294138036 
2116	 0.202349065044094 
2117	 0.202927291286704 
2118	 0.203503156393025 
2119	 0.203969585817257 
2120	 0.204306300278462 
2121	 0.204805311552316 
2122	 0.205372085048087 
2123	 0.205752817120627 
2124	 0.20664228371397 
2125	 0.207477254388822 
2126	 0.208044697152285 
2127	 0.20863657081397 
2128	 0.208934722539122 
2129	 0.209365269288506 
2130	 0.209854244318196 
2131	 0.210198505309339 
2132	 0.210622255436809 
2133	 0.211053569724445 
2134	 0.211616107696956 
2135	 0.212248878473191 
2136	 0.213056614565025 
2137	 0.213767908092054 
2138	 0.214209398389518 
2139	 0.214340987645582 
2140	 0.214467431083255 
2141	 0.214571639956645 
2142	 0.214771873665675 
2143	 0.215160463084718 
2144	 0.215251645423998 
2145	 0.215366103942303 
2146	 0.215403604056222 
2147	 0.215773858045575 
2148	 0.216801219946064 
2149	 0.217347356075005 
2150	 0.217800766163623 
2151	 0.21799416790917 
2152	 0.217360488247255 
2153	 0.21721793878157 
2154	 0.217097033276061 
2155	 0.217221475000793 
2156	 0.217929495935405 
2157	 0.218475083735205 
2158	 0.219208031272383 
2159	 0.219908089005296 
2160	 0.220151983536092 
2161	 0.220748041640633 
2162	 0.220640608851723 
2163	 0.220404746558584 
2164	 0.220444230074592 
2165	 0.220059798802771 
2166	 0.219853277636639 
2167	 0.219853032945366 
2168	 0.219861376629594 
2169	 0.219809305911441 
2170	 0.219883601611093 
2171	 0.220111280427854 
2172	 0.220286672647354 
2173	 0.220529378966966 
2174	 0.220668056494805 
2175	 0.220535404882259 
2176	 0.220475579770533 
2177	 0.220293903590124 
2178	 0.219851026513402 
2179	 0.219630819353387 
2180	 0.219960698475442 
2181	 0.220326782692613 
2182	 0.220749793101307 
2183	 0.221343318431312 
2184	 0.221528543797501 
2185	 0.2212993186422 
2186	 0.221147506114513 
2187	 0.221296124416484 
2188	 0.221645340119091 
2189	 0.221759371652781 
2190	 0.221966188720701 
2191	 0.222441553413933 
2192	 0.222214086124247 
2193	 0.2217519535347 
2194	 0.222076292542966 
2195	 0.222169416528417 
2196	 0.222095940548518 
2197	 0.222375463458981 
2198	 0.222083741600992 
2199	 0.221061281732886 
2200	 0.220699528417995 
2201	 0.220860967387683 
2202	 0.220608620154711 
2203	 0.220964706583673 
2204	 0.221261522344565 
2205	 0.220948269956379 
2206	 0.220883007707357 
2207	 0.220854967579076 
2208	 0.220869553406942 
2209	 0.220917666062611 
2210	 0.220858640971564 
2211	 0.220800294231653 
2212	 0.220731556359251 
2213	 0.22076480460722 
2214	 0.220965173971779 
2215	 0.220981748270429 
2216	 0.221119579702654 
2217	 0.221418713704304 
2218	 0.221031832145618 
2219	 0.220662987639952 
2220	 0.220815202891148 
2221	 0.220613388067185 
2222	 0.220090692184848 
2223	 0.21999857967808 
2224	 0.220158630595514 
2225	 0.219961126375974 
2226	 0.220296083145243 
2227	 0.220606297401333 
2228	 0.220347347196361 
2229	 0.219994918700111 
2230	 0.219166239087081 
2231	 0.218781670755376 
2232	 0.218489273405884 
2233	 0.218435361255065 
2234	 0.218508686943672 
2235	 0.21956591804464 
2236	 0.220085752968235 
2237	 0.219847804608101 
2238	 0.219664724730096 
2239	 0.21897159189491 
2240	 0.218185693721747 
2241	 0.217930194233643 
2242	 0.217746421517496 
2243	 0.217259966285707 
2244	 0.216556322298053 
2245	 0.21607423476535 
2246	 0.216106770050562 
2247	 0.215949274255418 
2248	 0.215639233751421 
2249	 0.215427331090258 
2250	 0.214776631405701 
2251	 0.214163883089193 
2252	 0.213829368162781 
2253	 0.213320100850197 
2254	 0.212716320451744 
2255	 0.212020527354191 
2256	 0.211361396428663 
2257	 0.21060487804296 
2258	 0.210133927957458 
2259	 0.209733275122571 
2260	 0.209360936346917 
2261	 0.208836932035192 
2262	 0.208421031592304 
2263	 0.208112539064277 
2264	 0.207683467711941 
2265	 0.20739995949796 
2266	 0.206763280782979 
2267	 0.206090420152727 
2268	 0.205686113391676 
2269	 0.205717128352279 
2270	 0.205738676329031 
2271	 0.205683166772003 
2272	 0.205631920163979 
2273	 0.204477355518217 
2274	 0.203747585586113 
2275	 0.203269961146331 
2276	 0.202094351158185 
2277	 0.201799043084051 
2278	 0.201451267537815 
2279	 0.200657958666294 
2280	 0.200054328182572 
2281	 0.199078953392337 
2282	 0.198578099291577 
2283	 0.198597601050294 
2284	 0.198211262029831 
2285	 0.198069948835983 
2286	 0.197739415206011 
2287	 0.197041658960129 
2288	 0.196137668812083 
2289	 0.196118524402155 
2290	 0.195842572347172 
2291	 0.195562462540475 
2292	 0.195521591661872 
2293	 0.194890735233219 
2294	 0.194106135755483 
2295	 0.193714929830128 
2296	 0.193154362899452 
2297	 0.191953538883898 
2298	 0.191125257868069 
2299	 0.190951087401622 
2300	 0.189984832919202 
2301	 0.189405729957459 
2302	 0.189292683058344 
2303	 0.188513504398996 
2304	 0.188787098315666 
2305	 0.189290288321271 
2306	 0.18945272538054 
2307	 0.189548890199641 
2308	 0.188087476423703 
2309	 0.186772695118287 
2310	 0.186446985995311 
2311	 0.184827804608923 
2312	 0.183963800841499 
2313	 0.184028689075083 
2314	 0.183005831249933 
2315	 0.182992644697124 
2316	 0.183875454805609 
2317	 0.184544483206286 
2318	 0.184417184117148 
2319	 0.183786264667448 
2320	 0.183020554296905 
2321	 0.182339273618061 
2322	 0.181211332552177 
2323	 0.180715149690967 
2324	 0.180747656504202 
2325	 0.180669185535462 
2326	 0.180298775624281 
2327	 0.179241707108 
2328	 0.178276945216601 
2329	 0.176829628539081 
2330	 0.175186577676411 
2331	 0.174338178483716 
2332	 0.173976205167688 
2333	 0.173906216892503 
2334	 0.173633352880206 
2335	 0.172904353613334 
2336	 0.17148862262283 
2337	 0.170552267711496 
2338	 0.170740510249394 
2339	 0.170852051343194 
2340	 0.171351071147407 
2341	 0.171267432510916 
2342	 0.169710663821921 
2343	 0.168432313283058 
2344	 0.166971732168465 
2345	 0.16591365820064 
2346	 0.16644268625936 
2347	 0.166460876481851 
2348	 0.166008563012453 
2349	 0.165849601998635 
2350	 0.164019061757969 
2351	 0.161770762752558 
2352	 0.16186359786837 
2353	 0.161017002242772 
2354	 0.160954878756923 
2355	 0.162907107753917 
2356	 0.161668778474382 
2357	 0.159760071632851 
2358	 0.158058199579855 
2359	 0.155347032290392 
2360	 0.154449289845618 
2361	 0.15515952327686 
2362	 0.155112784211199 
2363	 0.155269217838899 
2364	 0.156857223148484 
2365	 0.157934195024387 
2366	 0.158131643191299 
2367	 0.158055286480608 
2368	 0.155837755269522 
2369	 0.152393317164148 
2370	 0.150249821915249 
2371	 0.147887672819866 
2372	 0.146763195040462 
2373	 0.147197458841167 
2374	 0.146899166706181 
2375	 0.147587302742742 
2376	 0.148015359540763 
2377	 0.147654027229944 
2378	 0.147602866922925 
2379	 0.148227990096047 
2380	 0.147533154769458 
2381	 0.145119709853075 
2382	 0.14512402612737 
2383	 0.145900316205831 
2384	 0.146900279907653 
2385	 0.1509682425434 
2386	 0.151256228397343 
2387	 0.149339321616031 
2388	 0.148162613459147 
2389	 0.144505096977647 
2390	 0.142894166222119 
2391	 0.14313148975374 
2392	 0.141956722524432 
2393	 0.139433926303121 
2394	 0.138551014760945 
2395	 0.139122918279163 
2396	 0.139159000393515 
2397	 0.140571464124157 
2398	 0.141258341291825 
2399	 0.140681847868796 
2400	 0.139602033921959 
2401	 0.13772092492568 
2402	 0.136471426098064 
2403	 0.135304656136887 
2404	 0.133682564013415 
2405	 0.134273303148021 
2406	 0.135114708234772 
2407	 0.134149555148892 
2408	 0.132656339559876 
2409	 0.130976416706463 
2410	 0.129483249435661 
2411	 0.128576657882728 
2412	 0.132528194901197 
2413	 0.134187871906317 
2414	 0.132052093983432 
2415	 0.130838775401213 
2416	 0.12623979754053 
2417	 0.123366941419812 
2418	 0.124279753008674 
2419	 0.126056459546248 
2420	 0.127540721999691 
2421	 0.125854439803206 
2422	 0.121993109242071 
2423	 0.121693952109473 
2424	 0.12155617627358 
2425	 0.119932240776697 
2426	 0.123923101214025 
2427	 0.125732352543032 
2428	 0.124753472673038 
2429	 0.127010272496041 
2430	 0.124387150249564 
2431	 0.121376655067354 
2432	 0.121688282522786 
2433	 0.121163969709576 
2434	 0.119495608723132 
2435	 0.114610084069152 
2436	 0.112056867085798 
2437	 0.11102872238287 
2438	 0.109750661502276 
2439	 0.110217873870123 
2440	 0.111029087573684 
2441	 0.111031959374788 
2442	 0.109395050861341 
2443	 0.107873479880208 
2444	 0.105518155271035 
2445	 0.100654886106687 
2446	 9.97734406455996E-02 
2447	 0.100723578633366 
2448	 0.101307905122005 
2449	 0.103971167649625 
2450	 0.10596605724346 
2451	 0.108911908526175 
2452	 0.110451479914183 
2453	 0.110098123262313 
2454	 0.10999296954659 
2455	 0.109578138631313 
2456	 0.109111606736578 
2457	 0.110803735312676 
2458	 0.109967937941435 
2459	 0.107975386603258 
2460	 0.103376274999768 
2461	 9.17108055429099E-02 
2462	 8.76365497698362E-02 
2463	 8.44420649318958E-02 
2464	 8.39345277243992E-02 
2465	 9.19153198810547E-02 
2466	 9.62191651766271E-02 
2467	 0.103071568294088 
2468	 0.104244958785697 
2469	 9.79539306180168E-02 
2470	 9.88667227981424E-02 
2471	 9.97742346064209E-02 
2472	 9.50158697332929E-02 
2473	 9.35566469048061E-02 
2474	 9.36318661246801E-02 
2475	 8.63827987552686E-02 
2476	 8.70490130749378E-02 
2477	 9.92388200837352E-02 
2478	 0.100243221592224 
2479	 9.44133805748476E-02 
2480	 9.34310943730922E-02 
2481	 9.55283863356841E-02 
2482	 9.20910319214017E-02 
2483	 8.42192654031831E-02 
2484	 7.81753926841053E-02 
2485	 6.43733220523521E-02 
2486	 6.33151562937297E-02 
2487	 4.93535027448382E-02 
2488	 0.039875489664942 
2489	 3.79694478530664E-02 
2490	 3.14593316267208E-02 
2491	 4.06838481417051E-02 
2492	 4.93867704391631E-02 
2493	 5.64983127558119E-02 
2494	 0.054172427949576 
2495	 4.43963210955276E-02 
2496	 3.76387304265586E-02 
2497	 5.45235405013488E-02 
2498	 8.76073273982543E-02 
2499	 7.33634426089381E-02 
2500	 6.33430152717677E-02 
