Wavelength	ref00111.asd
350	 0.87154764384746 
351	 0.866387865377072 
352	 0.868973710090689 
353	 0.852885083315384 
354	 0.84836354298639 
355	 0.844447754667604 
356	 0.833392497142922 
357	 0.825559096773 
358	 0.833892848992862 
359	 0.832830773635237 
360	 0.800937790386528 
361	 0.776547718049251 
362	 0.782647416240111 
363	 0.804532256567545 
364	 0.804372095204086 
365	 0.787721081338079 
366	 0.764074191967826 
367	 0.748401976967299 
368	 0.761947626126373 
369	 0.758785452870332 
370	 0.751270723476484 
371	 0.750963864174884 
372	 0.721526839045222 
373	 0.700572668876805 
374	 0.696458550077834 
375	 0.700613153762122 
376	 0.695711651360358 
377	 0.683598148839233 
378	 0.673392537862195 
379	 0.67900507928281 
380	 0.669552805494446 
381	 0.661624713032003 
382	 0.666467790864185 
383	 0.653835831268993 
384	 0.654526501053898 
385	 0.655223413033412 
386	 0.632612876045898 
387	 0.629424758152613 
388	 0.621652780405904 
389	 0.609793591666221 
390	 0.619447261724891 
391	 0.61202068185325 
392	 0.60324717978966 
393	 0.604060397462902 
394	 0.593853125201579 
395	 0.588689891223617 
396	 0.586788950763411 
397	 0.581990728890334 
398	 0.577442995630044 
399	 0.576032327101035 
400	 0.574231854792349 
401	 0.565238202749437 
402	 0.566820865652988 
403	 0.568366370337049 
404	 0.564553268250437 
405	 0.568583348063171 
406	 0.572158392705682 
407	 0.572507804762722 
408	 0.570395996981209 
409	 0.574781671392836 
410	 0.577063986477152 
411	 0.577125880337113 
412	 0.581922469657978 
413	 0.584408665627452 
414	 0.587802439312387 
415	 0.593670597174889 
416	 0.597052300556431 
417	 0.60168636469357 
418	 0.606293982195234 
419	 0.609227517798539 
420	 0.615075943772538 
421	 0.623314197892039 
422	 0.631069418174377 
423	 0.634232804138494 
424	 0.63867263076383 
425	 0.643392951200496 
426	 0.647113353697996 
427	 0.650189274626577 
428	 0.655549344970267 
429	 0.660828488837453 
430	 0.663066584086246 
431	 0.666149037282074 
432	 0.667522640757264 
433	 0.667060624634829 
434	 0.666958811547053 
435	 0.670144059496542 
436	 0.673774876573963 
437	 0.675674626580778 
438	 0.676633095651362 
439	 0.678507937371765 
440	 0.680255617052613 
441	 0.68080886760331 
442	 0.68519692684497 
443	 0.688356529129443 
444	 0.690025097990249 
445	 0.694581843457944 
446	 0.695836303703952 
447	 0.698181685300363 
448	 0.704248182498295 
449	 0.708259490417478 
450	 0.710692018899709 
451	 0.712188529294448 
452	 0.713542739900195 
453	 0.714928974293942 
454	 0.716138871652412 
455	 0.717021879282027 
456	 0.717533078654657 
457	 0.718469317292167 
458	 0.71819604494241 
459	 0.715912581375981 
460	 0.714613159680243 
461	 0.713543014079748 
462	 0.712885666723078 
463	 0.713043912226946 
464	 0.712281748455552 
465	 0.711047749708954 
466	 0.710106435624717 
467	 0.710315886882198 
468	 0.709832931536953 
469	 0.708754193740914 
470	 0.707818029645476 
471	 0.707980134511325 
472	 0.707240549535134 
473	 0.70600208296021 
474	 0.70606606713014 
475	 0.704531616807008 
476	 0.703143548378109 
477	 0.702764169032684 
478	 0.701499777914929 
479	 0.700097215573346 
480	 0.69887411707296 
481	 0.697830462996869 
482	 0.695821516365914 
483	 0.694877161688319 
484	 0.695029033645138 
485	 0.694296200355638 
486	 0.69389465437058 
487	 0.692247200300302 
488	 0.689526591249805 
489	 0.691647551102883 
490	 0.693006633510841 
491	 0.693306306927668 
492	 0.69437023981428 
493	 0.69580129557231 
494	 0.698323723129055 
495	 0.701934363586967 
496	 0.705717379722563 
497	 0.711640028349275 
498	 0.717964709821735 
499	 0.723553906647626 
500	 0.732458954574627 
501	 0.740809437006938 
502	 0.748742139818431 
503	 0.758708673740065 
504	 0.768923306316399 
505	 0.780154908432626 
506	 0.792853789892646 
507	 0.806660409748785 
508	 0.821853920317607 
509	 0.838105135105851 
510	 0.855227465352184 
511	 0.874148221787102 
512	 0.893519258266962 
513	 0.913246338213227 
514	 0.934562783021255 
515	 0.957272452366435 
516	 0.982139801162762 
517	 1.00886941266184 
518	 1.03467127971003 
519	 1.0595438600715 
520	 1.0842469256433 
521	 1.10959745206289 
522	 1.13309690728033 
523	 1.15760710296405 
524	 1.18345621120763 
525	 1.20742729375269 
526	 1.23080124453519 
527	 1.25316440961684 
528	 1.27426436836518 
529	 1.29513123337315 
530	 1.31316958778511 
531	 1.32978865943323 
532	 1.34807924750083 
533	 1.36333260789735 
534	 1.37720417022532 
535	 1.39039964867016 
536	 1.4009220330593 
537	 1.40959187365013 
538	 1.41865304400402 
539	 1.42947741721585 
540	 1.43737672594805 
541	 1.44443418778502 
542	 1.45087412116814 
543	 1.45535452651965 
544	 1.46091730389584 
545	 1.46600583699703 
546	 1.46978606185262 
547	 1.47491880259549 
548	 1.47905203641466 
549	 1.48191716804307 
550	 1.48390532604304 
551	 1.48381336059852 
552	 1.4826146369127 
553	 1.48070922553489 
554	 1.47762842956815 
555	 1.4706404932056 
556	 1.46199515563998 
557	 1.45377911739867 
558	 1.44355898465453 
559	 1.43227411036068 
560	 1.42054226528899 
561	 1.40867194552494 
562	 1.39706300361536 
563	 1.38394838458871 
564	 1.36930498550013 
565	 1.35667619480535 
566	 1.34300541382423 
567	 1.32763745034976 
568	 1.31105814652316 
569	 1.29506031710282 
570	 1.27862564551394 
571	 1.2615657962964 
572	 1.24450857756355 
573	 1.22749029311978 
574	 1.21091833656382 
575	 1.19498428661804 
576	 1.17949088983817 
577	 1.16478143519448 
578	 1.15128600193635 
579	 1.13917542845698 
580	 1.12713764563047 
581	 1.11565382362449 
582	 1.10517479063117 
583	 1.09587364726432 
584	 1.08655223000177 
585	 1.07698827259892 
586	 1.06747161009508 
587	 1.05883929588399 
588	 1.05050673724977 
589	 1.04224736213714 
590	 1.03428022686538 
591	 1.02667841115198 
592	 1.02082575017044 
593	 1.01644208581991 
594	 1.01050373556391 
595	 1.00491277896848 
596	 1.00026494506613 
597	 0.996204977876424 
598	 0.989940040895099 
599	 0.98412351269889 
600	 0.97902249983982 
601	 0.972394464016861 
602	 0.964722676489962 
603	 0.95703242270594 
604	 0.949706962819909 
605	 0.941136562153919 
606	 0.931490621812128 
607	 0.921362595495843 
608	 0.911336081591383 
609	 0.899766534553014 
610	 0.887991200330724 
611	 0.876690687034564 
612	 0.865169893373977 
613	 0.854296685587881 
614	 0.843818947258829 
615	 0.833224391095668 
616	 0.821805039444889 
617	 0.81223114924613 
618	 0.804136849349083 
619	 0.795091461507626 
620	 0.787349992219939 
621	 0.780701072879985 
622	 0.774614658884778 
623	 0.768573076869185 
624	 0.763108706460067 
625	 0.758149839427453 
626	 0.753612919731423 
627	 0.750395673513407 
628	 0.747437755233624 
629	 0.74446907644356 
630	 0.742066385638311 
631	 0.739998826128709 
632	 0.737342138934982 
633	 0.733796330583548 
634	 0.730935922423656 
635	 0.727507547621324 
636	 0.723338115885888 
637	 0.718717439691709 
638	 0.713381473985786 
639	 0.70751982620111 
640	 0.701177755592992 
641	 0.694341784253543 
642	 0.68681120335533 
643	 0.678691002658909 
644	 0.670165106450703 
645	 0.661675779362028 
646	 0.652457059005602 
647	 0.642940461320954 
648	 0.634300804171146 
649	 0.626821209058188 
650	 0.619192126956931 
651	 0.610935709926291 
652	 0.602789658843908 
653	 0.594807853175892 
654	 0.586566429525147 
655	 0.577438412348685 
656	 0.568073237420715 
657	 0.556901815790647 
658	 0.544843430807368 
659	 0.532580637273828 
660	 0.519613762923012 
661	 0.506185795445183 
662	 0.492937274223422 
663	 0.48008488765727 
664	 0.467500428457128 
665	 0.455357833267879 
666	 0.443997400590137 
667	 0.434463071797084 
668	 0.425825216102519 
669	 0.418274219979006 
670	 0.41280431739057 
671	 0.407021296563981 
672	 0.402305034031132 
673	 0.399594601575781 
674	 0.39710168574835 
675	 0.394819295220083 
676	 0.392949165863813 
677	 0.391933483723405 
678	 0.392362799194238 
679	 0.394252594696953 
680	 0.397182564853807 
681	 0.400438489204254 
682	 0.406266615254116 
683	 0.414531730510052 
684	 0.424860174470696 
685	 0.437562325639172 
686	 0.45456387234194 
687	 0.476259871332095 
688	 0.499988017868465 
689	 0.525343308557209 
690	 0.551659119932063 
691	 0.580664222349802 
692	 0.614350422999017 
693	 0.650079896889045 
694	 0.688966151759432 
695	 0.731523993270697 
696	 0.775288245139068 
697	 0.821327782259766 
698	 0.869189952921811 
699	 0.917658539468588 
700	 0.968265551473538 
701	 1.01927615925828 
702	 1.07007387105027 
703	 1.12177645739473 
704	 1.17274849150834 
705	 1.22272122567128 
706	 1.27238764542528 
707	 1.32275717544607 
708	 1.37308069767032 
709	 1.42291244178698 
710	 1.47171127099581 
711	 1.52077383402867 
712	 1.56946180136242 
713	 1.6179352134068 
714	 1.66755429908698 
715	 1.71598408631319 
716	 1.7621653708548 
717	 1.80769648937227 
718	 1.85585918960262 
719	 1.90652330658367 
720	 1.95790439226783 
721	 2.00777662968281 
722	 2.05486671529289 
723	 2.09986530619912 
724	 2.14531473438189 
725	 2.19053518999969 
726	 2.23393942410524 
727	 2.27594970251837 
728	 2.31769918032765 
729	 2.35751096443542 
730	 2.39556675228797 
731	 2.43258589225713 
732	 2.4694143114939 
733	 2.50480689459486 
734	 2.53591311724912 
735	 2.56372778818647 
736	 2.59177901981893 
737	 2.61845271924244 
738	 2.64222356495576 
739	 2.66339466870708 
740	 2.68499831615924 
741	 2.70520533174483 
742	 2.7228682194996 
743	 2.73750505400483 
744	 2.751222694669 
745	 2.76304387225758 
746	 2.77355805532254 
747	 2.78425120399974 
748	 2.79234570515615 
749	 2.79839673531746 
750	 2.80345785032649 
751	 2.80858911216943 
752	 2.81267366371222 
753	 2.81577708745521 
754	 2.81797195069634 
755	 2.81798058631118 
756	 2.81798653985122 
757	 2.81780509913787 
758	 2.81662750857751 
759	 2.82235964578283 
760	 2.82940453913751 
761	 2.83004422022383 
762	 2.82257939303953 
763	 2.81847603016139 
764	 2.81369007775571 
765	 2.80621364734683 
766	 2.80315796443446 
767	 2.79687944390657 
768	 2.7901288905642 
769	 2.78672528143414 
770	 2.78146469778086 
771	 2.77645577933783 
772	 2.77266236745125 
773	 2.76950486158884 
774	 2.76324441512171 
775	 2.75776357351286 
776	 2.75458984274861 
777	 2.74936094996061 
778	 2.74402170998788 
779	 2.73922714064387 
780	 2.73508316454915 
781	 2.73084662390133 
782	 2.72653205756545 
783	 2.72231149557105 
784	 2.71814411034508 
785	 2.71189994301691 
786	 2.70599591922284 
787	 2.70119253691125 
788	 2.6961303030873 
789	 2.6905635988596 
790	 2.68564101096791 
791	 2.68164730679812 
792	 2.67653920180504 
793	 2.67185127709513 
794	 2.66784380294579 
795	 2.66382968735996 
796	 2.65688084781754 
797	 2.65247154891586 
798	 2.64956512369292 
799	 2.64394628181886 
800	 2.63949037914455 
801	 2.63467006236911 
802	 2.62960307900654 
803	 2.62649729014934 
804	 2.62219275017985 
805	 2.61704040550555 
806	 2.61229261574113 
807	 2.6096367431447 
808	 2.60477545317867 
809	 2.59949180499656 
810	 2.59584371397742 
811	 2.58885452556237 
812	 2.5818096248516 
813	 2.57512195980561 
814	 2.56776318427317 
815	 2.56146731565819 
816	 2.55559463965702 
817	 2.55003118996303 
818	 2.54543262668318 
819	 2.54314477585965 
820	 2.54182275272454 
821	 2.53981799583761 
822	 2.53581370518713 
823	 2.5317598850069 
824	 2.5275675380823 
825	 2.52330832271141 
826	 2.52079293045115 
827	 2.51809453370224 
828	 2.5150041665796 
829	 2.51180577951464 
830	 2.50650689859394 
831	 2.50367074449057 
832	 2.50249356029617 
833	 2.498659730544 
834	 2.49587844650227 
835	 2.49317881830575 
836	 2.49029724941204 
837	 2.48830060282081 
838	 2.48579326186966 
839	 2.48276386157081 
840	 2.47930897459034 
841	 2.47502600276674 
842	 2.47329923533363 
843	 2.47131118103995 
844	 2.46669040503989 
845	 2.46493933756733 
846	 2.46111520322507 
847	 2.45700475383817 
848	 2.45591003948047 
849	 2.45235647168825 
850	 2.44738225647165 
851	 2.44327063623595 
852	 2.44229648346739 
853	 2.44157640891789 
854	 2.43781684040475 
855	 2.43140966695108 
856	 2.42679736081681 
857	 2.42500768075176 
858	 2.42224700477282 
859	 2.41763283677694 
860	 2.41601356608745 
861	 2.41210833425842 
862	 2.4088187869627 
863	 2.4085542846851 
864	 2.40765009308493 
865	 2.40404363936911 
866	 2.39990701355677 
867	 2.3975642609526 
868	 2.39322385001574 
869	 2.38862068302682 
870	 2.38515555905739 
871	 2.38325382665157 
872	 2.38016287442635 
873	 2.37756575026543 
874	 2.3747593638113 
875	 2.36990434636751 
876	 2.36666075641383 
877	 2.36419337716986 
878	 2.36133975302017 
879	 2.35735230106367 
880	 2.35432669319842 
881	 2.35111705015174 
882	 2.34754056599015 
883	 2.3451970321843 
884	 2.34174679083572 
885	 2.33853094601314 
886	 2.33640711763114 
887	 2.33407041035037 
888	 2.3303574207654 
889	 2.32589828839344 
890	 2.32160820235996 
891	 2.31789465613757 
892	 2.31166140525872 
893	 2.30473339358741 
894	 2.299643418652 
895	 2.29499934615722 
896	 2.29302794343259 
897	 2.29006328213534 
898	 2.28251355856266 
899	 2.27888890778268 
900	 2.27586553395429 
901	 2.27247903503963 
902	 2.26951713292679 
903	 2.26938725802828 
904	 2.26519103320088 
905	 2.25923532400908 
906	 2.25856309403506 
907	 2.26034797360813 
908	 2.2548210938898 
909	 2.24532357991362 
910	 2.24441006577273 
911	 2.24109245012421 
912	 2.23754380198401 
913	 2.23377327769403 
914	 2.22747201261194 
915	 2.22685879919651 
916	 2.2244808315326 
917	 2.22022353037346 
918	 2.22290445749988 
919	 2.22037363635229 
920	 2.21710848374809 
921	 2.21505894392694 
922	 2.21020642280408 
923	 2.20909754273874 
924	 2.20689037218393 
925	 2.20118039024755 
926	 2.19627337566844 
927	 2.18735922425116 
928	 2.18019589942666 
929	 2.17693173158754 
930	 2.16873299768514 
931	 2.16308669913617 
932	 2.15665100999559 
933	 2.14624233930008 
934	 2.13558807370937 
935	 2.13385129759898 
936	 2.12724749821165 
937	 2.11275778659833 
938	 2.11706212923152 
939	 2.11330819379365 
940	 2.11243290154852 
941	 2.11978785266626 
942	 2.11488001026601 
943	 2.11139832034656 
944	 2.1118297710742 
945	 2.11162227473594 
946	 2.09780176429444 
947	 2.09139795382537 
948	 2.08671608439052 
949	 2.07887601370707 
950	 2.07924138042909 
951	 2.0810925218787 
952	 2.07929954307869 
953	 2.07254085755809 
954	 2.06592352514346 
955	 2.06240397808099 
956	 2.06260422587743 
957	 2.06330927618295 
958	 2.05631455108574 
959	 2.05305923926599 
960	 2.0553164716662 
961	 2.05867689381383 
962	 2.05326349155775 
963	 2.05732267835922 
964	 2.05599647855034 
965	 2.046389385468 
966	 2.05549222371335 
967	 2.05709186926519 
968	 2.05298494355803 
969	 2.04830122646034 
970	 2.04377776056442 
971	 2.0498419273348 
972	 2.05206123545949 
973	 2.04486965354092 
974	 2.04214065048196 
975	 2.04031564239949 
976	 2.03807582125317 
977	 2.03717453282353 
978	 2.04163163524532 
979	 2.03835553449837 
980	 2.03569219987737 
981	 2.03778476055568 
982	 2.0396293566648 
983	 2.03197219978389 
984	 2.03005976187051 
985	 2.03460132268508 
986	 2.03234177436208 
987	 2.03481086309947 
988	 2.03347925173132 
989	 2.03001058999072 
990	 2.03243070800248 
991	 2.02707888039459 
992	 2.02947878147755 
993	 2.03706827500478 
994	 2.03705367594436 
995	 2.03579236682319 
996	 2.03035135456345 
997	 2.02728434498311 
998	 2.03162380838219 
999	 2.02352131350604 
1000	 2.01913937664684 
1001	 2.07921149318672 
1002	 2.07912437236923 
1003	 2.07876092234103 
1004	 2.07853116592946 
1005	 2.07796472826796 
1006	 2.07756255454318 
1007	 2.07718711224813 
1008	 2.07676293808038 
1009	 2.0759763972024 
1010	 2.07561674625784 
1011	 2.07416539036595 
1012	 2.071596889859 
1013	 2.07046849759262 
1014	 2.06991367657975 
1015	 2.06921186395415 
1016	 2.06911283243853 
1017	 2.06842431467632 
1018	 2.06789765950944 
1019	 2.06741463076888 
1020	 2.06691771540743 
1021	 2.06651975212171 
1022	 2.06584891385017 
1023	 2.06517065862104 
1024	 2.06364018216294 
1025	 2.0628392332085 
1026	 2.06208358119442 
1027	 2.06098232467129 
1028	 2.06076154603789 
1029	 2.05957099248771 
1030	 2.05813795499787 
1031	 2.05739560022616 
1032	 2.0557707310771 
1033	 2.05465969324283 
1034	 2.05410687258587 
1035	 2.0532015619371 
1036	 2.05221535075004 
1037	 2.05099257062824 
1038	 2.04954776267764 
1039	 2.04784963313749 
1040	 2.046074926899 
1041	 2.04495006519206 
1042	 2.04407743052214 
1043	 2.04314345009188 
1044	 2.04248804509125 
1045	 2.04169398580492 
1046	 2.04013310307535 
1047	 2.03834186335344 
1048	 2.03667589288692 
1049	 2.03584006264666 
1050	 2.03502482220464 
1051	 2.03506321832735 
1052	 2.03389548999391 
1053	 2.03249234939927 
1054	 2.0315330631244 
1055	 2.0303598799607 
1056	 2.02975565467726 
1057	 2.02899164163327 
1058	 2.02795690428836 
1059	 2.02678543379978 
1060	 2.02524871627041 
1061	 2.02452346806163 
1062	 2.02329097234608 
1063	 2.02169336777967 
1064	 2.02164395600808 
1065	 2.02097705462914 
1066	 2.02031013626585 
1067	 2.01959101532646 
1068	 2.01906416927027 
1069	 2.01716185635157 
1070	 2.01615473030387 
1071	 2.01558371917433 
1072	 2.01400028539524 
1073	 2.0130681987531 
1074	 2.01220779829423 
1075	 2.01063682610415 
1076	 2.00902671223822 
1077	 2.00755690118777 
1078	 2.0061365593719 
1079	 2.00502006390969 
1080	 2.0047228571048 
1081	 2.00359348523033 
1082	 2.00238284087864 
1083	 2.00004682403861 
1084	 1.99821248084272 
1085	 1.99685879116062 
1086	 1.99552225957651 
1087	 1.99495206869262 
1088	 1.99438611240679 
1089	 1.99193661155124 
1090	 1.98907220448181 
1091	 1.98702471926769 
1092	 1.98459099434103 
1093	 1.98232697759657 
1094	 1.98043596588603 
1095	 1.97823627381582 
1096	 1.97592785040613 
1097	 1.97340662195973 
1098	 1.97071425552993 
1099	 1.96789494346025 
1100	 1.96504724992637 
1101	 1.96187024402159 
1102	 1.95876541663698 
1103	 1.95647146324292 
1104	 1.95374040890121 
1105	 1.95100545828218 
1106	 1.94884658945109 
1107	 1.94595723879873 
1108	 1.94277474546093 
1109	 1.9392707659664 
1110	 1.93463206902708 
1111	 1.92966466010834 
1112	 1.9231378769024 
1113	 1.9177129169164 
1114	 1.91233492654454 
1115	 1.90657373285757 
1116	 1.9011969459303 
1117	 1.89530312400358 
1118	 1.88800302319334 
1119	 1.87962828121968 
1120	 1.87145363984752 
1121	 1.86402443485603 
1122	 1.85752494537156 
1123	 1.8530499399019 
1124	 1.84936618956289 
1125	 1.84530519693977 
1126	 1.84241413639206 
1127	 1.84111486077547 
1128	 1.83852464643868 
1129	 1.83634018065278 
1130	 1.83408213964161 
1131	 1.83145731874866 
1132	 1.82883731294809 
1133	 1.8263921363517 
1134	 1.82419108332696 
1135	 1.82165729106686 
1136	 1.81757083456301 
1137	 1.81369831733721 
1138	 1.80942291735993 
1139	 1.80426053082668 
1140	 1.79928622059557 
1141	 1.79357004120736 
1142	 1.78810436206563 
1143	 1.78233041857781 
1144	 1.77631119884616 
1145	 1.76981007602471 
1146	 1.7624870033726 
1147	 1.75622068562917 
1148	 1.74943964832002 
1149	 1.74451142366061 
1150	 1.74182496742689 
1151	 1.73824742744123 
1152	 1.73478635363177 
1153	 1.73223941668839 
1154	 1.7297329034671 
1155	 1.72790593509983 
1156	 1.72688484872996 
1157	 1.72584991445589 
1158	 1.72517823450065 
1159	 1.72367510158342 
1160	 1.72251341065719 
1161	 1.72159535746181 
1162	 1.72068338879748 
1163	 1.71972643393861 
1164	 1.7186937176546 
1165	 1.71780258713619 
1166	 1.71649685894757 
1167	 1.71468438989793 
1168	 1.71330370946833 
1169	 1.71190289852118 
1170	 1.71062972769801 
1171	 1.70945179675297 
1172	 1.70825276920042 
1173	 1.70734012559601 
1174	 1.70614768212328 
1175	 1.70466356726575 
1176	 1.70309789902679 
1177	 1.70145284969245 
1178	 1.69944710685579 
1179	 1.69743228834259 
1180	 1.6953423356619 
1181	 1.69352416174695 
1182	 1.69145075778855 
1183	 1.68970648082997 
1184	 1.68828356496889 
1185	 1.6869937050078 
1186	 1.68605660445314 
1187	 1.68485549687552 
1188	 1.68363227827348 
1189	 1.68272557332615 
1190	 1.68137291422924 
1191	 1.67986020733394 
1192	 1.67896835410248 
1193	 1.67797122762906 
1194	 1.67721505103797 
1195	 1.67690911309331 
1196	 1.67601970586204 
1197	 1.67487108212884 
1198	 1.67402991048231 
1199	 1.67290470937484 
1200	 1.6721212413678 
1201	 1.67168759547752 
1202	 1.67129238001061 
1203	 1.67095684393633 
1204	 1.67070906626194 
1205	 1.67069294514215 
1206	 1.67068042128349 
1207	 1.67082787909187 
1208	 1.67078417423195 
1209	 1.67055209461509 
1210	 1.6704703515622 
1211	 1.67087081612297 
1212	 1.67106575887384 
1213	 1.67133656841224 
1214	 1.67187868151632 
1215	 1.67250878630416 
1216	 1.67288625798145 
1217	 1.67375140635847 
1218	 1.67544517371228 
1219	 1.67624296711955 
1220	 1.67667791672314 
1221	 1.67730663452759 
1222	 1.67751264301256 
1223	 1.67811565361421 
1224	 1.67940383220629 
1225	 1.67999135910244 
1226	 1.68025835051255 
1227	 1.68054947746871 
1228	 1.68052453096859 
1229	 1.68028238563374 
1230	 1.6808400526624 
1231	 1.68154806812293 
1232	 1.68211624902215 
1233	 1.68318386826683 
1234	 1.68336531614721 
1235	 1.68288695851694 
1236	 1.68291379002454 
1237	 1.68258510237222 
1238	 1.6827439607453 
1239	 1.68365621743036 
1240	 1.6838658358079 
1241	 1.68384968438166 
1242	 1.68385555148706 
1243	 1.68353903072985 
1244	 1.68332507822367 
1245	 1.68325587221955 
1246	 1.68308686738827 
1247	 1.68267278090572 
1248	 1.68246152284975 
1249	 1.68248195450052 
1250	 1.68226165227121 
1251	 1.68182685652915 
1252	 1.68176948218163 
1253	 1.68141965956666 
1254	 1.68087416251749 
1255	 1.68035033513255 
1256	 1.67980856815667 
1257	 1.67922320307991 
1258	 1.67861331252212 
1259	 1.67779628295348 
1260	 1.67682713278238 
1261	 1.67595152867221 
1262	 1.67490467525531 
1263	 1.67389702643891 
1264	 1.67298313367454 
1265	 1.67208872407724 
1266	 1.6710096031904 
1267	 1.67018484833804 
1268	 1.66974537909152 
1269	 1.66907075898987 
1270	 1.66851330081797 
1271	 1.66776191628941 
1272	 1.66669656839909 
1273	 1.66583842790998 
1274	 1.66480663209698 
1275	 1.66367412821528 
1276	 1.66255529469012 
1277	 1.66126831171399 
1278	 1.66034159012458 
1279	 1.65963481601186 
1280	 1.65868583163219 
1281	 1.65795929097151 
1282	 1.65688247208254 
1283	 1.65535803398378 
1284	 1.65413604565539 
1285	 1.65291136690661 
1286	 1.65177907209698 
1287	 1.65100592112084 
1288	 1.6497719347637 
1289	 1.64846623022869 
1290	 1.64690914262404 
1291	 1.64473642182552 
1292	 1.6429132383017 
1293	 1.64134238686998 
1294	 1.63941744256027 
1295	 1.6375055795992 
1296	 1.63541247596397 
1297	 1.63304554569441 
1298	 1.6302098033878 
1299	 1.62758826695254 
1300	 1.62492604180597 
1301	 1.62215525599575 
1302	 1.61939836942457 
1303	 1.6163165223602 
1304	 1.61297546142272 
1305	 1.60964787034881 
1306	 1.60604935741089 
1307	 1.60255694531292 
1308	 1.59928114139203 
1309	 1.59556641957009 
1310	 1.59147664170656 
1311	 1.58756946427581 
1312	 1.58372504181913 
1313	 1.57946547516357 
1314	 1.57527324469678 
1315	 1.57070659763905 
1316	 1.56523702440539 
1317	 1.56025652031633 
1318	 1.55559543236648 
1319	 1.55060926152471 
1320	 1.54555097025882 
1321	 1.54056944845027 
1322	 1.53510949940285 
1323	 1.5290361038015 
1324	 1.52325526647182 
1325	 1.51747440491862 
1326	 1.51110555264696 
1327	 1.50443475695835 
1328	 1.49745496325081 
1329	 1.48950813193956 
1330	 1.4823070445248 
1331	 1.47549078524185 
1332	 1.46823907403637 
1333	 1.46080737976114 
1334	 1.45399473989036 
1335	 1.44709981670676 
1336	 1.44072642985561 
1337	 1.43533910612895 
1338	 1.42945456483223 
1339	 1.42284622626402 
1340	 1.41681469669691 
1341	 1.41058405684467 
1342	 1.40436258348093 
1343	 1.39781046055695 
1344	 1.39118065575398 
1345	 1.38407612751556 
1346	 1.37553658076969 
1347	 1.36693262758968 
1348	 1.35852469556468 
1349	 1.34850883643222 
1350	 1.33661714518062 
1351	 1.32443314264431 
1352	 1.31098639641255 
1353	 1.29680317746579 
1354	 1.28782375929179 
1355	 1.27186124690722 
1356	 1.25941965185599 
1357	 1.23999217581167 
1358	 1.22589504808329 
1359	 1.19733605087793 
1360	 1.17498131317348 
1361	 1.14362670512413 
1362	 1.13820820272797 
1363	 1.10107096546549 
1364	 1.09000788255871 
1365	 1.0639040149503 
1366	 1.01490543034408 
1367	 0.996372202728245 
1368	 1.01489835878254 
1369	 1.0140825657551 
1370	 1.01861316214738 
1371	 1.01311121517644 
1372	 0.991515008034124 
1373	 0.985931104961591 
1374	 0.987058654534284 
1375	 0.985719194274788 
1376	 0.974522196085999 
1377	 0.974845544011984 
1378	 0.96542833103744 
1379	 0.942788455571374 
1380	 0.928412554769287 
1381	 0.922215205455921 
1382	 0.904443038288707 
1383	 0.882694900158276 
1384	 0.861562524849778 
1385	 0.834632306582971 
1386	 0.818188562992741 
1387	 0.807591303289692 
1388	 0.797032848666531 
1389	 0.794506758477779 
1390	 0.784507212206437 
1391	 0.77274464577444 
1392	 0.757934532224081 
1393	 0.737606291626664 
1394	 0.721430388887657 
1395	 0.704882178282415 
1396	 0.690313480368256 
1397	 0.677440765700256 
1398	 0.66491144581715 
1399	 0.654216331452161 
1400	 0.640864767523849 
1401	 0.626644672566615 
1402	 0.613783723955644 
1403	 0.599698905135315 
1404	 0.588204199256742 
1405	 0.579695816418643 
1406	 0.572081980620543 
1407	 0.564114386569395 
1408	 0.554319336997932 
1409	 0.543136189979971 
1410	 0.535741269320163 
1411	 0.529542613332206 
1412	 0.524232831912825 
1413	 0.520111266272905 
1414	 0.518604387382571 
1415	 0.513592974947385 
1416	 0.507425176275893 
1417	 0.503258576934209 
1418	 0.498043807777873 
1419	 0.494879144329672 
1420	 0.493882523753356 
1421	 0.491498647943767 
1422	 0.489070562593241 
1423	 0.486548960457258 
1424	 0.483549938050134 
1425	 0.481091069173841 
1426	 0.477832905229932 
1427	 0.476295964301149 
1428	 0.476828109005974 
1429	 0.475243307494143 
1430	 0.473126408762342 
1431	 0.471533808933946 
1432	 0.468439756941172 
1433	 0.466524416794153 
1434	 0.466409444303632 
1435	 0.46535810744192 
1436	 0.463323170679157 
1437	 0.462269231416637 
1438	 0.461705426137805 
1439	 0.461085195481715 
1440	 0.460856753055965 
1441	 0.460878871322811 
1442	 0.461188472059017 
1443	 0.461049904736501 
1444	 0.460643102042512 
1445	 0.460896752503383 
1446	 0.461451548114118 
1447	 0.462277373344208 
1448	 0.463002995892582 
1449	 0.464575171759574 
1450	 0.464861602041805 
1451	 0.464136393748422 
1452	 0.464594812886612 
1453	 0.465176619620689 
1454	 0.465840812095992 
1455	 0.467137277021373 
1456	 0.467801519746803 
1457	 0.468084849012915 
1458	 0.468642368614493 
1459	 0.469366870026135 
1460	 0.469788362545708 
1461	 0.469879749108561 
1462	 0.470705116140261 
1463	 0.471698740764221 
1464	 0.472825896334941 
1465	 0.474854864627044 
1466	 0.476305438421811 
1467	 0.476807638706179 
1468	 0.478704475433422 
1469	 0.481209841410265 
1470	 0.483733930489569 
1471	 0.487046248326997 
1472	 0.490052885775057 
1473	 0.492455363632705 
1474	 0.495423026062629 
1475	 0.498516930095264 
1476	 0.501879041434757 
1477	 0.505583735391268 
1478	 0.509122782087514 
1479	 0.512648321547819 
1480	 0.516259496188037 
1481	 0.519335963708148 
1482	 0.52325865869838 
1483	 0.5278698512286 
1484	 0.532195917326966 
1485	 0.536731594306518 
1486	 0.54122211231524 
1487	 0.545537219835982 
1488	 0.549618246366584 
1489	 0.553794034421339 
1490	 0.558164322967618 
1491	 0.562763324646976 
1492	 0.567438790312349 
1493	 0.571759631631696 
1494	 0.575652972925971 
1495	 0.579853724710118 
1496	 0.583815151278307 
1497	 0.587820256159443 
1498	 0.592220785452655 
1499	 0.59637639552916 
1500	 0.600214548936215 
1501	 0.604334134400737 
1502	 0.60874258718263 
1503	 0.613054766249847 
1504	 0.617379601689341 
1505	 0.621546247372826 
1506	 0.625623330180317 
1507	 0.629815254053012 
1508	 0.633877599528221 
1509	 0.638010382949561 
1510	 0.642368667989681 
1511	 0.646534897777316 
1512	 0.650602304361304 
1513	 0.654631346126447 
1514	 0.658568926672393 
1515	 0.66269394457646 
1516	 0.666908867009683 
1517	 0.671038380164478 
1518	 0.675309839424281 
1519	 0.679498584266218 
1520	 0.683497228060784 
1521	 0.68768890608756 
1522	 0.692219552185822 
1523	 0.696315157679723 
1524	 0.700366490937047 
1525	 0.70416913360719 
1526	 0.707357538418517 
1527	 0.711117841795248 
1528	 0.715091122091205 
1529	 0.718989401928598 
1530	 0.723205438137586 
1531	 0.727221853327231 
1532	 0.731171636820875 
1533	 0.734951368812993 
1534	 0.738521161499923 
1535	 0.742300499840616 
1536	 0.746162327071194 
1537	 0.749773993137964 
1538	 0.753313483155075 
1539	 0.75698775834109 
1540	 0.760517801719979 
1541	 0.764021054278946 
1542	 0.767871108255479 
1543	 0.771397585321056 
1544	 0.774438295514988 
1545	 0.777744376465658 
1546	 0.781065449738773 
1547	 0.784464143000474 
1548	 0.788230965404519 
1549	 0.791639222497698 
1550	 0.794786639145897 
1551	 0.798076935704153 
1552	 0.801201484102814 
1553	 0.804406731084422 
1554	 0.808000106313879 
1555	 0.811218941948075 
1556	 0.814035301127498 
1557	 0.817052438757366 
1558	 0.820110916486474 
1559	 0.823002994236116 
1560	 0.825920735388228 
1561	 0.828841534862691 
1562	 0.831506406669475 
1563	 0.834290028084553 
1564	 0.837303653558587 
1565	 0.840346466370675 
1566	 0.842684633540776 
1567	 0.845166460732872 
1568	 0.847747116763671 
1569	 0.849964269519809 
1570	 0.852947390993652 
1571	 0.856627838154977 
1572	 0.859572459279397 
1573	 0.862538779018811 
1574	 0.865239346868138 
1575	 0.867451960012712 
1576	 0.86998049763711 
1577	 0.872587074123382 
1578	 0.875018785081282 
1579	 0.877286203842059 
1580	 0.879773759028353 
1581	 0.882356270125329 
1582	 0.884632851501384 
1583	 0.886824207077217 
1584	 0.889239212820472 
1585	 0.891475538951782 
1586	 0.89392399657882 
1587	 0.896886045810787 
1588	 0.899159405782439 
1589	 0.901037194486658 
1590	 0.903172783476582 
1591	 0.905182077016641 
1592	 0.907273038159869 
1593	 0.909559405090922 
1594	 0.911594805214752 
1595	 0.91339908979157 
1596	 0.915472162786433 
1597	 0.91749854386264 
1598	 0.919850132965471 
1599	 0.922731380457687 
1600	 0.924800376999622 
1601	 0.92665678548716 
1602	 0.928584724317323 
1603	 0.929889089120647 
1604	 0.931948993831701 
1605	 0.934647579928328 
1606	 0.936743687131812 
1607	 0.938929891813906 
1608	 0.940576855917528 
1609	 0.941537789852301 
1610	 0.94321735729292 
1611	 0.944809479854472 
1612	 0.946776939388515 
1613	 0.949579963079509 
1614	 0.951233561502251 
1615	 0.952372851295962 
1616	 0.953890630856914 
1617	 0.95495194683777 
1618	 0.956466976760029 
1619	 0.95857803394644 
1620	 0.960128741014013 
1621	 0.961314341310494 
1622	 0.96290935192265 
1623	 0.964698747340814 
1624	 0.966121367038066 
1625	 0.96760301237141 
1626	 0.968888599518027 
1627	 0.969769372385603 
1628	 0.970939689880909 
1629	 0.972267566384319 
1630	 0.9735204219462 
1631	 0.97482134465309 
1632	 0.975810769273097 
1633	 0.976720398556553 
1634	 0.977577913523952 
1635	 0.978173822541987 
1636	 0.978942191860108 
1637	 0.979752343242984 
1638	 0.980551293339498 
1639	 0.981394043337626 
1640	 0.982095180531793 
1641	 0.982702454817209 
1642	 0.983480621405138 
1643	 0.984325673991655 
1644	 0.984825698917204 
1645	 0.985297225725915 
1646	 0.9858017316051 
1647	 0.985982969869465 
1648	 0.986370835032434 
1649	 0.986952370235757 
1650	 0.987541870285129 
1651	 0.988166732293238 
1652	 0.988496073296263 
1653	 0.988913801758303 
1654	 0.989144271400405 
1655	 0.989040184483025 
1656	 0.988862372548542 
1657	 0.988769675583697 
1658	 0.9877932603923 
1659	 0.986934717565943 
1660	 0.986997266228935 
1661	 0.987092684876974 
1662	 0.987158004453078 
1663	 0.987471501090184 
1664	 0.987078174885541 
1665	 0.986357077242617 
1666	 0.985934963206257 
1667	 0.985664506556671 
1668	 0.985216823893632 
1669	 0.984964979342946 
1670	 0.985165984119493 
1671	 0.984783177291456 
1672	 0.984182384072123 
1673	 0.983779115071148 
1674	 0.982895033636821 
1675	 0.982154602841032 
1676	 0.981530365801557 
1677	 0.980613503092834 
1678	 0.979660640799653 
1679	 0.978689050371966 
1680	 0.978067121821418 
1681	 0.977394182725307 
1682	 0.97630173702602 
1683	 0.975304020898667 
1684	 0.974130076020589 
1685	 0.972767676406566 
1686	 0.97164772410422 
1687	 0.970371219267011 
1688	 0.968656179065991 
1689	 0.96707478596536 
1690	 0.965400245315115 
1691	 0.963888449892105 
1692	 0.962860112405323 
1693	 0.961319128894631 
1694	 0.959426985182526 
1695	 0.957770435525887 
1696	 0.955679503903456 
1697	 0.954019247655564 
1698	 0.95298235921168 
1699	 0.951537664177024 
1700	 0.950528072394511 
1701	 0.948652561680216 
1702	 0.945629766543445 
1703	 0.943477995397065 
1704	 0.941045827080988 
1705	 0.939033858112661 
1706	 0.938028791807954 
1707	 0.936455543985764 
1708	 0.934560043048915 
1709	 0.933000296161788 
1710	 0.931630731025049 
1711	 0.929974434990679 
1712	 0.928377255363061 
1713	 0.926587051695368 
1714	 0.924398112178791 
1715	 0.922523434008729 
1716	 0.92069573309002 
1717	 0.919088459390186 
1718	 0.917422368931637 
1719	 0.916150928724386 
1720	 0.915516401213075 
1721	 0.914264327238882 
1722	 0.912954786382931 
1723	 0.911778641578556 
1724	 0.910330219941433 
1725	 0.909033826984098 
1726	 0.908004139051363 
1727	 0.906693484280164 
1728	 0.905110963599727 
1729	 0.903847492583297 
1730	 0.902656965747618 
1731	 0.901918282213239 
1732	 0.900820238444949 
1733	 0.899677100581181 
1734	 0.898566351565043 
1735	 0.896563900003706 
1736	 0.894523418960686 
1737	 0.89264845759478 
1738	 0.890978392168166 
1739	 0.889585333304146 
1740	 0.888033337730178 
1741	 0.88606857392228 
1742	 0.883827585060804 
1743	 0.88236420757476 
1744	 0.880732969992636 
1745	 0.878754910277308 
1746	 0.876614139373051 
1747	 0.873407118397499 
1748	 0.871106057147546 
1749	 0.869501806113121 
1750	 0.867673568592885 
1751	 0.866439560241265 
1752	 0.86409682231572 
1753	 0.861457889732212 
1754	 0.859417385511898 
1755	 0.856577245117944 
1756	 0.854251522594021 
1757	 0.850954726012519 
1758	 0.848334238520268 
1759	 0.846364756026059 
1760	 0.844027711783176 
1761	 0.842108189321228 
1762	 0.839981642112226 
1763	 0.837344866565288 
1764	 0.835082055354815 
1765	 0.832811438379025 
1766	 0.830876481515262 
1767	 0.829264191678161 
1768	 0.827496980384519 
1769	 0.82620699829784 
1770	 0.824575271373942 
1771	 0.822593180511877 
1772	 0.820604948754327 
1773	 0.818408849548248 
1774	 0.815836892679197 
1775	 0.813865477185378 
1776	 0.812581599737625 
1777	 0.810723789825876 
1778	 0.809587459771495 
1779	 0.808885516303456 
1780	 0.807343843758525 
1781	 0.805807434214084 
1782	 0.804209134285728 
1783	 0.802984808344928 
1784	 0.802103682319001 
1785	 0.802013804893348 
1786	 0.802431593330611 
1787	 0.801486483502698 
1788	 0.799387701407777 
1789	 0.797426013859254 
1790	 0.795873403383569 
1791	 0.794445774380697 
1792	 0.794531939817379 
1793	 0.794654663697484 
1794	 0.792334902229481 
1795	 0.790226718511938 
1796	 0.787927919488159 
1797	 0.786004540156004 
1798	 0.78514522393056 
1799	 0.78406607733336 
1800	 0.78547172355096 
1801	 0.771927791940546 
1802	 0.766286188814122 
1803	 0.76354516225688 
1804	 0.761824920296883 
1805	 0.760240339478118 
1806	 0.761325690474413 
1807	 0.760910933699806 
1808	 0.759050759687792 
1809	 0.759363615315807 
1810	 0.75910212606303 
1811	 0.759178865036712 
1812	 0.758943587731512 
1813	 0.761074332921247 
1814	 0.758680866837881 
1815	 0.751848138612149 
1816	 0.746827871947815 
1817	 0.733638959975155 
1818	 0.728337085274028 
1819	 0.727329359069953 
1820	 0.736566674969889 
1821	 0.736178694243551 
1822	 0.73827769981851 
1823	 0.73888919839885 
1824	 0.728539685180733 
1825	 0.726098201446421 
1826	 0.738450923644785 
1827	 0.740915513522673 
1828	 0.739868201804508 
1829	 0.733216176307649 
1830	 0.726473794066587 
1831	 0.700556440352202 
1832	 0.686396504043588 
1833	 0.682775942267254 
1834	 0.672913682528084 
1835	 0.669760879334217 
1836	 0.676313362664052 
1837	 0.677869429264568 
1838	 0.710599123439827 
1839	 0.769473820098899 
1840	 0.95138591869857 
1841	 0.948488349980036 
1842	 0.846805595446215 
1843	 0.809008825698556 
1844	 0.642086478986369 
1845	 0.62734006879377 
1846	 0.78888096407496 
1847	 0.824268188152616 
1848	 0.833996728680962 
1849	 0.82597697371414 
1850	 0.847616159132286 
1851	 0.840919909585808 
1852	 0.816998916881044 
1853	 0.856499717472232 
1854	 0.811161635498562 
1855	 0.642390941436467 
1856	 0.57785034727776 
1857	 0.542121324449673 
1858	 0.517693213698461 
1859	 0.517650188576771 
1860	 0.563183993494798 
1861	 0.56210547711193 
1862	 0.55064770907316 
1863	 0.555961031834215 
1864	 0.54274481383876 
1865	 0.552228309189645 
1866	 0.645352692591003 
1867	 0.642362602614796 
1868	 0.626403144214085 
1869	 0.620596590302405 
1870	 0.603347622381173 
1871	 0.557189494835996 
1872	 0.541324838934553 
1873	 0.575471785881899 
1874	 0.531258775917283 
1875	 0.462094292540619 
1876	 0.40974070894418 
1877	 0.332288309255548 
1878	 0.288028449036774 
1879	 0.293088851769356 
1880	 0.304342747128757 
1881	 0.313541753759553 
1882	 0.354691283716206 
1883	 0.363519617962872 
1884	 0.351802182870088 
1885	 0.349839345453302 
1886	 0.359680607521816 
1887	 0.334998595947734 
1888	 0.324472395745061 
1889	 0.318393204039035 
1890	 0.315328332203616 
1891	 0.323883151348913 
1892	 0.309208500550831 
1893	 0.271767279249878 
1894	 0.26015445717766 
1895	 0.244062699388354 
1896	 0.234679055262437 
1897	 0.24941991690751 
1898	 0.271664634640395 
1899	 0.329146423843835 
1900	 0.337026808149933 
1901	 0.36375460221988 
1902	 0.447860495196835 
1903	 0.466141251375722 
1904	 0.387296828890571 
1905	 0.354429631139724 
1906	 0.329863152643688 
1907	 0.267559031259761 
1908	 0.18663632567746 
1909	 0.195965730074001 
1910	 0.241522057878731 
1911	 0.212560795892193 
1912	 0.217386948304481 
1913	 0.263217662820711 
1914	 0.255194458518457 
1915	 0.222438714890732 
1916	 0.21498595723305 
1917	 0.210487467977971 
1918	 0.195397933772953 
1919	 0.191462712907289 
1920	 0.189108873236932 
1921	 0.191737584035345 
1922	 0.187071677397925 
1923	 0.180910085204628 
1924	 0.17827382688529 
1925	 0.16916089562653 
1926	 0.144397628938074 
1927	 0.136045669127866 
1928	 0.12981643139464 
1929	 0.130989399857968 
1930	 0.138345229853305 
1931	 0.147534155216773 
1932	 0.153895672702784 
1933	 0.156535276344153 
1934	 0.157603165305951 
1935	 0.158201697536278 
1936	 0.159474590152761 
1937	 0.156987036716 
1938	 0.156282871353337 
1939	 0.157110800079016 
1940	 0.157302046249421 
1941	 0.156685951700469 
1942	 0.157577962411295 
1943	 0.155963672193167 
1944	 0.156405418948173 
1945	 0.158887932059858 
1946	 0.158852764910585 
1947	 0.161856257803376 
1948	 0.16911738266347 
1949	 0.172887697228158 
1950	 0.175738567198009 
1951	 0.180700907586058 
1952	 0.181045946963541 
1953	 0.177943692312042 
1954	 0.172080364549704 
1955	 0.165894521415511 
1956	 0.167193561697499 
1957	 0.169751744146207 
1958	 0.171148959951374 
1959	 0.177474117243196 
1960	 0.178387427333764 
1961	 0.176166718420239 
1962	 0.172390327987334 
1963	 0.172692981596227 
1964	 0.171452535453704 
1965	 0.173171643348029 
1966	 0.176486324806251 
1967	 0.175747607130319 
1968	 0.176661114682826 
1969	 0.178589346291382 
1970	 0.180671538403682 
1971	 0.182613480469877 
1972	 0.185854558693285 
1973	 0.188309947837879 
1974	 0.18959364791046 
1975	 0.190625181628892 
1976	 0.192925668884968 
1977	 0.19476132942908 
1978	 0.195900342872219 
1979	 0.197104999292615 
1980	 0.196742901033173 
1981	 0.196420043476459 
1982	 0.197269788858696 
1983	 0.19846642422789 
1984	 0.200378287116624 
1985	 0.203937804852278 
1986	 0.206202279714173 
1987	 0.206569272419038 
1988	 0.207736024055936 
1989	 0.208352689302759 
1990	 0.209667274486206 
1991	 0.213690434841837 
1992	 0.215984145082568 
1993	 0.215526711576734 
1994	 0.216074493405783 
1995	 0.217501219360788 
1996	 0.218955181326353 
1997	 0.220824352287931 
1998	 0.224102051362343 
1999	 0.225761616356646 
2000	 0.22431401915604 
2001	 0.224581351058292 
2002	 0.227781373618722 
2003	 0.231894525448964 
2004	 0.237202844151675 
2005	 0.240413225895296 
2006	 0.242211499682791 
2007	 0.240819460756303 
2008	 0.242424917638065 
2009	 0.243197238225 
2010	 0.243272859369533 
2011	 0.247742791580085 
2012	 0.249229577545434 
2013	 0.249768164190992 
2014	 0.252218744957923 
2015	 0.253273003913302 
2016	 0.254652306253825 
2017	 0.256819014175131 
2018	 0.259318129530909 
2019	 0.261246746920741 
2020	 0.262674997361106 
2021	 0.26422008139336 
2022	 0.266789119285606 
2023	 0.268768219275819 
2024	 0.271933782904903 
2025	 0.275390451074811 
2026	 0.277527959688179 
2027	 0.279264221904253 
2028	 0.279963856565331 
2029	 0.281286403940083 
2030	 0.282519545549776 
2031	 0.282900849013939 
2032	 0.283880546830406 
2033	 0.285462569536049 
2034	 0.285852694566302 
2035	 0.287070118609706 
2036	 0.290012700096855 
2037	 0.292130197176562 
2038	 0.294800369188714 
2039	 0.297244012086463 
2040	 0.298385730646599 
2041	 0.299867650849082 
2042	 0.301094268880564 
2043	 0.302519548607906 
2044	 0.30547661603789 
2045	 0.307462062954631 
2046	 0.309454519327125 
2047	 0.311331130966173 
2048	 0.313698475690911 
2049	 0.313897722140537 
2050	 0.314493929783421 
2051	 0.317766722864338 
2052	 0.320302954240018 
2053	 0.322649452003833 
2054	 0.325604942159691 
2055	 0.326545486268309 
2056	 0.326810490999437 
2057	 0.328258600905786 
2058	 0.330132575152795 
2059	 0.33210762161078 
2060	 0.334816898919092 
2061	 0.33739447169226 
2062	 0.338727263311087 
2063	 0.340222698225725 
2064	 0.341726717118407 
2065	 0.341923816586662 
2066	 0.342280414318881 
2067	 0.342349852293908 
2068	 0.342555475812498 
2069	 0.344105909862754 
2070	 0.346047976595735 
2071	 0.348608836559363 
2072	 0.35047350293153 
2073	 0.352227977379033 
2074	 0.353477674938022 
2075	 0.355257554653474 
2076	 0.357356814456232 
2077	 0.35997308902976 
2078	 0.362268852701533 
2079	 0.364821589915143 
2080	 0.367310047042673 
2081	 0.369749071187471 
2082	 0.372223235253914 
2083	 0.372998218619674 
2084	 0.372998646451572 
2085	 0.373023704443029 
2086	 0.373986263768898 
2087	 0.375347877453919 
2088	 0.377698760237857 
2089	 0.379796635636801 
2090	 0.381488194703363 
2091	 0.382425789917082 
2092	 0.383346194939583 
2093	 0.384300341036796 
2094	 0.385401540722392 
2095	 0.386962567201426 
2096	 0.38874756155372 
2097	 0.391187762046073 
2098	 0.393612572120044 
2099	 0.395180689304592 
2100	 0.396670586516714 
2101	 0.398534279727187 
2102	 0.399987707312199 
2103	 0.401312665321819 
2104	 0.402863988999425 
2105	 0.403470395407629 
2106	 0.403031652454147 
2107	 0.404296779634565 
2108	 0.407059639084358 
2109	 0.409673210318822 
2110	 0.411364722283748 
2111	 0.41178407343735 
2112	 0.410223081024979 
2113	 0.409065775915023 
2114	 0.412010634244462 
2115	 0.414601233655091 
2116	 0.415896982275306 
2117	 0.417353477095028 
2118	 0.417658026612852 
2119	 0.418545649449336 
2120	 0.419437726317361 
2121	 0.421736733035958 
2122	 0.422875790255241 
2123	 0.423327236598609 
2124	 0.42401458189737 
2125	 0.426175187977753 
2126	 0.427148851041955 
2127	 0.428178820879008 
2128	 0.429241228781239 
2129	 0.428002440557243 
2130	 0.429796215448202 
2131	 0.433521023806058 
2132	 0.435634644206516 
2133	 0.438248080243022 
2134	 0.440101275637808 
2135	 0.441267920017343 
2136	 0.44112224382152 
2137	 0.440858512261848 
2138	 0.441534307156741 
2139	 0.441012560270759 
2140	 0.440939269731063 
2141	 0.443378611083412 
2142	 0.444030619736865 
2143	 0.446393832639351 
2144	 0.448618411003307 
2145	 0.448840159310591 
2146	 0.450475239559852 
2147	 0.451221276617348 
2148	 0.451685762409376 
2149	 0.45203717597831 
2150	 0.45318210608558 
2151	 0.454099741669151 
2152	 0.454418200608119 
2153	 0.455629689041292 
2154	 0.458507129560925 
2155	 0.458130155151118 
2156	 0.458009085969353 
2157	 0.458066374591141 
2158	 0.455713055392159 
2159	 0.454804883886518 
2160	 0.455437580767442 
2161	 0.457511685281844 
2162	 0.460704268885394 
2163	 0.463265094850431 
2164	 0.465396886134994 
2165	 0.466442748973817 
2166	 0.46593862673143 
2167	 0.467283029806055 
2168	 0.46850672272042 
2169	 0.469163461903436 
2170	 0.469967973320052 
2171	 0.47145489043846 
2172	 0.472737128891527 
2173	 0.472911453903124 
2174	 0.475344029907218 
2175	 0.477836774848509 
2176	 0.478494135025778 
2177	 0.478482755857468 
2178	 0.478102753010468 
2179	 0.477327541372304 
2180	 0.477113518327475 
2181	 0.477953376624448 
2182	 0.479478090393059 
2183	 0.481544026778607 
2184	 0.483434116435874 
2185	 0.484746584073865 
2186	 0.485500006957435 
2187	 0.486242499830752 
2188	 0.486088376076036 
2189	 0.486170848464395 
2190	 0.486438753876696 
2191	 0.486534601859604 
2192	 0.487268671116847 
2193	 0.488408216879295 
2194	 0.489197398561022 
2195	 0.490640382040886 
2196	 0.490922616649414 
2197	 0.490125102941444 
2198	 0.490222485954248 
2199	 0.491425355757408 
2200	 0.493328822633161 
2201	 0.494514857896389 
2202	 0.495891304422139 
2203	 0.497222442244103 
2204	 0.496587813724385 
2205	 0.496970557753325 
2206	 0.498627516490769 
2207	 0.499194313402774 
2208	 0.500047088247809 
2209	 0.502508584519906 
2210	 0.502155266148103 
2211	 0.499884200394156 
2212	 0.49893414900499 
2213	 0.497161349513983 
2214	 0.495999164112882 
2215	 0.495486822301858 
2216	 0.494356225408043 
2217	 0.494363827981893 
2218	 0.494242920560611 
2219	 0.493895034339319 
2220	 0.494577615264309 
2221	 0.495248397371589 
2222	 0.494693298365499 
2223	 0.495383521911918 
2224	 0.494572834113185 
2225	 0.490917135948241 
2226	 0.489427368027338 
2227	 0.487794158354498 
2228	 0.487761524114595 
2229	 0.490116054303993 
2230	 0.49103739103261 
2231	 0.491883844809528 
2232	 0.493703453206497 
2233	 0.493276767411068 
2234	 0.491583520171342 
2235	 0.488927952224615 
2236	 0.485721686898574 
2237	 0.4821697188501 
2238	 0.478765535308703 
2239	 0.477707191112873 
2240	 0.478409326883941 
2241	 0.477807306249559 
2242	 0.476736276794033 
2243	 0.477372457193181 
2244	 0.475199753665014 
2245	 0.472570360595445 
2246	 0.472733888233722 
2247	 0.470286910633926 
2248	 0.467356450378593 
2249	 0.466112300555818 
2250	 0.46300515355971 
2251	 0.4617100576564 
2252	 0.462576051036604 
2253	 0.461208021089863 
2254	 0.460716009510891 
2255	 0.458021081720117 
2256	 0.454534937125888 
2257	 0.44837077817273 
2258	 0.445785000202926 
2259	 0.442244053045068 
2260	 0.439941843111773 
2261	 0.439714823015862 
2262	 0.436422955062184 
2263	 0.43559442214121 
2264	 0.436904104504632 
2265	 0.43660785154813 
2266	 0.43724450850035 
2267	 0.437856969527355 
2268	 0.43659674815663 
2269	 0.43390679845076 
2270	 0.432195596604032 
2271	 0.430719433013865 
2272	 0.4283165332755 
2273	 0.42795531424601 
2274	 0.429024013737599 
2275	 0.428145968455557 
2276	 0.426065026613257 
2277	 0.424187895302136 
2278	 0.421816683815311 
2279	 0.421516081595238 
2280	 0.42188713711373 
2281	 0.420203651067288 
2282	 0.419806698584948 
2283	 0.419019217016436 
2284	 0.417331560211861 
2285	 0.418219109531955 
2286	 0.418611857342165 
2287	 0.419555248213388 
2288	 0.41688135740247 
2289	 0.413270745348865 
2290	 0.413345143698634 
2291	 0.411288843299738 
2292	 0.408069285379774 
2293	 0.409442056146278 
2294	 0.406761721090882 
2295	 0.403240998685252 
2296	 0.403240965744334 
2297	 0.400593889135905 
2298	 0.399346241369163 
2299	 0.398458355363296 
2300	 0.39353920557486 
2301	 0.393501110298541 
2302	 0.393471233565352 
2303	 0.391081282439501 
2304	 0.394285194264212 
2305	 0.39225735739399 
2306	 0.38723493269735 
2307	 0.383893876361314 
2308	 0.378849603661691 
2309	 0.378197345808041 
2310	 0.380147887664287 
2311	 0.37924629643393 
2312	 0.378460176685434 
2313	 0.381885311339958 
2314	 0.384428369919802 
2315	 0.386493923304487 
2316	 0.388807171257947 
2317	 0.385669614857326 
2318	 0.38076009354181 
2319	 0.376854131054834 
2320	 0.374715133318063 
2321	 0.370421816134592 
2322	 0.362843382243767 
2323	 0.360371605573487 
2324	 0.360007949125036 
2325	 0.356330261715777 
2326	 0.358677712900909 
2327	 0.362053820502854 
2328	 0.35832191914558 
2329	 0.357766834158975 
2330	 0.357178864425643 
2331	 0.353201156916155 
2332	 0.355407588912011 
2333	 0.358487919987477 
2334	 0.35704615004507 
2335	 0.355943250677004 
2336	 0.35296832338459 
2337	 0.348324610456783 
2338	 0.346888624779468 
2339	 0.351892016297239 
2340	 0.354136386000787 
2341	 0.355883900723822 
2342	 0.358248903702129 
2343	 0.350491875713717 
2344	 0.344005574472716 
2345	 0.339367141511702 
2346	 0.331851982736193 
2347	 0.333550256543629 
2348	 0.33791706579337 
2349	 0.334780511448116 
2350	 0.338952557008233 
2351	 0.338212091490347 
2352	 0.327887623169848 
2353	 0.331662318361206 
2354	 0.330948258981185 
2355	 0.327324452854316 
2356	 0.337287873963619 
2357	 0.338439034162295 
2358	 0.331148878823989 
2359	 0.326262959796634 
2360	 0.319771979535745 
2361	 0.32091821715636 
2362	 0.326649706134033 
2363	 0.322687165713572 
2364	 0.315612456088709 
2365	 0.305088352402961 
2366	 0.29268629077366 
2367	 0.295651267804698 
2368	 0.305988999168497 
2369	 0.315310589705257 
2370	 0.326396124092786 
2371	 0.323818800700913 
2372	 0.321847210337437 
2373	 0.313163629611667 
2374	 0.309352826712384 
2375	 0.307617820489528 
2376	 0.308746066265354 
2377	 0.310550900589593 
2378	 0.309653608805424 
2379	 0.309308275303522 
2380	 0.308565720149014 
2381	 0.305934286453002 
2382	 0.304999950682351 
2383	 0.305529993066044 
2384	 0.303910945906998 
2385	 0.303399581652806 
2386	 0.299549743385821 
2387	 0.288275136538742 
2388	 0.283631312489588 
2389	 0.284731240453588 
2390	 0.284655259702381 
2391	 0.289012289782917 
2392	 0.28872337416852 
2393	 0.277015186386959 
2394	 0.273940066345888 
2395	 0.278813351288095 
2396	 0.285245072762001 
2397	 0.299953481236189 
2398	 0.301871637959202 
2399	 0.295561797234733 
2400	 0.288744473825416 
2401	 0.270817073629428 
2402	 0.26883315464581 
2403	 0.273479281787736 
2404	 0.276333299826744 
2405	 0.281555630104431 
2406	 0.278943495317691 
2407	 0.276542143421205 
2408	 0.28191734999511 
2409	 0.273149215621906 
2410	 0.276961585609637 
2411	 0.279581234954189 
2412	 0.257636642967461 
2413	 0.25168118167185 
2414	 0.247436349273211 
2415	 0.245710355531337 
2416	 0.254158443723986 
2417	 0.272023294986871 
2418	 0.2822625024947 
2419	 0.27227071939606 
2420	 0.269040306607401 
2421	 0.246796408065476 
2422	 0.243061460751139 
2423	 0.2614323867154 
2424	 0.259604676646475 
2425	 0.264852373396969 
2426	 0.266217911949439 
2427	 0.254429190842837 
2428	 0.258458480635994 
2429	 0.278190531422098 
2430	 0.289900944737156 
2431	 0.305090308887109 
2432	 0.300467393167048 
2433	 0.266397681433792 
2434	 0.250954474306578 
2435	 0.237058653959673 
2436	 0.235421665491282 
2437	 0.259309302419623 
2438	 0.256159417859987 
2439	 0.229564497640515 
2440	 0.225818091486675 
2441	 0.212735942871587 
2442	 0.214510994140892 
2443	 0.265450436310387 
2444	 0.281937063588679 
2445	 0.275808855370557 
2446	 0.279297645385008 
2447	 0.273497847853529 
2448	 0.267817122330085 
2449	 0.279910939355444 
2450	 0.26045523252627 
2451	 0.195802460716984 
2452	 0.179223787572252 
2453	 0.174106708135355 
2454	 0.16419939788708 
2455	 0.175493445864373 
2456	 0.198682513524514 
2457	 0.225335397133938 
2458	 0.236135397826349 
2459	 0.265349624852942 
2460	 0.27816289900663 
2461	 0.25671732437283 
2462	 0.249331171955356 
2463	 0.245796718248398 
2464	 0.246625124742647 
2465	 0.252082382647546 
2466	 0.261773285552455 
2467	 0.302886159642714 
2468	 0.306360047706651 
2469	 0.268953025401848 
2470	 0.24721529122898 
2471	 0.193474365553551 
2472	 0.174912329868035 
2473	 0.204687121240458 
2474	 0.222631562576495 
2475	 0.249132296675685 
2476	 0.278272129417317 
2477	 0.310329514329671 
2478	 0.351215936368366 
2479	 0.430470447366723 
2480	 0.462436018268899 
2481	 0.462229832971008 
2482	 0.454999339978079 
2483	 0.355453734963974 
2484	 0.367648334074467 
2485	 0.504558422880914 
2486	 0.53570512239832 
2487	 0.507406372987273 
2488	 0.459569717390495 
2489	 0.335413311832754 
2490	 0.254030522159361 
2491	 0.320315670653047 
2492	 0.441949938648771 
2493	 0.512365485578398 
2494	 0.559906565585876 
2495	 0.514491843630637 
2496	 0.581184313623134 
2497	 0.504993674682976 
2498	 0.329308531207214 
2499	 0.482593946318413 
2500	 0.437507203065296 
