Wavelength	ref00094.asd
350	 9.09484472455303E-02 
351	 9.04687550519523E-02 
352	 9.06835758748569E-02 
353	 9.14738994838563E-02 
354	 9.05780643854365E-02 
355	 8.96730469872248E-02 
356	 8.98239763052302E-02 
357	 8.92901218557911E-02 
358	 8.92375042348908E-02 
359	 8.92945572501374E-02 
360	 8.89282139871336E-02 
361	 8.90330266116571E-02 
362	 8.86215963236029E-02 
363	 8.79721216799403E-02 
364	 8.80643888479664E-02 
365	 8.77583105650541E-02 
366	 8.74188546653098E-02 
367	 8.72301850374051E-02 
368	 8.68711901602096E-02 
369	 8.65043687089134E-02 
370	 8.62714263613495E-02 
371	 8.62416618730912E-02 
372	 8.63469488896616E-02 
373	 8.61484244352998E-02 
374	 8.57399706682047E-02 
375	 8.54742160573108E-02 
376	 8.52970361347617E-02 
377	 8.51075231191828E-02 
378	 8.49317003000369E-02 
379	 0.084944815082235 
380	 8.45910001765241E-02 
381	 8.43251926913756E-02 
382	 8.44838013172168E-02 
383	 8.45187467708598E-02 
384	 8.43209797651766E-02 
385	 8.41248142442541E-02 
386	 8.41870159484515E-02 
387	 0.083697625640741 
388	 8.36012347162901E-02 
389	 8.39369388850951E-02 
390	 8.37321384018098E-02 
391	 0.083738445850116 
392	 8.37318859879844E-02 
393	 8.35601669809736E-02 
394	 0.083624624806219 
395	 8.37494329024302E-02 
396	 8.36698920615412E-02 
397	 8.32687731796139E-02 
398	 8.33072276522685E-02 
399	 8.31577887972761E-02 
400	 8.28361885720223E-02 
401	 0.082897151342826 
402	 8.29058773349213E-02 
403	 8.29884065109232E-02 
404	 8.31780112165128E-02 
405	 0.083143370587083 
406	 0.083194795090623 
407	 8.31866207249948E-02 
408	 8.29478379648262E-02 
409	 8.30048507691132E-02 
410	 8.29307164336249E-02 
411	 8.27817919401863E-02 
412	 8.30164223153675E-02 
413	 8.30050763688761E-02 
414	 8.28831201219236E-02 
415	 8.28291884435671E-02 
416	 0.082852548510653 
417	 8.28069824841911E-02 
418	 8.26926051281088E-02 
419	 8.25950328812865E-02 
420	 8.27354012811335E-02 
421	 8.27438885625224E-02 
422	 8.26177229657614E-02 
423	 8.26767054207596E-02 
424	 8.26310727437049E-02 
425	 8.26276575716085E-02 
426	 8.27101570525524E-02 
427	 8.25085652505461E-02 
428	 8.26566253188499E-02 
429	 8.28162525278562E-02 
430	 8.25334544752289E-02 
431	 0.082672128519729 
432	 8.27003976149531E-02 
433	 8.24985405198466E-02 
434	 8.23631882994444E-02 
435	 8.23389409440398E-02 
436	 8.23431640159524E-02 
437	 8.23241286935977E-02 
438	 8.23410180401814E-02 
439	 8.24395935798593E-02 
440	 8.25047115429201E-02 
441	 0.082409713223459 
442	 8.22931924032347E-02 
443	 8.21822992955987E-02 
444	 8.21305922521122E-02 
445	 8.22104046973213E-02 
446	 8.22388191624268E-02 
447	 0.082161077412315 
448	 8.20220125122465E-02 
449	 8.20494665808547E-02 
450	 8.19681014579013E-02 
451	 8.18217725922362E-02 
452	 0.081778070036782 
453	 8.18434195373639E-02 
454	 8.18753666697769E-02 
455	 8.18193926733911E-02 
456	 8.17384226948484E-02 
457	 8.17067803903356E-02 
458	 8.16276641099913E-02 
459	 8.14600376318328E-02 
460	 8.14545768382884E-02 
461	 8.14333475808515E-02 
462	 0.081344678073871 
463	 8.12144508535182E-02 
464	 8.10657762857828E-02 
465	 8.10361449931966E-02 
466	 8.10945903193193E-02 
467	 8.09475057291128E-02 
468	 8.08810273642225E-02 
469	 8.08216061673631E-02 
470	 8.06684727145179E-02 
471	 8.06150030247374E-02 
472	 8.05512464546344E-02 
473	 8.04546716739168E-02 
474	 8.03676452680085E-02 
475	 8.02785614784114E-02 
476	 8.01879648122017E-02 
477	 8.00974902795675E-02 
478	 8.00076749323027E-02 
479	 0.079933062662031 
480	 7.98773677756157E-02 
481	 7.98179618498165E-02 
482	 7.96121383918312E-02 
483	 7.95234890352344E-02 
484	 7.95759752896761E-02 
485	 7.95397722660003E-02 
486	 7.94280226920559E-02 
487	 7.92937626551158E-02 
488	 7.91626365245399E-02 
489	 7.89343144833213E-02 
490	 0.078839879070935 
491	 7.88225112652406E-02 
492	 7.87218950191175E-02 
493	 7.86230100493627E-02 
494	 7.85174192303157E-02 
495	 7.84213016799505E-02 
496	 7.83860412887658E-02 
497	 7.82943867204865E-02 
498	 7.82057620138125E-02 
499	 7.81723638358293E-02 
500	 0.078066651573507 
501	 7.79851790253725E-02 
502	 7.79507048089983E-02 
503	 7.79347776196921E-02 
504	 7.79328766845303E-02 
505	 7.78036253709806E-02 
506	 7.75667615022142E-02 
507	 7.75206122571908E-02 
508	 0.077522895111212 
509	 7.74743185430538E-02 
510	 7.73373856031426E-02 
511	 7.72912674923124E-02 
512	 7.73389978501727E-02 
513	 7.73629507019811E-02 
514	 7.71739744440198E-02 
515	 7.71102210842301E-02 
516	 7.71229632244562E-02 
517	 7.71151370435134E-02 
518	 7.70506397587135E-02 
519	 7.69919429384636E-02 
520	 7.68933340108059E-02 
521	 7.67143429040221E-02 
522	 7.66990855078916E-02 
523	 7.66845826782734E-02 
524	 7.65832841732743E-02 
525	 0.076424595358608 
526	 7.64082017044835E-02 
527	 7.64106320210299E-02 
528	 7.63184277650607E-02 
529	 7.63023241978848E-02 
530	 7.62531450600097E-02 
531	 0.076174630808817 
532	 7.61342678909306E-02 
533	 7.61677006169836E-02 
534	 7.61674043734365E-02 
535	 7.60923987455927E-02 
536	 7.60340566533942E-02 
537	 7.60170068622807E-02 
538	 7.59979061714187E-02 
539	 7.59360536742671E-02 
540	 7.59152657801659E-02 
541	 7.59324386986806E-02 
542	 7.59221457767648E-02 
543	 7.57903730154176E-02 
544	 0.075810967532087 
545	 7.58282871818793E-02 
546	 7.57246347683576E-02 
547	 7.56240167703005E-02 
548	 7.56067904896977E-02 
549	 7.56581849991149E-02 
550	 7.57008120529493E-02 
551	 7.55992659972753E-02 
552	 7.54836770646226E-02 
553	 7.54214566126334E-02 
554	 7.53789231148961E-02 
555	 0.075333731717035 
556	 0.075294376564267 
557	 7.52538784051785E-02 
558	 7.51108527484964E-02 
559	 7.50465692499069E-02 
560	 7.50358137193655E-02 
561	 7.49334131772526E-02 
562	 7.48888193375739E-02 
563	 7.48299136538366E-02 
564	 7.47433128937403E-02 
565	 7.47738105078509E-02 
566	 7.47738078464105E-02 
567	 7.47066567258663E-02 
568	 0.074604771249898 
569	 7.46349646006355E-02 
570	 7.46233115119345E-02 
571	 7.45544871013404E-02 
572	 7.45675712849091E-02 
573	 7.45398472185214E-02 
574	 7.45802030612295E-02 
575	 7.46983139546651E-02 
576	 0.074533852230954 
577	 7.43791489143964E-02 
578	 7.42769374155714E-02 
579	 7.41471628186604E-02 
580	 7.39365938265606E-02 
581	 7.37431005566734E-02 
582	 7.36056371080328E-02 
583	 0.073465974947304 
584	 7.34036266722643E-02 
585	 7.34109440582184E-02 
586	 7.34506180358655E-02 
587	 7.34711649806788E-02 
588	 7.35188307900382E-02 
589	 7.35954205270127E-02 
590	 7.36566024369948E-02 
591	 7.35631619770311E-02 
592	 7.35121420674312E-02 
593	 7.35524853136316E-02 
594	 7.33777637446164E-02 
595	 7.32423806219808E-02 
596	 7.31513893558487E-02 
597	 7.30419351576959E-02 
598	 0.072959805015246 
599	 0.072871750711726 
600	 7.27992134224669E-02 
601	 7.28124362338395E-02 
602	 0.072722042043572 
603	 7.26026206527196E-02 
604	 7.25347007945155E-02 
605	 7.24623399331985E-02 
606	 7.24074647308495E-02 
607	 7.23667570965533E-02 
608	 7.23284483931141E-02 
609	 7.23180350137657E-02 
610	 7.22772394433835E-02 
611	 7.22045175447764E-02 
612	 7.21866806518136E-02 
613	 7.21143505545201E-02 
614	 0.072028351735435 
615	 7.19909187222016E-02 
616	 7.19949637646534E-02 
617	 7.19067643451542E-02 
618	 7.17726071601335E-02 
619	 7.17487465524814E-02 
620	 7.17036126830727E-02 
621	 7.16365973689289E-02 
622	 7.15739013606179E-02 
623	 7.15636937924233E-02 
624	 7.15217125068293E-02 
625	 7.14577917370644E-02 
626	 7.14108869904235E-02 
627	 7.13709216572886E-02 
628	 7.13489153433661E-02 
629	 7.13268499204173E-02 
630	 7.12624806121764E-02 
631	 0.07121869295315 
632	 0.071171621835231 
633	 7.11013822924971E-02 
634	 7.10347098586196E-02 
635	 7.10298514622749E-02 
636	 7.10550559143001E-02 
637	 7.10363005520872E-02 
638	 7.09423408417598E-02 
639	 7.08756268121741E-02 
640	 7.08657254386821E-02 
641	 7.08364778251961E-02 
642	 7.07373678912513E-02 
643	 7.06429926564829E-02 
644	 7.06230209024592E-02 
645	 7.06336524021606E-02 
646	 7.05584403909184E-02 
647	 7.04849907231171E-02 
648	 7.05819840580386E-02 
649	 7.04746677289055E-02 
650	 7.03768935559522E-02 
651	 0.070394402309502 
652	 7.03401867051208E-02 
653	 7.03706093828766E-02 
654	 7.03777432872066E-02 
655	 7.02633597783805E-02 
656	 7.03412087013679E-02 
657	 7.03516061345837E-02 
658	 7.02510937492397E-02 
659	 7.01846906271011E-02 
660	 7.01929330848335E-02 
661	 7.01677244442591E-02 
662	 7.00764239810106E-02 
663	 7.00753520565229E-02 
664	 7.00056054969748E-02 
665	 6.99632205316852E-02 
666	 0.070056806098483 
667	 7.00087092197067E-02 
668	 6.99606758841951E-02 
669	 6.99362854891903E-02 
670	 0.069840219746512 
671	 6.97467099113407E-02 
672	 6.96830688366383E-02 
673	 6.96548850967638E-02 
674	 6.96465063379978E-02 
675	 6.95654184162081E-02 
676	 6.94660492105694E-02 
677	 6.94325509284225E-02 
678	 6.93293635126757E-02 
679	 6.92463614047392E-02 
680	 6.91952508700903E-02 
681	 6.91000143108717E-02 
682	 6.91362833233343E-02 
683	 6.91520596658527E-02 
684	 6.90380885280727E-02 
685	 6.89673545499718E-02 
686	 6.88861062927748E-02 
687	 6.88133662853219E-02 
688	 6.87922938598032E-02 
689	 6.87284596701538E-02 
690	 6.86644653569719E-02 
691	 6.86380536054346E-02 
692	 6.86706158398437E-02 
693	 6.85995605480017E-02 
694	 6.85602796960643E-02 
695	 6.86437361960582E-02 
696	 6.86469987705167E-02 
697	 0.068635415809934 
698	 6.85880219772944E-02 
699	 6.84706727146416E-02 
700	 6.84125253346882E-02 
701	 6.83898933797921E-02 
702	 6.83971231479779E-02 
703	 6.84605236694545E-02 
704	 6.83582981433679E-02 
705	 6.82626929530424E-02 
706	 6.82935781073193E-02 
707	 6.81764859148342E-02 
708	 6.81871018354917E-02 
709	 6.82603312205052E-02 
710	 6.81931726727908E-02 
711	 6.80237094056063E-02 
712	 6.79930698522134E-02 
713	 6.80933346130908E-02 
714	 6.80215738649656E-02 
715	 6.80384434165332E-02 
716	 6.79979882035874E-02 
717	 6.78240117218717E-02 
718	 6.79498782962566E-02 
719	 0.067932408144962 
720	 6.78470005573014E-02 
721	 6.79513211724254E-02 
722	 6.79139564596893E-02 
723	 6.78643454489373E-02 
724	 0.067824191643659 
725	 6.76888010310476E-02 
726	 6.76511724896439E-02 
727	 6.76887593069295E-02 
728	 6.77345305864642E-02 
729	 6.77190517554221E-02 
730	 6.78091590854714E-02 
731	 6.78771833209856E-02 
732	 6.77632864841036E-02 
733	 6.77685242125017E-02 
734	 6.77768752680961E-02 
735	 6.77604361237224E-02 
736	 6.77844267425542E-02 
737	 6.77888571026505E-02 
738	 0.067792695277256 
739	 6.78209659405956E-02 
740	 6.78892296101442E-02 
741	 6.78866686376363E-02 
742	 6.78971738316674E-02 
743	 6.80142642254182E-02 
744	 6.80510999835814E-02 
745	 6.81377197273626E-02 
746	 6.82246978553906E-02 
747	 6.81518374899246E-02 
748	 6.81941929979015E-02 
749	 6.83252877787141E-02 
750	 6.84601293929882E-02 
751	 6.84902320395409E-02 
752	 6.86048931923917E-02 
753	 6.87130727305162E-02 
754	 6.87154759230998E-02 
755	 6.87641623607119E-02 
756	 6.88948276529887E-02 
757	 6.90194942538555E-02 
758	 6.90141457563044E-02 
759	 6.91436325389681E-02 
760	 6.93276055961071E-02 
761	 6.94515439066608E-02 
762	 6.94691735784857E-02 
763	 6.95509138185024E-02 
764	 6.96547433259993E-02 
765	 6.97346266882589E-02 
766	 6.98273324597741E-02 
767	 6.99698689562259E-02 
768	 7.01170819520086E-02 
769	 0.07022390216605 
770	 7.03634046849021E-02 
771	 7.05027762499158E-02 
772	 7.06144019890804E-02 
773	 7.06871135573429E-02 
774	 7.07739873039246E-02 
775	 7.09688450156363E-02 
776	 7.12319471581772E-02 
777	 7.12955177818387E-02 
778	 7.14365420899488E-02 
779	 7.15724803743437E-02 
780	 7.16064770484491E-02 
781	 7.17566627944948E-02 
782	 7.18904197346793E-02 
783	 7.19988889540938E-02 
784	 7.21422356831803E-02 
785	 7.23584636470657E-02 
786	 7.24764700278322E-02 
787	 7.25295180087941E-02 
788	 0.072765911590227 
789	 7.29454838075948E-02 
790	 7.30268638384604E-02 
791	 7.30713955830554E-02 
792	 7.32687208989643E-02 
793	 7.34835058260865E-02 
794	 7.36751691692066E-02 
795	 0.073842376902138 
796	 7.40257824361159E-02 
797	 7.41068456393684E-02 
798	 7.41593748364378E-02 
799	 0.074335819763642 
800	 7.44371622240836E-02 
801	 7.45829187132786E-02 
802	 7.47791164508602E-02 
803	 7.48848220504806E-02 
804	 7.51199932797528E-02 
805	 7.53476299785452E-02 
806	 7.54629182018084E-02 
807	 7.55674352697397E-02 
808	 7.57284202591905E-02 
809	 7.58902518250028E-02 
810	 0.076018032268261 
811	 7.63629133547575E-02 
812	 7.65036805392818E-02 
813	 7.64878264162151E-02 
814	 7.66123235383114E-02 
815	 7.66632114871764E-02 
816	 7.69397840066658E-02 
817	 7.73566690726913E-02 
818	 7.74192005069448E-02 
819	 7.74637445332999E-02 
820	 7.75563815832341E-02 
821	 7.77139384819669E-02 
822	 7.79506514045203E-02 
823	 7.80953357614056E-02 
824	 7.81625381321665E-02 
825	 0.078248680303629 
826	 7.85224409006013E-02 
827	 7.87158885999452E-02 
828	 7.88412995785847E-02 
829	 7.90071391053266E-02 
830	 7.91684299728673E-02 
831	 7.92594427408902E-02 
832	 7.93268347495503E-02 
833	 7.94919654524249E-02 
834	 7.97727808253254E-02 
835	 7.99233570673569E-02 
836	 7.99646522059114E-02 
837	 8.02367439546664E-02 
838	 8.03140868243801E-02 
839	 8.03391611130145E-02 
840	 8.04580876327127E-02 
841	 8.06033827898078E-02 
842	 8.07194281025558E-02 
843	 8.08204265841634E-02 
844	 8.09557556149482E-02 
845	 8.12224408383553E-02 
846	 0.081353088245591 
847	 8.14032435361855E-02 
848	 8.15446042173254E-02 
849	 8.16908252352201E-02 
850	 0.081802019630115 
851	 8.18151750745176E-02 
852	 8.17212393550455E-02 
853	 8.20574885314014E-02 
854	 8.22858117897388E-02 
855	 8.22855593585974E-02 
856	 8.25058014054321E-02 
857	 8.25918807115256E-02 
858	 8.26228924501668E-02 
859	 8.27169197242409E-02 
860	 0.082937268605441 
861	 8.30629643560023E-02 
862	 8.30353055548317E-02 
863	 8.29280367068331E-02 
864	 8.30000306295448E-02 
865	 8.33550888947886E-02 
866	 8.36565204937177E-02 
867	 8.35749470286985E-02 
868	 8.34511809973107E-02 
869	 8.35099865479994E-02 
870	 8.36831660070676E-02 
871	 8.38004011867391E-02 
872	 8.40142919651119E-02 
873	 8.41376672346722E-02 
874	 8.41165478631687E-02 
875	 8.40418088703874E-02 
876	 8.41820560499482E-02 
877	 8.43190638006293E-02 
878	 8.43686415980184E-02 
879	 8.44438883321719E-02 
880	 8.47264662873333E-02 
881	 0.084879178574948 
882	 8.47940436879732E-02 
883	 0.084774521471792 
884	 8.48755262512469E-02 
885	 8.49107085317131E-02 
886	 0.084853117051796 
887	 8.50542833847381E-02 
888	 8.51634767328588E-02 
889	 8.52357044898922E-02 
890	 8.52892126949682E-02 
891	 8.49390284443721E-02 
892	 8.51475014671411E-02 
893	 0.085540869015096 
894	 8.55512416586748E-02 
895	 8.56548463394596E-02 
896	 8.56522369775386E-02 
897	 8.55713506579678E-02 
898	 8.55620167568824E-02 
899	 8.58298415647001E-02 
900	 8.60443234488631E-02 
901	 8.59945185757988E-02 
902	 8.57098242298294E-02 
903	 0.085849039985828 
904	 8.60474371774096E-02 
905	 8.60956184949922E-02 
906	 0.085991211501195 
907	 8.60868641983676E-02 
908	 8.62844346204113E-02 
909	 8.64385186061741E-02 
910	 8.64118611430128E-02 
911	 8.61580612915166E-02 
912	 8.62394708109985E-02 
913	 8.66073747788906E-02 
914	 8.66385847602929E-02 
915	 8.67406275059592E-02 
916	 8.66962056946904E-02 
917	 8.65497958570571E-02 
918	 8.66603035599833E-02 
919	 8.65648583660723E-02 
920	 8.65900537124287E-02 
921	 8.68622018078026E-02 
922	 8.70956969318544E-02 
923	 8.69544536778007E-02 
924	 8.69230901204773E-02 
925	 8.71392688821745E-02 
926	 8.69849032140912E-02 
927	 8.67270637077453E-02 
928	 8.65749754481348E-02 
929	 8.66007971660014E-02 
930	 8.66195983434829E-02 
931	 8.69683261723333E-02 
932	 8.74557002644416E-02 
933	 8.77290413088606E-02 
934	 8.75212059849902E-02 
935	 8.81802189436981E-02 
936	 8.86999233352175E-02 
937	 8.81704054642621E-02 
938	 8.71936961419403E-02 
939	 8.69726882146636E-02 
940	 8.76899521419828E-02 
941	 8.84480483431426E-02 
942	 8.70087967910203E-02 
943	 8.73277780703975E-02 
944	 8.78996891726808E-02 
945	 8.74829530942282E-02 
946	 0.088487221237481 
947	 8.76425463360145E-02 
948	 8.72222751798883E-02 
949	 8.85918574394503E-02 
950	 8.82595498754589E-02 
951	 8.84410197358233E-02 
952	 8.82211673486073E-02 
953	 8.75199739762002E-02 
954	 8.93552139365226E-02 
955	 8.95205263888161E-02 
956	 8.92108276878419E-02 
957	 8.96478011104295E-02 
958	 8.93621207600818E-02 
959	 8.83048969698911E-02 
960	 8.82143036338711E-02 
961	 8.94436156541453E-02 
962	 8.92561460007343E-02 
963	 8.91230359201902E-02 
964	 8.92783099486801E-02 
965	 8.94222521674005E-02 
966	 8.88903153735455E-02 
967	 8.89214018709622E-02 
968	 8.88387971675834E-02 
969	 8.85068306870452E-02 
970	 8.91471427038514E-02 
971	 8.93591130679362E-02 
972	 8.96056874744929E-02 
973	 9.00171590846237E-02 
974	 8.98043993725158E-02 
975	 9.00327680589851E-02 
976	 8.96216399827856E-02 
977	 8.89305464198062E-02 
978	 9.01962302248854E-02 
979	 8.97464885447124E-02 
980	 8.98071505827023E-02 
981	 9.07046037872883E-02 
982	 9.00846451987451E-02 
983	 0.090301915481633 
984	 9.01627195001291E-02 
985	 0.089734428030683 
986	 9.03695341674916E-02 
987	 9.09669133340449E-02 
988	 9.04489304328631E-02 
989	 8.95231997592819E-02 
990	 8.99694722876337E-02 
991	 9.14432186449204E-02 
992	 9.04260483755255E-02 
993	 8.90369496549213E-02 
994	 9.12588136304969E-02 
995	 9.07738261110003E-02 
996	 9.08462265378205E-02 
997	 9.13873608465872E-02 
998	 9.10537318917147E-02 
999	 9.16493932343157E-02 
1000	 9.18945129766343E-02 
1001	 8.60566680501757E-02 
1002	 8.60087435773867E-02 
1003	 8.59952626453133E-02 
1004	 8.59364293317955E-02 
1005	 8.59186918293625E-02 
1006	 8.59779704131872E-02 
1007	 8.59797635034577E-02 
1008	 8.59343779228169E-02 
1009	 8.58830731647909E-02 
1010	 8.57642884645902E-02 
1011	 8.57323383559012E-02 
1012	 8.58082773659836E-02 
1013	 8.58874005838581E-02 
1014	 8.59473923107729E-02 
1015	 0.086038020789768 
1016	 8.60553117095655E-02 
1017	 8.61196302694748E-02 
1018	 8.61708673919277E-02 
1019	 8.62427996879026E-02 
1020	 0.086268542906361 
1021	 8.62709779993077E-02 
1022	 8.62811455022988E-02 
1023	 8.62840660063642E-02 
1024	 8.62877937251678E-02 
1025	 8.62503902704874E-02 
1026	 8.62376348552765E-02 
1027	 8.62547633053716E-02 
1028	 8.62928053864226E-02 
1029	 8.64060488427503E-02 
1030	 8.64042984667156E-02 
1031	 8.63227498780444E-02 
1032	 8.62820221016107E-02 
1033	 8.62413097875131E-02 
1034	 8.61566630188628E-02 
1035	 8.61887391379085E-02 
1036	 8.62795460036096E-02 
1037	 0.086343459727823 
1038	 8.64515833381631E-02 
1039	 8.66176151541495E-02 
1040	 8.66583974852487E-02 
1041	 8.67223840590513E-02 
1042	 8.68598510694066E-02 
1043	 8.68335738338345E-02 
1044	 8.67646631382555E-02 
1045	 8.68265523862033E-02 
1046	 8.68668055575489E-02 
1047	 8.68836071869949E-02 
1048	 8.69396730639377E-02 
1049	 0.086939655620571 
1050	 0.086962630225164 
1051	 0.086951935104221 
1052	 8.70103958577058E-02 
1053	 0.087055143774955 
1054	 8.70886473428126E-02 
1055	 8.70592264516323E-02 
1056	 8.70535504055036E-02 
1057	 8.71651816019255E-02 
1058	 8.71925889361083E-02 
1059	 8.72226137257862E-02 
1060	 8.72908245411167E-02 
1061	 0.08727032091955 
1062	 8.72665001055263E-02 
1063	 8.72973549604012E-02 
1064	 8.72474551094426E-02 
1065	 8.72393836619984E-02 
1066	 8.72024286612721E-02 
1067	 8.72711506571282E-02 
1068	 8.73643737464011E-02 
1069	 8.74324721123131E-02 
1070	 8.74480242004479E-02 
1071	 8.74342523461891E-02 
1072	 0.087402657133741 
1073	 8.74500698475237E-02 
1074	 8.75490057874021E-02 
1075	 8.75311922727979E-02 
1076	 8.74612500267492E-02 
1077	 8.73262099668374E-02 
1078	 8.72439824167497E-02 
1079	 8.72103266060177E-02 
1080	 8.70966972659694E-02 
1081	 0.087045629619023 
1082	 8.70411543105429E-02 
1083	 8.69935988934503E-02 
1084	 8.69585541064665E-02 
1085	 8.69543031793766E-02 
1086	 8.69083241168368E-02 
1087	 8.68878866076453E-02 
1088	 0.086827679196156 
1089	 8.67585794596386E-02 
1090	 8.66478623846278E-02 
1091	 8.64926977205234E-02 
1092	 8.63929594123152E-02 
1093	 8.63418998731568E-02 
1094	 8.63719108970496E-02 
1095	 8.63771015670644E-02 
1096	 0.086315096447973 
1097	 8.61750787037329E-02 
1098	 8.60831548737616E-02 
1099	 8.59635082989743E-02 
1100	 8.58423361516095E-02 
1101	 8.57959020441164E-02 
1102	 8.56967070618331E-02 
1103	 8.55703654038793E-02 
1104	 8.54851183551505E-02 
1105	 8.54371750815448E-02 
1106	 8.54128541226594E-02 
1107	 8.53833255193396E-02 
1108	 8.54177177564375E-02 
1109	 8.55168911998217E-02 
1110	 8.55180012110007E-02 
1111	 8.55462301792824E-02 
1112	 8.56754694605503E-02 
1113	 8.56917447166882E-02 
1114	 8.55460936655662E-02 
1115	 8.55767246296731E-02 
1116	 8.56749833251517E-02 
1117	 8.57093301447597E-02 
1118	 8.59501516367449E-02 
1119	 0.08608594967703 
1120	 8.61497702435228E-02 
1121	 0.086273269814545 
1122	 8.63473642331746E-02 
1123	 8.65204501190969E-02 
1124	 8.66798272328532E-02 
1125	 0.086920543822237 
1126	 8.71755684518298E-02 
1127	 8.75256327442695E-02 
1128	 8.76822125708986E-02 
1129	 8.77103219999444E-02 
1130	 8.78289746887461E-02 
1131	 0.087859890883985 
1132	 8.79549983820181E-02 
1133	 8.81446980318444E-02 
1134	 8.83381591113868E-02 
1135	 8.84497989737865E-02 
1136	 8.85968960959322E-02 
1137	 8.86883134125745E-02 
1138	 8.87939483838817E-02 
1139	 8.88686678510827E-02 
1140	 8.88627298678868E-02 
1141	 8.88725914141182E-02 
1142	 8.89069700303955E-02 
1143	 8.89410629562649E-02 
1144	 8.89508720259379E-02 
1145	 8.89980098074621E-02 
1146	 8.90157514348002E-02 
1147	 0.089136449287114 
1148	 8.93640340557273E-02 
1149	 0.089531931272825 
1150	 8.98102881397505E-02 
1151	 8.99595644204521E-02 
1152	 8.99971502950156E-02 
1153	 0.090019329298149 
1154	 9.00884873761796E-02 
1155	 0.090058238286752 
1156	 9.01643325376044E-02 
1157	 9.02538554766785E-02 
1158	 9.02478924308001E-02 
1159	 9.02669707416218E-02 
1160	 9.02791493026938E-02 
1161	 9.02374615203625E-02 
1162	 9.02514947083538E-02 
1163	 9.03149955471508E-02 
1164	 9.03521325215238E-02 
1165	 9.03922678747366E-02 
1166	 9.04091781588821E-02 
1167	 9.03857711689782E-02 
1168	 9.04213645751756E-02 
1169	 9.04824388491531E-02 
1170	 9.05411640181636E-02 
1171	 9.05946027978606E-02 
1172	 9.06420407862533E-02 
1173	 9.05826343542374E-02 
1174	 9.05455451004435E-02 
1175	 9.06072353519528E-02 
1176	 9.06488338953123E-02 
1177	 0.090687011611304 
1178	 9.07933534753461E-02 
1179	 9.07983484260151E-02 
1180	 9.07032795463336E-02 
1181	 9.06809949373725E-02 
1182	 0.090632704455456 
1183	 9.06436810445238E-02 
1184	 9.07206614713526E-02 
1185	 9.07831877231551E-02 
1186	 0.090893418340476 
1187	 0.090945590875736 
1188	 9.09752240678463E-02 
1189	 9.09759375692342E-02 
1190	 9.10260632099413E-02 
1191	 9.10474851202853E-02 
1192	 0.091084911645241 
1193	 9.11984794819555E-02 
1194	 9.12684777801856E-02 
1195	 9.13122010879273E-02 
1196	 9.13927593283501E-02 
1197	 9.15053457506107E-02 
1198	 9.15747445449497E-02 
1199	 9.16300662765637E-02 
1200	 0.091696774617788 
1201	 9.17598795158807E-02 
1202	 9.18079822528317E-02 
1203	 9.18414948625556E-02 
1204	 9.19047687436655E-02 
1205	 0.091955579035846 
1206	 9.20250070442825E-02 
1207	 9.21439077191156E-02 
1208	 9.22394034899532E-02 
1209	 9.23562014839754E-02 
1210	 9.23996988353113E-02 
1211	 9.24320042695396E-02 
1212	 9.25126102600553E-02 
1213	 9.25653144102555E-02 
1214	 9.25928711726593E-02 
1215	 9.26492908356941E-02 
1216	 0.092716718179535 
1217	 0.092781444647378 
1218	 0.092864190889473 
1219	 9.29248193184337E-02 
1220	 9.29491176217616E-02 
1221	 9.30351598921414E-02 
1222	 9.31635828046076E-02 
1223	 9.32464209764271E-02 
1224	 9.33832981017707E-02 
1225	 9.34442999533963E-02 
1226	 9.34000576583452E-02 
1227	 9.34105839883338E-02 
1228	 9.34504257888591E-02 
1229	 9.34174614675118E-02 
1230	 0.093462910234075 
1231	 9.35323189230565E-02 
1232	 9.35632947660162E-02 
1233	 0.093600436718395 
1234	 9.36190402382033E-02 
1235	 9.35920236504742E-02 
1236	 9.36045788806228E-02 
1237	 9.36240557674773E-02 
1238	 9.36518764438926E-02 
1239	 9.37178837446187E-02 
1240	 9.37494216891645E-02 
1241	 9.37289995499034E-02 
1242	 9.37857791869422E-02 
1243	 9.39036211877782E-02 
1244	 9.39505509267516E-02 
1245	 9.39577419568202E-02 
1246	 9.40563152361252E-02 
1247	 9.42055469238855E-02 
1248	 9.42790748656985E-02 
1249	 9.44190849447461E-02 
1250	 9.45069452177817E-02 
1251	 0.094481292651542 
1252	 9.44160968630071E-02 
1253	 9.44540541239817E-02 
1254	 9.45567119252647E-02 
1255	 9.46320180914549E-02 
1256	 9.47641489172376E-02 
1257	 9.48059517800173E-02 
1258	 9.47843907421572E-02 
1259	 9.48185843608282E-02 
1260	 9.48216935433063E-02 
1261	 9.48632653767272E-02 
1262	 9.49662328998212E-02 
1263	 9.50406261546618E-02 
1264	 9.51327858839697E-02 
1265	 9.51731250219307E-02 
1266	 9.51408883531993E-02 
1267	 9.51911280648991E-02 
1268	 9.52719702494061E-02 
1269	 9.53151498025758E-02 
1270	 9.54021311668587E-02 
1271	 9.54699288599145E-02 
1272	 9.54907753605865E-02 
1273	 9.54766934629598E-02 
1274	 9.55381405386782E-02 
1275	 9.56816859403142E-02 
1276	 9.56957685775303E-02 
1277	 9.56583364940518E-02 
1278	 9.56805748639813E-02 
1279	 9.56487681774364E-02 
1280	 9.56759818318673E-02 
1281	 9.58035015640269E-02 
1282	 9.58494629743667E-02 
1283	 9.58111258279065E-02 
1284	 9.58776096260379E-02 
1285	 9.60262824582271E-02 
1286	 9.60845572789136E-02 
1287	 0.096148839532859 
1288	 9.62049209103468E-02 
1289	 9.61945176920868E-02 
1290	 9.61961215632396E-02 
1291	 9.62203774215138E-02 
1292	 9.62444913319695E-02 
1293	 9.62402319205473E-02 
1294	 9.62445754329699E-02 
1295	 9.62784532132738E-02 
1296	 9.62992202684038E-02 
1297	 9.63226329213326E-02 
1298	 9.63246883508972E-02 
1299	 9.63636892531017E-02 
1300	 9.64223132334325E-02 
1301	 9.64821071364561E-02 
1302	 9.65701764079782E-02 
1303	 9.66229877377034E-02 
1304	 9.66669087132533E-02 
1305	 0.096710255890775 
1306	 9.67208998626914E-02 
1307	 9.67679302900694E-02 
1308	 9.68785629147319E-02 
1309	 0.096896021129566 
1310	 9.68277635981267E-02 
1311	 9.68562063983736E-02 
1312	 9.68840117640484E-02 
1313	 9.69135873668062E-02 
1314	 0.097024293425467 
1315	 9.71079796425289E-02 
1316	 9.71637685144396E-02 
1317	 9.72026150399709E-02 
1318	 9.72324978906556E-02 
1319	 9.72894969724849E-02 
1320	 9.73968261735953E-02 
1321	 9.73755317976736E-02 
1322	 9.74060368086258E-02 
1323	 9.74833561508534E-02 
1324	 9.74852486478047E-02 
1325	 9.73660946441779E-02 
1326	 9.74384094045458E-02 
1327	 9.76220135146769E-02 
1328	 0.097690381624905 
1329	 9.78050641392072E-02 
1330	 9.79079178459175E-02 
1331	 9.79003789530828E-02 
1332	 9.79663646081713E-02 
1333	 9.81626312768617E-02 
1334	 9.82511344658403E-02 
1335	 9.82245909903256E-02 
1336	 9.82876350035117E-02 
1337	 9.83779578900812E-02 
1338	 9.84600257436937E-02 
1339	 9.86700120242248E-02 
1340	 9.87256210871718E-02 
1341	 9.86513850457153E-02 
1342	 9.86100065925589E-02 
1343	 9.83991615159214E-02 
1344	 9.82756198505789E-02 
1345	 9.81763188507263E-02 
1346	 0.098200875408391 
1347	 9.81371341874936E-02 
1348	 9.81544223693176E-02 
1349	 9.81673364054125E-02 
1350	 9.82140602752771E-02 
1351	 9.82453369501309E-02 
1352	 0.098370063370723 
1353	 9.84120122165388E-02 
1354	 9.82192168611689E-02 
1355	 9.82611635956983E-02 
1356	 9.85412353436646E-02 
1357	 9.90450250490627E-02 
1358	 0.10051910718303 
1359	 0.101718480135426 
1360	 0.102069196771482 
1361	 0.103095593325413 
1362	 0.103140856507618 
1363	 0.10268043551826 
1364	 9.94759194487038E-02 
1365	 9.79490953364447E-02 
1366	 9.48311126551893E-02 
1367	 9.56141610148922E-02 
1368	 0.102220085047301 
1369	 0.102789033778272 
1370	 0.102898271252895 
1371	 0.101670017967423 
1372	 9.69643238654685E-02 
1373	 9.50310133456911E-02 
1374	 9.29378491660346E-02 
1375	 9.26448750029148E-02 
1376	 9.37242465204453E-02 
1377	 9.51404304636732E-02 
1378	 9.68355481095473E-02 
1379	 0.100202121653446 
1380	 0.100726430050871 
1381	 0.100336368812914 
1382	 0.10088277911078 
1383	 0.101182588759534 
1384	 9.99874334665936E-02 
1385	 9.85559425608777E-02 
1386	 9.72415591364005E-02 
1387	 0.093571776487656 
1388	 9.39538416060861E-02 
1389	 9.65861648085117E-02 
1390	 9.79272516706201E-02 
1391	 0.100970061738371 
1392	 0.101371008260392 
1393	 0.1002169615115 
1394	 9.96668187143498E-02 
1395	 9.84174603502777E-02 
1396	 9.75654885641362E-02 
1397	 9.64054344871239E-02 
1398	 9.64317654518038E-02 
1399	 9.69942324695301E-02 
1400	 9.73482501598702E-02 
1401	 9.91028415331386E-02 
1402	 9.94699148279731E-02 
1403	 0.098540513393833 
1404	 9.83178844927212E-02 
1405	 9.83070482608837E-02 
1406	 9.77336499815976E-02 
1407	 0.097388845527393 
1408	 9.74211103246484E-02 
1409	 9.75444742612174E-02 
1410	 9.82743640746049E-02 
1411	 9.85175956624132E-02 
1412	 9.91233033264763E-02 
1413	 0.099031252605626 
1414	 9.84947599498103E-02 
1415	 0.098187186951939 
1416	 9.75959897570609E-02 
1417	 9.77795032914526E-02 
1418	 9.82949089591093E-02 
1419	 9.85286481840709E-02 
1420	 9.89558293114184E-02 
1421	 9.93475623081722E-02 
1422	 9.96528078267864E-02 
1423	 9.97672457549406E-02 
1424	 0.100012160976865 
1425	 0.100073401882398 
1426	 9.97363934360379E-02 
1427	 9.97086899756871E-02 
1428	 9.97742982527456E-02 
1429	 9.99375759856703E-02 
1430	 0.100321985943878 
1431	 0.100485360710251 
1432	 0.100685127677411 
1433	 0.100755084148265 
1434	 0.100455445249659 
1435	 0.100484145915641 
1436	 0.100728192150693 
1437	 0.100868285246527 
1438	 0.101191734562866 
1439	 0.101323359376442 
1440	 0.101155878578393 
1441	 0.101182647783103 
1442	 0.101251112704279 
1443	 0.101364519784067 
1444	 0.101421269975534 
1445	 0.1014430696753 
1446	 0.101552329154557 
1447	 0.101569154324602 
1448	 0.101646197383679 
1449	 0.101837469552831 
1450	 0.101949235686153 
1451	 0.101950942820297 
1452	 0.102096502302063 
1453	 0.102367663531992 
1454	 0.102441535615523 
1455	 0.102466302749592 
1456	 0.102531843935679 
1457	 0.102500649611798 
1458	 0.102570579643749 
1459	 0.102821918645605 
1460	 0.102822840425148 
1461	 0.102632014691579 
1462	 0.102663281373819 
1463	 0.102675193742163 
1464	 0.102720306177156 
1465	 0.10300116562624 
1466	 0.10310314204509 
1467	 0.103048097875283 
1468	 0.103066430761004 
1469	 0.103132040973871 
1470	 0.10310933977745 
1471	 0.102915755560884 
1472	 0.102946901979566 
1473	 0.10304684693632 
1474	 0.103164392644164 
1475	 0.103479940116937 
1476	 0.103658547540266 
1477	 0.103769762582563 
1478	 0.103864524942393 
1479	 0.10384515058054 
1480	 0.103954852247098 
1481	 0.10417635957365 
1482	 0.104266595858565 
1483	 0.104404571258518 
1484	 0.104463443160562 
1485	 0.104300089799044 
1486	 0.104296341790388 
1487	 0.104383780874083 
1488	 0.104434326932257 
1489	 0.104571591656208 
1490	 0.104644859997086 
1491	 0.104620831453122 
1492	 0.104694813302764 
1493	 0.104833991580855 
1494	 0.104899050033045 
1495	 0.105009533671216 
1496	 0.105194375495864 
1497	 0.105266819513934 
1498	 0.1052680478853 
1499	 0.10534950401538 
1500	 0.10542896293316 
1501	 0.105493258614055 
1502	 0.105612829603645 
1503	 0.105660337499629 
1504	 0.105616933858749 
1505	 0.105670840861962 
1506	 0.105748582054569 
1507	 0.105839607568023 
1508	 0.105995776206384 
1509	 0.106084398702972 
1510	 0.106128764410408 
1511	 0.106211046127772 
1512	 0.10630707048885 
1513	 0.106372122016572 
1514	 0.106441445531765 
1515	 0.106517204922271 
1516	 0.106557065398894 
1517	 0.106608463397078 
1518	 0.106692900624961 
1519	 0.106761179722648 
1520	 0.106792593322481 
1521	 0.106872052673903 
1522	 0.106986744054573 
1523	 0.107079360912991 
1524	 0.107193163561301 
1525	 0.107287087498775 
1526	 0.107340590250598 
1527	 0.107436221131684 
1528	 0.107582870677569 
1529	 0.107655099649721 
1530	 0.107703392140068 
1531	 0.107770023653936 
1532	 0.107773732146595 
1533	 0.107825991136655 
1534	 0.107954570633643 
1535	 0.108021689201048 
1536	 0.108062537276259 
1537	 0.108107353282928 
1538	 0.108114905770001 
1539	 0.108152166409604 
1540	 0.108188954027918 
1541	 0.10825618621554 
1542	 0.108381433552883 
1543	 0.108460463676165 
1544	 0.108523794660621 
1545	 0.108604632589428 
1546	 0.108679732329247 
1547	 0.108734285658472 
1548	 0.108770724105921 
1549	 0.108850888472914 
1550	 0.108935689655053 
1551	 0.109015958932789 
1552	 0.109136830837951 
1553	 0.10925556992588 
1554	 0.109389709683164 
1555	 0.109467823165698 
1556	 0.109501976654028 
1557	 0.109572691201619 
1558	 0.10960716473754 
1559	 0.109657150076675 
1560	 0.109777087414355 
1561	 0.10986354111812 
1562	 0.109939774744206 
1563	 0.109978775675791 
1564	 0.109971493259897 
1565	 0.109977386615323 
1566	 0.109958912811025 
1567	 0.10998043628962 
1568	 0.110052214266153 
1569	 0.110212517956615 
1570	 0.110255241278757 
1571	 0.110280655285647 
1572	 0.110316012174009 
1573	 0.110286247639149 
1574	 0.110327462069759 
1575	 0.110425690959828 
1576	 0.110490367651824 
1577	 0.110539049234698 
1578	 0.110619690905178 
1579	 0.110717840734287 
1580	 0.110811349632149 
1581	 0.11093463463105 
1582	 0.110989347002597 
1583	 0.111022637834909 
1584	 0.111036046229242 
1585	 0.11098241343682 
1586	 0.11101436196732 
1587	 0.111071766606903 
1588	 0.111124653495057 
1589	 0.111229745794288 
1590	 0.111264873957447 
1591	 0.111274473456822 
1592	 0.111255942314899 
1593	 0.111171402010993 
1594	 0.111183904774145 
1595	 0.111217099775967 
1596	 0.111246510567606 
1597	 0.111359424260531 
1598	 0.111353475385181 
1599	 0.111216128472846 
1600	 0.111284991166304 
1601	 0.11144405866941 
1602	 0.111488181229967 
1603	 0.111596447846582 
1604	 0.111663566114123 
1605	 0.111573425410708 
1606	 0.111652296857068 
1607	 0.1118991168252 
1608	 0.111986199011937 
1609	 0.112011728248022 
1610	 0.112093321903161 
1611	 0.112132511148112 
1612	 0.112226592296899 
1613	 0.112414340561479 
1614	 0.112489602581725 
1615	 0.112523777372138 
1616	 0.112560473491789 
1617	 0.112531523981801 
1618	 0.112574456771403 
1619	 0.112684276197942 
1620	 0.112679610398338 
1621	 0.112636255949934 
1622	 0.112624816278283 
1623	 0.112530738788893 
1624	 0.112546644279284 
1625	 0.112661452196103 
1626	 0.112714607134314 
1627	 0.112755703879253 
1628	 0.112843286617777 
1629	 0.112968564963166 
1630	 0.113007064513367 
1631	 0.11302749622066 
1632	 0.113076312199156 
1633	 0.113069472897394 
1634	 0.113108212536078 
1635	 0.113252646540373 
1636	 0.113250787048865 
1637	 0.113144390362357 
1638	 0.113122333958129 
1639	 0.113045988160292 
1640	 0.113088908157711 
1641	 0.113225101546132 
1642	 0.113317047297053 
1643	 0.113512446049032 
1644	 0.113484403539239 
1645	 0.11333118701792 
1646	 0.113288058242735 
1647	 0.11311779215599 
1648	 0.113120722256965 
1649	 0.113292554903571 
1650	 0.113326934484866 
1651	 0.113364625867256 
1652	 0.113365596524477 
1653	 0.113312799654283 
1654	 0.113293422276875 
1655	 0.113246259435769 
1656	 0.113255528534199 
1657	 0.113323439181936 
1658	 0.113333130080922 
1659	 0.113306595783431 
1660	 0.113195381820421 
1661	 0.113083815713268 
1662	 0.113079068720364 
1663	 0.11313024922227 
1664	 0.113220188688457 
1665	 0.113228634599212 
1666	 0.113105633242392 
1667	 0.11292321582656 
1668	 0.112775726944526 
1669	 0.112681746271162 
1670	 0.112562374479023 
1671	 0.112405797792599 
1672	 0.112224020823758 
1673	 0.112028869550766 
1674	 0.111739295775949 
1675	 0.111427577486763 
1676	 0.111114411237606 
1677	 0.11066004832442 
1678	 0.1102611845952 
1679	 0.109933997778946 
1680	 0.109487802999151 
1681	 0.109039494286839 
1682	 0.108617048153012 
1683	 0.108223828767239 
1684	 0.107886582998994 
1685	 0.107660852610834 
1686	 0.107481021388276 
1687	 0.107235978321527 
1688	 0.107024051557041 
1689	 0.106818711050592 
1690	 0.10681078185152 
1691	 0.106865529178773 
1692	 0.107178126531982 
1693	 0.107336518315078 
1694	 0.107346508527147 
1695	 0.107496779719407 
1696	 0.10769547768263 
1697	 0.107868125075353 
1698	 0.108161640672849 
1699	 0.108396072528143 
1700	 0.108521483619604 
1701	 0.108683585464092 
1702	 0.108944018216853 
1703	 0.109040257763513 
1704	 0.109085115164068 
1705	 0.109097880020495 
1706	 0.108932177927462 
1707	 0.108852309849083 
1708	 0.108770655009882 
1709	 0.108692752239547 
1710	 0.10869631387035 
1711	 0.108602843044928 
1712	 0.108488479905088 
1713	 0.108335683445366 
1714	 0.108073058535458 
1715	 0.10783712097258 
1716	 0.107570236578954 
1717	 0.107384960519546 
1718	 0.107363033909144 
1719	 0.107035739950174 
1720	 0.106579146217014 
1721	 0.106137876885908 
1722	 0.105419248718673 
1723	 0.104941203862199 
1724	 0.104670214265828 
1725	 0.104220239150527 
1726	 0.103748593750955 
1727	 0.103162957703112 
1728	 0.102473883561688 
1729	 0.101943873303711 
1730	 0.101343761681279 
1731	 0.100997547604489 
1732	 0.100591196264528 
1733	 0.100244023777731 
1734	 0.100027123120317 
1735	 9.97647432450037E-02 
1736	 0.09954564215457 
1737	 9.93475248219224E-02 
1738	 9.92377753179956E-02 
1739	 9.93077839826388E-02 
1740	 9.93444658392891E-02 
1741	 9.95173977451488E-02 
1742	 9.97219979097124E-02 
1743	 9.97033697426094E-02 
1744	 9.98195711690477E-02 
1745	 0.100003207850359 
1746	 0.100016699023132 
1747	 0.100077956549993 
1748	 0.100294532080672 
1749	 0.100518265526386 
1750	 0.100849197245429 
1751	 0.101394870349086 
1752	 0.101869428009602 
1753	 0.102204504944599 
1754	 0.102500499334593 
1755	 0.102926392684782 
1756	 0.103459108988893 
1757	 0.104103483572187 
1758	 0.104705089964034 
1759	 0.105267997121771 
1760	 0.105765784487008 
1761	 0.10616434707721 
1762	 0.106631603442741 
1763	 0.107179459717466 
1764	 0.107585885175935 
1765	 0.108024994974714 
1766	 0.108426575124181 
1767	 0.108679960490755 
1768	 0.108869008992709 
1769	 0.109062178467556 
1770	 0.109121613540081 
1771	 0.108855435096662 
1772	 0.109021152301694 
1773	 0.109393705477724 
1774	 0.109829526270841 
1775	 0.110215847499735 
1776	 0.110312536576895 
1777	 0.110409760209657 
1778	 0.110670602384039 
1779	 0.110936312713419 
1780	 0.111061541382426 
1781	 0.111039644252975 
1782	 0.110949573836954 
1783	 0.110965249285559 
1784	 0.111038324714906 
1785	 0.111276691390683 
1786	 0.111574487619967 
1787	 0.111668822903164 
1788	 0.111916596212284 
1789	 0.112212017098607 
1790	 0.112303332842073 
1791	 0.112194142487874 
1792	 0.112173023009066 
1793	 0.112325244596322 
1794	 0.112014572707304 
1795	 0.111933876913119 
1796	 0.112049871705873 
1797	 0.111719420876597 
1798	 0.111468672499704 
1799	 0.111432624322006 
1800	 0.111046547698772 
1801	 0.115103817940977 
1802	 0.11363479581236 
1803	 0.113261956703258 
1804	 0.111807271743905 
1805	 0.111479234958642 
1806	 0.113429361336871 
1807	 0.113981669888109 
1808	 0.113709228923363 
1809	 0.113368997628616 
1810	 0.113958534127041 
1811	 0.115306404404951 
1812	 0.115436326515323 
1813	 0.115365489536401 
1814	 0.115904469638099 
1815	 0.114880107752414 
1816	 0.115313120561389 
1817	 0.118746115419651 
1818	 0.120845054989991 
1819	 0.122748415277798 
1820	 0.124797894038661 
1821	 0.125366078407912 
1822	 0.123841945036086 
1823	 0.123805396092017 
1824	 0.12285812008452 
1825	 0.121840970380237 
1826	 0.1205278231637 
1827	 0.120737057003176 
1828	 0.121701135603292 
1829	 0.12306843072069 
1830	 0.123101336090722 
1831	 0.121946412463402 
1832	 0.12976088732562 
1833	 0.149079456851956 
1834	 0.162731809195218 
1835	 0.205066524453574 
1836	 0.223125726614158 
1837	 0.150890074608116 
1838	 0.128538401359282 
1839	 0.120734598200658 
1840	 0.121576103944515 
1841	 0.136187209319017 
1842	 0.220563961065062 
1843	 0.227334017103465 
1844	 0.190077661221494 
1845	 0.179620744498828 
1846	 0.143938124403543 
1847	 0.1315216058072 
1848	 0.129949118666302 
1849	 0.143274971599917 
1850	 0.168061911049395 
1851	 0.227771850351254 
1852	 0.246861119244678 
1853	 0.277024000839408 
1854	 0.272687688796066 
1855	 0.212592075181196 
1856	 0.184299470278107 
1857	 0.143922221845718 
1858	 0.135356513481631 
1859	 0.140195008482917 
1860	 0.16787375556707 
1861	 0.173596846838807 
1862	 0.187207893539729 
1863	 0.192697622795171 
1864	 0.189870494281996 
1865	 0.181879301300032 
1866	 0.165870056369062 
1867	 0.159674209140581 
1868	 0.137404006720257 
1869	 0.103766409864648 
1870	 9.53188555506509E-02 
1871	 0.108453140150057 
1872	 0.119119738489118 
1873	 0.146152414594087 
1874	 0.156947096033161 
1875	 0.163930204342817 
1876	 0.162074288219058 
1877	 0.153548926609504 
1878	 0.150245666063814 
1879	 0.141319108550937 
1880	 0.137140777892516 
1881	 0.133344775073274 
1882	 0.130394601386051 
1883	 0.126516217558838 
1884	 0.120112719874094 
1885	 0.117713852726599 
1886	 0.112144113297547 
1887	 0.11725947275058 
1888	 0.123247028396285 
1889	 0.124286576841092 
1890	 0.126160603324016 
1891	 0.130776290829538 
1892	 0.12832144253838 
1893	 0.117607687503144 
1894	 0.115351161282239 
1895	 0.114246817888786 
1896	 0.109606199777442 
1897	 0.10345347647539 
1898	 0.109121373706321 
1899	 0.103774114476208 
1900	 8.51635425041491E-02 
1901	 0.076674056390531 
1902	 6.98068768275688E-02 
1903	 7.15715767933406E-02 
1904	 9.25118846683105E-02 
1905	 9.90064700384215E-02 
1906	 0.103399883308372 
1907	 0.113419387494833 
1908	 0.103173904487565 
1909	 9.74888259096771E-02 
1910	 0.115449110643308 
1911	 0.1206334459496 
1912	 0.12564479995097 
1913	 0.136856368246603 
1914	 0.133679367691661 
1915	 0.123264232693247 
1916	 0.12055355431272 
1917	 0.11537992314303 
1918	 0.114805940207656 
1919	 0.115153040351925 
1920	 0.115137168127341 
1921	 0.116641859269315 
1922	 0.114601303094589 
1923	 0.115259164241034 
1924	 0.118854781060181 
1925	 0.118549502577123 
1926	 0.11722310021693 
1927	 0.116665582855177 
1928	 0.115490797390451 
1929	 0.113644884937147 
1930	 0.110840061592531 
1931	 0.110062901834362 
1932	 0.111271151451528 
1933	 0.111814873721786 
1934	 0.111165250075288 
1935	 0.110207473481785 
1936	 0.109880843401583 
1937	 0.107973715373001 
1938	 0.10861261814479 
1939	 0.111220975673709 
1940	 0.113797361494538 
1941	 0.114816919325346 
1942	 0.113943235375806 
1943	 0.11310717783006 
1944	 0.113097815642749 
1945	 0.112606239944002 
1946	 0.113153577049264 
1947	 0.113873180038378 
1948	 0.114771097810839 
1949	 0.115429422756901 
1950	 0.116850033105075 
1951	 0.117383163020219 
1952	 0.11707056501175 
1953	 0.116782326462253 
1954	 0.117276051251792 
1955	 0.11829205391232 
1956	 0.119128028387441 
1957	 0.119754488800013 
1958	 0.119855621726177 
1959	 0.119070540723097 
1960	 0.118797627487019 
1961	 0.118350297693595 
1962	 0.118450533166646 
1963	 0.118841631937247 
1964	 0.119032961984234 
1965	 0.119154570243458 
1966	 0.118864466428386 
1967	 0.11889699836656 
1968	 0.119296514386975 
1969	 0.119514848039784 
1970	 0.120219237961504 
1971	 0.120386603173432 
1972	 0.120253651323569 
1973	 0.119883295901357 
1974	 0.119875969261905 
1975	 0.119810456328384 
1976	 0.120191316427244 
1977	 0.120688707460021 
1978	 0.120608511717363 
1979	 0.120557425422127 
1980	 0.120591364900625 
1981	 0.120492959583334 
1982	 0.120495849429081 
1983	 0.120716799194537 
1984	 0.12085282785844 
1985	 0.120881801303965 
1986	 0.121016657033485 
1987	 0.12103961391604 
1988	 0.12117835723838 
1989	 0.121444839880456 
1990	 0.121613812473984 
1991	 0.121957043476453 
1992	 0.122557219509192 
1993	 0.12269139313863 
1994	 0.122422212076793 
1995	 0.122416264669666 
1996	 0.122399141417219 
1997	 0.122215220740233 
1998	 0.122142433855685 
1999	 0.12239568567283 
2000	 0.122237372370149 
2001	 0.122263940105399 
2002	 0.122830366889788 
2003	 0.122825387715577 
2004	 0.123113251900415 
2005	 0.124098378938453 
2006	 0.124570629519266 
2007	 0.124632187313443 
2008	 0.125168842064975 
2009	 0.126082688622748 
2010	 0.125729556358961 
2011	 0.124679768869638 
2012	 0.124526039027142 
2013	 0.124349060333859 
2014	 0.12432430579704 
2015	 0.125321966785515 
2016	 0.125888199351983 
2017	 0.125697563158207 
2018	 0.12544843231906 
2019	 0.125431615657979 
2020	 0.12528677695778 
2021	 0.125274245313379 
2022	 0.126010836131517 
2023	 0.126505745339852 
2024	 0.126446243308002 
2025	 0.127037375354673 
2026	 0.12706241450138 
2027	 0.126705826850518 
2028	 0.126725139891357 
2029	 0.126564254925067 
2030	 0.126394116597021 
2031	 0.126479477807274 
2032	 0.126549095150268 
2033	 0.126762510860532 
2034	 0.126663762834801 
2035	 0.126592274768518 
2036	 0.126713761282297 
2037	 0.126762268722705 
2038	 0.126811380005637 
2039	 0.126871699641371 
2040	 0.126961170037071 
2041	 0.127126358760132 
2042	 0.127276216067402 
2043	 0.127383921660266 
2044	 0.127401840746453 
2045	 0.127504197530413 
2046	 0.127452649457923 
2047	 0.127786141501232 
2048	 0.128065107985829 
2049	 0.128420826492404 
2050	 0.12884978029712 
2051	 0.128543531106248 
2052	 0.12865581461408 
2053	 0.128899585251763 
2054	 0.128962476203041 
2055	 0.129444318803022 
2056	 0.129835283444499 
2057	 0.129917347918949 
2058	 0.129737066818439 
2059	 0.129665185427163 
2060	 0.129546202488269 
2061	 0.129303756242736 
2062	 0.129234561620794 
2063	 0.129498521405816 
2064	 0.129763632820708 
2065	 0.130175456927154 
2066	 0.130491602652238 
2067	 0.13044209331162 
2068	 0.13026557819701 
2069	 0.130029696107546 
2070	 0.129621340857384 
2071	 0.12944131544298 
2072	 0.129466349307818 
2073	 0.129660175401579 
2074	 0.129702031292641 
2075	 0.129747989305737 
2076	 0.129831204973735 
2077	 0.129744191256459 
2078	 0.129661179070503 
2079	 0.129998560096557 
2080	 0.130471023580257 
2081	 0.130521406312285 
2082	 0.130728799803255 
2083	 0.130919929896336 
2084	 0.130603290614437 
2085	 0.130714056577173 
2086	 0.130862984266271 
2087	 0.130746781442708 
2088	 0.130369267000115 
2089	 0.130506884751002 
2090	 0.130247991487757 
2091	 0.129749596620739 
2092	 0.129847807164077 
2093	 0.129944529692201 
2094	 0.130263529609108 
2095	 0.130691348507723 
2096	 0.130914381474852 
2097	 0.130979277415098 
2098	 0.130980959770404 
2099	 0.13104797019668 
2100	 0.131301907435946 
2101	 0.131711786605611 
2102	 0.131839758972003 
2103	 0.131795309500435 
2104	 0.131767061938222 
2105	 0.132032244684835 
2106	 0.132159857222887 
2107	 0.132191249764343 
2108	 0.132250102097224 
2109	 0.132066523718412 
2110	 0.131863175144802 
2111	 0.13219624171812 
2112	 0.132752415073331 
2113	 0.132715399134433 
2114	 0.13254222145451 
2115	 0.132188715282684 
2116	 0.13166844130389 
2117	 0.131663614451187 
2118	 0.132392023599317 
2119	 0.132395152636646 
2120	 0.132233124076087 
2121	 0.132412847892186 
2122	 0.132066127329833 
2123	 0.13170383923205 
2124	 0.131930228263122 
2125	 0.132147522475687 
2126	 0.132086416829882 
2127	 0.131958878895145 
2128	 0.131734114392236 
2129	 0.131146722020527 
2130	 0.130914996577236 
2131	 0.130799609222751 
2132	 0.130618570860456 
2133	 0.131041775280733 
2134	 0.131106974821033 
2135	 0.130987340056816 
2136	 0.130882055104076 
2137	 0.130889635224005 
2138	 0.130470724875237 
2139	 0.13063406846573 
2140	 0.13102313134033 
2141	 0.131551085961571 
2142	 0.132138855784056 
2143	 0.131957688135683 
2144	 0.131888378144227 
2145	 0.131835123211421 
2146	 0.13135716845181 
2147	 0.131274527856602 
2148	 0.131156871517614 
2149	 0.130890522769138 
2150	 0.130850814070203 
2151	 0.130647200512519 
2152	 0.13035385044776 
2153	 0.130109267906383 
2154	 0.129754457142762 
2155	 0.129442710960661 
2156	 0.129449806868072 
2157	 0.129615928003697 
2158	 0.129989501019462 
2159	 0.130180707193762 
2160	 0.130335724547518 
2161	 0.130339584904822 
2162	 0.129906932566889 
2163	 0.129921656506739 
2164	 0.129538224903638 
2165	 0.128974587206158 
2166	 0.129164359003039 
2167	 0.129017939124812 
2168	 0.128967083858251 
2169	 0.129373942900161 
2170	 0.129601260190793 
2171	 0.12960934029701 
2172	 0.129619305385425 
2173	 0.130032593224391 
2174	 0.130102237570549 
2175	 0.130044220068383 
2176	 0.13021074324061 
2177	 0.130096368606639 
2178	 0.129798152799829 
2179	 0.129769174128869 
2180	 0.129453408670775 
2181	 0.128984217424657 
2182	 0.128915785892419 
2183	 0.128720658310243 
2184	 0.128704417475197 
2185	 0.12871620947755 
2186	 0.128372234344841 
2187	 0.128024449644699 
2188	 0.127313742068236 
2189	 0.126869395078196 
2190	 0.126470883603625 
2191	 0.126287103476529 
2192	 0.1262241460404 
2193	 0.126236482221381 
2194	 0.126068325969019 
2195	 0.125978074337308 
2196	 0.125826788855297 
2197	 0.125504572069008 
2198	 0.125540007233282 
2199	 0.125646438397916 
2200	 0.125293299281289 
2201	 0.125007135242365 
2202	 0.124447080042826 
2203	 0.123749613446538 
2204	 0.123202643117589 
2205	 0.122587139549511 
2206	 0.122598371582943 
2207	 0.12275328495122 
2208	 0.122725631412932 
2209	 0.123064249148586 
2210	 0.123053872402563 
2211	 0.122809726872422 
2212	 0.122039479483544 
2213	 0.121835193126473 
2214	 0.121611854929549 
2215	 0.121067901533356 
2216	 0.121270005588992 
2217	 0.120552993921437 
2218	 0.119409955515415 
2219	 0.119057094586808 
2220	 0.118042136813045 
2221	 0.117418928151237 
2222	 0.117137806432524 
2223	 0.115947412273172 
2224	 0.115040542670383 
2225	 0.114525877829915 
2226	 0.114043251116906 
2227	 0.113803294491327 
2228	 0.113150363914341 
2229	 0.111901306785149 
2230	 0.110748668478351 
2231	 0.109806047642082 
2232	 0.108852312304393 
2233	 0.108060740095465 
2234	 0.107708816636133 
2235	 0.106935654683593 
2236	 0.105795960627295 
2237	 0.105205613574633 
2238	 0.104094688078398 
2239	 0.103053589568093 
2240	 0.101907850236376 
2241	 0.100405569077265 
2242	 0.100079361817451 
2243	 9.94641888739776E-02 
2244	 9.84072301228521E-02 
2245	 9.76448213759697E-02 
2246	 9.60890686170753E-02 
2247	 9.47837685735012E-02 
2248	 9.41934813065392E-02 
2249	 9.38651827322398E-02 
2250	 9.36105755828893E-02 
2251	 0.092903278007071 
2252	 9.19186303296942E-02 
2253	 0.090965437534129 
2254	 8.97086726321205E-02 
2255	 8.83553667068455E-02 
2256	 8.71130993364916E-02 
2257	 8.60880454978481E-02 
2258	 8.45087941197216E-02 
2259	 8.27824654939127E-02 
2260	 0.081100299095156 
2261	 7.96219422396823E-02 
2262	 7.86839679296936E-02 
2263	 7.78205728157851E-02 
2264	 0.077192082588234 
2265	 7.64495240306119E-02 
2266	 7.52324951842825E-02 
2267	 0.074279049463542 
2268	 7.40366973866374E-02 
2269	 7.34531895808735E-02 
2270	 7.30410738765868E-02 
2271	 7.28805201284144E-02 
2272	 7.25460315127826E-02 
2273	 7.26987087500872E-02 
2274	 7.28731469834636E-02 
2275	 7.34862224962539E-02 
2276	 7.41534723712714E-02 
2277	 7.49791522317723E-02 
2278	 7.58171695824723E-02 
2279	 7.60052242024404E-02 
2280	 7.67475685870053E-02 
2281	 0.077301023132855 
2282	 7.76924401753238E-02 
2283	 7.89461115345097E-02 
2284	 7.98954373645133E-02 
2285	 8.09705991774439E-02 
2286	 8.20889630818218E-02 
2287	 8.35717385302633E-02 
2288	 8.42309983646155E-02 
2289	 8.51859490202961E-02 
2290	 8.58500701202062E-02 
2291	 8.55472779385253E-02 
2292	 8.57282695460855E-02 
2293	 8.55768221518454E-02 
2294	 8.51326877228765E-02 
2295	 8.58575609975814E-02 
2296	 8.71588631081394E-02 
2297	 8.75389516611673E-02 
2298	 8.73558001314435E-02 
2299	 8.72632366505258E-02 
2300	 8.70724774440188E-02 
2301	 8.79922923071412E-02 
2302	 8.94779584173048E-02 
2303	 9.00279526559846E-02 
2304	 9.03299843459584E-02 
2305	 9.03587819186641E-02 
2306	 0.08954995181436 
2307	 8.90547316524268E-02 
2308	 8.84669943590673E-02 
2309	 8.72500647959854E-02 
2310	 8.71181340981861E-02 
2311	 8.69063599888019E-02 
2312	 8.57015944140891E-02 
2313	 0.084736923712435 
2314	 8.45554130928933E-02 
2315	 8.42965102178643E-02 
2316	 8.43070841390609E-02 
2317	 8.52564814354999E-02 
2318	 8.47323527239104E-02 
2319	 8.39043101931524E-02 
2320	 8.33057896340489E-02 
2321	 8.24033708065968E-02 
2322	 8.09516981158828E-02 
2323	 8.04178905026351E-02 
2324	 8.01521621563977E-02 
2325	 7.95594181671052E-02 
2326	 8.01317364801315E-02 
2327	 7.96577569758599E-02 
2328	 7.89990345281499E-02 
2329	 0.079580552774726 
2330	 7.90794317061779E-02 
2331	 7.86131146480641E-02 
2332	 0.078229154592665 
2333	 7.69231298485994E-02 
2334	 7.64188215213794E-02 
2335	 7.64873914754152E-02 
2336	 0.076448156537449 
2337	 7.65578498127338E-02 
2338	 7.77406152274436E-02 
2339	 7.82009720086407E-02 
2340	 7.70133611998902E-02 
2341	 7.77871966541475E-02 
2342	 7.89991697401798E-02 
2343	 7.93341264278102E-02 
2344	 8.08758946281121E-02 
2345	 8.12331235314638E-02 
2346	 7.99285396872963E-02 
2347	 7.89927208675169E-02 
2348	 7.92794102583414E-02 
2349	 8.00609891471978E-02 
2350	 8.03491455610065E-02 
2351	 8.09893707620681E-02 
2352	 8.11964078161164E-02 
2353	 8.23593511666318E-02 
2354	 8.38207067715212E-02 
2355	 8.34257205781475E-02 
2356	 8.38040862975449E-02 
2357	 8.45459472452626E-02 
2358	 8.48657347513642E-02 
2359	 8.51342515386208E-02 
2360	 8.55371787388202E-02 
2361	 8.53288163863727E-02 
2362	 8.49797641944854E-02 
2363	 8.55495925283342E-02 
2364	 8.50622544905798E-02 
2365	 8.53218075718797E-02 
2366	 0.085680966032718 
2367	 8.53222263658112E-02 
2368	 8.56310279892098E-02 
2369	 8.55016688231413E-02 
2370	 8.59376028605017E-02 
2371	 8.60914722353444E-02 
2372	 8.62163453146546E-02 
2373	 8.71782469369844E-02 
2374	 8.73231695958705E-02 
2375	 8.61102535168595E-02 
2376	 8.60526543383494E-02 
2377	 8.56128246719911E-02 
2378	 8.65809386277881E-02 
2379	 8.98614161085508E-02 
2380	 9.11615362769601E-02 
2381	 9.26881692867387E-02 
2382	 9.31862210628126E-02 
2383	 9.15359209210021E-02 
2384	 9.08559897574738E-02 
2385	 9.00455372458812E-02 
2386	 9.05699126112502E-02 
2387	 9.24599207055671E-02 
2388	 9.26380804011365E-02 
2389	 0.092350556493038 
2390	 9.23808018673114E-02 
2391	 9.09714592522792E-02 
2392	 9.06123039352308E-02 
2393	 9.23449668117564E-02 
2394	 9.31790626900147E-02 
2395	 9.31802839115516E-02 
2396	 9.32845217545587E-02 
2397	 9.39263072379465E-02 
2398	 9.38483460108798E-02 
2399	 9.30820854573824E-02 
2400	 9.26102393004976E-02 
2401	 9.22595682458212E-02 
2402	 9.03156118582632E-02 
2403	 0.08846817425052 
2404	 9.00056947603419E-02 
2405	 9.29404877864045E-02 
2406	 9.47956673349697E-02 
2407	 0.099040259709581 
2408	 0.10210927451495 
2409	 0.101912543445447 
2410	 0.103350935056099 
2411	 0.10418521562613 
2412	 0.102148765816509 
2413	 9.96382175905077E-02 
2414	 9.96771818745543E-02 
2415	 9.85320041664353E-02 
2416	 9.83404831001348E-02 
2417	 0.101361766375747 
2418	 9.95404486663661E-02 
2419	 9.96745719036012E-02 
2420	 0.101486123678893 
2421	 9.99712399487566E-02 
2422	 0.099912809980168 
2423	 9.96373195261475E-02 
2424	 9.68033865078771E-02 
2425	 9.25922728646536E-02 
2426	 9.28913294383202E-02 
2427	 9.26819085009406E-02 
2428	 9.13145928339603E-02 
2429	 9.49871839717616E-02 
2430	 9.46174105280628E-02 
2431	 9.54284920302908E-02 
2432	 9.82569659387793E-02 
2433	 9.88677582148715E-02 
2434	 0.100077466327763 
2435	 9.74329681381349E-02 
2436	 9.61126847751886E-02 
2437	 9.73863335735801E-02 
2438	 9.58004909833911E-02 
2439	 9.10259367163517E-02 
2440	 9.14738044496974E-02 
2441	 9.35009716033277E-02 
2442	 9.51075257701288E-02 
2443	 0.104582512001933 
2444	 0.105302681914854 
2445	 9.71111733330721E-02 
2446	 9.46719454808341E-02 
2447	 0.088562181425639 
2448	 8.56984103417369E-02 
2449	 9.01740917754057E-02 
2450	 9.05638654489267E-02 
2451	 8.73764877874133E-02 
2452	 8.95457803324524E-02 
2453	 9.27565264911761E-02 
2454	 9.66683323310693E-02 
2455	 0.109096584663955 
2456	 0.109671944249073 
2457	 0.10207092259583 
2458	 0.100441998706044 
2459	 9.40821208878089E-02 
2460	 9.23099314201776E-02 
2461	 9.69754391076952E-02 
2462	 9.86420044648451E-02 
2463	 0.104282327272091 
2464	 0.101926461438349 
2465	 9.01680859001667E-02 
2466	 8.95489056492744E-02 
2467	 8.79703488646977E-02 
2468	 8.32967489236344E-02 
2469	 8.58834048976733E-02 
2470	 8.71498353864919E-02 
2471	 8.20770513936961E-02 
2472	 8.53433435141466E-02 
2473	 0.100543178927489 
2474	 0.108759052432349 
2475	 0.111485376544874 
2476	 0.118516559811541 
2477	 0.132194724920856 
2478	 0.132355609243183 
2479	 0.129386253490011 
2480	 0.117488955180298 
2481	 7.97964274134622E-02 
2482	 0.064932910572293 
2483	 4.95179760353757E-02 
2484	 4.96396935638699E-02 
2485	 8.14709900978104E-02 
2486	 8.92779593036292E-02 
2487	 8.99209021160266E-02 
2488	 7.58997895528939E-02 
2489	 7.72157393938749E-02 
2490	 8.44689538846507E-02 
2491	 0.100657688997752 
2492	 0.110393656615069 
2493	 0.123411369107182 
2494	 0.148055501164531 
2495	 0.164217336879545 
2496	 0.183187524765402 
2497	 0.187423021965212 
2498	 0.165664664961469 
2499	 0.159794118046159 
2500	 0.155435789911773 
