Wavelength	ref00102.asd
350	 3.60131440201335E-02 
351	 3.69989881013365E-02 
352	 3.63795216954462E-02 
353	 3.58656446187748E-02 
354	 3.52645112331555E-02 
355	 3.49963239966828E-02 
356	 3.52864551373216E-02 
357	 3.59304356612442E-02 
358	 3.59277997809205E-02 
359	 3.58470699402398E-02 
360	 3.63491802883836E-02 
361	 0.036180345442132 
362	 3.61201947564045E-02 
363	 0.036166195010068 
364	 3.58169116334858E-02 
365	 3.54624374358855E-02 
366	 3.51765568940145E-02 
367	 3.50306014090667E-02 
368	 3.51465696534582E-02 
369	 3.54759143608488E-02 
370	 3.55981778893913E-02 
371	 3.53230478710157E-02 
372	 0.035392374138963 
373	 3.54037731423099E-02 
374	 3.52687363204332E-02 
375	 3.50826127092036E-02 
376	 3.49486413391864E-02 
377	 3.48915370004939E-02 
378	 3.50220990088698E-02 
379	 3.55451639524681E-02 
380	 0.035493028005668 
381	 3.52817898750465E-02 
382	 3.54085961593014E-02 
383	 3.57399158081332E-02 
384	 3.60008446399814E-02 
385	 3.60264157406537E-02 
386	 0.035811615671958 
387	 3.58772830049881E-02 
388	 3.60562009038884E-02 
389	 3.61946292318399E-02 
390	 0.036230216587538 
391	 3.64364903477014E-02 
392	 3.67615157818778E-02 
393	 3.70535722446821E-02 
394	 3.70490226034573E-02 
395	 3.72771841504623E-02 
396	 3.74872951923534E-02 
397	 3.73275018077451E-02 
398	 0.037437132319301 
399	 0.037441999640556 
400	 3.73109317571445E-02 
401	 3.73247879586696E-02 
402	 3.74555809468697E-02 
403	 3.75370713046821E-02 
404	 0.037550043381149 
405	 3.78079853272015E-02 
406	 3.81770295709514E-02 
407	 3.85881700511332E-02 
408	 3.89599245630621E-02 
409	 3.91121603517034E-02 
410	 3.91135784542797E-02 
411	 3.91259983667385E-02 
412	 3.93464356490879E-02 
413	 3.94638434046229E-02 
414	 3.96746798041661E-02 
415	 4.00227858854119E-02 
416	 0.040046041238918 
417	 4.03132462125494E-02 
418	 4.06216620084462E-02 
419	 4.06560764830925E-02 
420	 4.09485601445247E-02 
421	 4.13140195846912E-02 
422	 4.15330777709381E-02 
423	 4.14372426557193E-02 
424	 4.16353187243682E-02 
425	 4.19465834156708E-02 
426	 0.042185537972146 
427	 4.24698364282307E-02 
428	 4.27559751966208E-02 
429	 4.29966559527473E-02 
430	 4.31505470522364E-02 
431	 4.32092570706946E-02 
432	 4.32599622570022E-02 
433	 0.043346110276206 
434	 4.34640413274318E-02 
435	 4.35818796711047E-02 
436	 4.37320838763945E-02 
437	 4.38954082048266E-02 
438	 4.39028181283266E-02 
439	 4.40330078650692E-02 
440	 4.42533244044293E-02 
441	 4.44246345764374E-02 
442	 4.44927996581363E-02 
443	 0.044644742065296 
444	 4.48598081224692E-02 
445	 4.49256968669574E-02 
446	 4.51156897473895E-02 
447	 4.52812343299176E-02 
448	 4.53264368901675E-02 
449	 4.54711059604828E-02 
450	 4.55930703747365E-02 
451	 0.045684484886947 
452	 4.57856435729451E-02 
453	 4.59050435073548E-02 
454	 4.61400598844872E-02 
455	 4.63888080748344E-02 
456	 4.63243937227289E-02 
457	 4.64030020425144E-02 
458	 4.64879132695427E-02 
459	 4.64568570033642E-02 
460	 4.66642035164887E-02 
461	 4.68002637506504E-02 
462	 4.67931019385611E-02 
463	 0.046729219147169 
464	 4.67924739826701E-02 
465	 4.69402082948292E-02 
466	 0.047113611549759 
467	 4.72767356030854E-02 
468	 4.73247731612133E-02 
469	 0.047342689160743 
470	 4.74196794448702E-02 
471	 4.74219811283184E-02 
472	 4.74651764327243E-02 
473	 4.75715675607139E-02 
474	 4.76902529374513E-02 
475	 4.77994544992288E-02 
476	 4.78367307915672E-02 
477	 4.78250341555113E-02 
478	 4.79553083999865E-02 
479	 4.80692377192533E-02 
480	 0.048145872150676 
481	 4.82034226135699E-02 
482	 4.81904504675863E-02 
483	 4.83191325002369E-02 
484	 4.86148606442508E-02 
485	 4.88976487527457E-02 
486	 4.90052372505427E-02 
487	 4.91350648844768E-02 
488	 4.93801156448276E-02 
489	 4.93370097562879E-02 
490	 4.94881820856182E-02 
491	 4.97520116025245E-02 
492	 4.98698357397483E-02 
493	 5.01448815773801E-02 
494	 5.04635007457771E-02 
495	 5.07493015535682E-02 
496	 0.051012708414002 
497	 5.13834974808057E-02 
498	 0.051836109380427 
499	 5.23295500058328E-02 
500	 5.29367523428104E-02 
501	 5.34328090772673E-02 
502	 5.39198041675342E-02 
503	 5.46552409315342E-02 
504	 5.52402117847551E-02 
505	 5.58758491374102E-02 
506	 5.66772829970546E-02 
507	 5.74993570593791E-02 
508	 5.84846734365907E-02 
509	 5.95379663733589E-02 
510	 6.05569553317863E-02 
511	 6.17423989396606E-02 
512	 6.30472857784352E-02 
513	 6.44101265597882E-02 
514	 0.06578256755404 
515	 6.73923539913377E-02 
516	 6.92189637710408E-02 
517	 7.11661794257917E-02 
518	 7.31145888077081E-02 
519	 7.50284625365532E-02 
520	 7.68722299713148E-02 
521	 7.86662268941166E-02 
522	 8.06287798002204E-02 
523	 8.26169228183682E-02 
524	 8.45833678963234E-02 
525	 8.65907208162039E-02 
526	 8.88017642934432E-02 
527	 9.09390093726833E-02 
528	 9.27654800968188E-02 
529	 9.44582178456035E-02 
530	 9.61080670129199E-02 
531	 9.77762784326014E-02 
532	 0.099489505784221 
533	 0.101120044316754 
534	 0.102636286358284 
535	 0.104027763282002 
536	 0.105303761450875 
537	 0.10657105242169 
538	 0.107791195985988 
539	 0.108919799357924 
540	 0.110133521471131 
541	 0.111259458717926 
542	 0.112233112892132 
543	 0.113103329416428 
544	 0.113981534432812 
545	 0.114965136392794 
546	 0.116005797852323 
547	 0.116712140802007 
548	 0.117513360030846 
549	 0.118381832441127 
550	 0.119107736600266 
551	 0.119657401191706 
552	 0.120044450535078 
553	 0.120311536101234 
554	 0.12052444420728 
555	 0.120629348382211 
556	 0.120608688304571 
557	 0.120478445507845 
558	 0.120355124983157 
559	 0.120030457619269 
560	 0.119537699030884 
561	 0.119053972034337 
562	 0.118447548561526 
563	 0.117842985954254 
564	 0.117252333825767 
565	 0.116441057602917 
566	 0.115575905080265 
567	 0.114690478431746 
568	 0.11376250911122 
569	 0.112727436607135 
570	 0.111555627322414 
571	 0.110318842127929 
572	 0.109171537657699 
573	 0.108120094568052 
574	 0.107107957352466 
575	 0.106084644990882 
576	 0.105071278677286 
577	 0.104133379213502 
578	 0.103272273878221 
579	 0.102452612729406 
580	 0.101667434491902 
581	 0.100925831996429 
582	 0.100233068135288 
583	 9.95857004184883E-02 
584	 0.098939054430678 
585	 9.83669828644322E-02 
586	 9.79100305735079E-02 
587	 9.73338451586792E-02 
588	 0.0969311675607 
589	 9.66992620827957E-02 
590	 9.64092694870998E-02 
591	 9.59796978343122E-02 
592	 9.55990077438356E-02 
593	 9.53736411085571E-02 
594	 9.52266487458915E-02 
595	 9.51009203262617E-02 
596	 9.48177461506695E-02 
597	 9.42828719855274E-02 
598	 9.39869522885931E-02 
599	 0.093674234096965 
600	 9.32941740320081E-02 
601	 9.30290825360813E-02 
602	 9.27535712319799E-02 
603	 9.24020254577609E-02 
604	 9.19657187043258E-02 
605	 9.15368011644827E-02 
606	 9.11194278576183E-02 
607	 9.06545305377396E-02 
608	 9.00822107951294E-02 
609	 8.96034928649791E-02 
610	 8.91005548115415E-02 
611	 8.85201069837059E-02 
612	 8.79377119763554E-02 
613	 8.73702866000944E-02 
614	 8.67692677831514E-02 
615	 8.61209003371431E-02 
616	 8.56043718572008E-02 
617	 8.50866597313903E-02 
618	 8.45355111891808E-02 
619	 8.39957423994791E-02 
620	 8.35763967497815E-02 
621	 8.32188146596862E-02 
622	 8.28861395803269E-02 
623	 8.26294544155051E-02 
624	 8.24484076731873E-02 
625	 8.23075374174108E-02 
626	 8.21754265155325E-02 
627	 8.21247819983881E-02 
628	 8.20794947414722E-02 
629	 8.20323746628416E-02 
630	 8.20399339859312E-02 
631	 8.18952681927295E-02 
632	 0.081711763517434 
633	 8.15725751109148E-02 
634	 8.13165974517982E-02 
635	 8.09961293041729E-02 
636	 8.05776118268561E-02 
637	 8.00103704114224E-02 
638	 7.93540931492466E-02 
639	 7.86772268369799E-02 
640	 7.79644379154476E-02 
641	 7.71163737549353E-02 
642	 7.62500595578066E-02 
643	 7.53734935991795E-02 
644	 7.44843136497298E-02 
645	 7.36716516095383E-02 
646	 7.28778914128372E-02 
647	 7.21051934425268E-02 
648	 7.13954053427881E-02 
649	 7.07993458320969E-02 
650	 7.02732089389179E-02 
651	 6.98157292529081E-02 
652	 6.94914690102969E-02 
653	 0.069133596120137 
654	 6.87955231549167E-02 
655	 0.068545873893041 
656	 6.82579540777272E-02 
657	 6.78669768207653E-02 
658	 6.73577749092477E-02 
659	 6.67012448861277E-02 
660	 6.59870076678409E-02 
661	 6.52949247950729E-02 
662	 6.46571842514626E-02 
663	 6.39660505218565E-02 
664	 6.33794456152638E-02 
665	 6.28077899106879E-02 
666	 6.21541764390802E-02 
667	 6.17689242974067E-02 
668	 6.13813335636257E-02 
669	 6.09818456204456E-02 
670	 6.07972503712327E-02 
671	 6.05482290683191E-02 
672	 6.03299525078924E-02 
673	 6.02363299781388E-02 
674	 6.01866715184946E-02 
675	 6.02587311105895E-02 
676	 6.03364786022453E-02 
677	 6.03114200979026E-02 
678	 6.05801802485554E-02 
679	 0.060845661547922 
680	 6.10662391332366E-02 
681	 6.15049667429631E-02 
682	 6.21543047244241E-02 
683	 6.29408756487681E-02 
684	 6.38557409476075E-02 
685	 6.50867099280535E-02 
686	 6.66874710690253E-02 
687	 6.88390195219845E-02 
688	 7.14978652189352E-02 
689	 0.074171893437707 
690	 7.72383552351441E-02 
691	 8.09881004372396E-02 
692	 8.52962376736218E-02 
693	 9.01311047059861E-02 
694	 9.56322860523372E-02 
695	 0.101759998143222 
696	 0.108026153621092 
697	 0.114619842218513 
698	 0.121694541813714 
699	 0.129262303516564 
700	 0.136828558013862 
701	 0.144517757076111 
702	 0.152331461287576 
703	 0.160024723343697 
704	 0.167591422526199 
705	 0.174883120183931 
706	 0.18196374963694 
707	 0.189297727704845 
708	 0.196650873656019 
709	 0.203895675744881 
710	 0.210938866752418 
711	 0.217912575409534 
712	 0.224880651545239 
713	 0.231819386427923 
714	 0.238615290855056 
715	 0.245472160504527 
716	 0.252454968890875 
717	 0.259730599652132 
718	 0.267213950344716 
719	 0.274423490269218 
720	 0.281023119278214 
721	 0.287069103015353 
722	 0.292771599295202 
723	 0.298786039059812 
724	 0.305290081381505 
725	 0.31120653351049 
726	 0.3168494777608 
727	 0.322198420897141 
728	 0.32735819061501 
729	 0.332396537007854 
730	 0.337165148882108 
731	 0.341541100328075 
732	 0.345507596164279 
733	 0.349245489717358 
734	 0.35284443714021 
735	 0.356347998136816 
736	 0.35967704315381 
737	 0.362940538759196 
738	 0.365939820414447 
739	 0.368630988992372 
740	 0.371256648109532 
741	 0.373790763894052 
742	 0.376110010355398 
743	 0.378104737278306 
744	 0.379958370646206 
745	 0.381822511617197 
746	 0.383570571217625 
747	 0.38491633472865 
748	 0.38635808515344 
749	 0.387692638167005 
750	 0.388826350100198 
751	 0.390018427133349 
752	 0.390967411147303 
753	 0.391801283856734 
754	 0.392680441016898 
755	 0.393414998444001 
756	 0.394175019024151 
757	 0.394981389217103 
758	 0.395781955958848 
759	 0.396627334296853 
760	 0.397455657810967 
761	 0.398090837876968 
762	 0.398358953416825 
763	 0.398516996458408 
764	 0.398597380556264 
765	 0.398610703752603 
766	 0.398713242209836 
767	 0.398873932170375 
768	 0.399074639304649 
769	 0.399290845365791 
770	 0.399447212744525 
771	 0.399639948917588 
772	 0.39987208038025 
773	 0.400070415780071 
774	 0.400309436805962 
775	 0.400526923134625 
776	 0.40068643688135 
777	 0.400829267593678 
778	 0.400994944823462 
779	 0.401205500484745 
780	 0.40145097087042 
781	 0.401657173686103 
782	 0.401812845174605 
783	 0.401984946013131 
784	 0.402254073577679 
785	 0.402484652636463 
786	 0.402691108069166 
787	 0.402881571524723 
788	 0.403050790504006 
789	 0.403380018831576 
790	 0.403703443227472 
791	 0.403916735347487 
792	 0.404195031474875 
793	 0.404317255679107 
794	 0.404407707763752 
795	 0.404622107726844 
796	 0.404754738452332 
797	 0.405032283864558 
798	 0.405311951500311 
799	 0.405322428436803 
800	 0.405616404018968 
801	 0.405873906305237 
802	 0.40597352253914 
803	 0.406121077037402 
804	 0.406410410276883 
805	 0.40658158368436 
806	 0.406556649237336 
807	 0.406771016049613 
808	 0.407030932739974 
809	 0.407298085614638 
810	 0.407603215715532 
811	 0.408089921650304 
812	 0.408486376544228 
813	 0.408887502930059 
814	 0.409539525769104 
815	 0.410044523704368 
816	 0.410473474666098 
817	 0.410800720962606 
818	 0.410880953161799 
819	 0.410849366436891 
820	 0.410850727005503 
821	 0.41097199140549 
822	 0.411215381856025 
823	 0.41128369883742 
824	 0.411356861860057 
825	 0.411580841765188 
826	 0.411598081204027 
827	 0.411547405919777 
828	 0.411597818439746 
829	 0.411856410594009 
830	 0.412031591260398 
831	 0.412084611456033 
832	 0.412065354753973 
833	 0.412078219369348 
834	 0.412154910502019 
835	 0.412284980823199 
836	 0.412402513288377 
837	 0.412401086065977 
838	 0.41244574524908 
839	 0.412556082995159 
840	 0.412706249838791 
841	 0.412842670746757 
842	 0.413023621388404 
843	 0.413269243411878 
844	 0.413546734177764 
845	 0.413711576873801 
846	 0.413763149056981 
847	 0.413819249120379 
848	 0.414012310576183 
849	 0.414234384667089 
850	 0.414527591281531 
851	 0.414795013555681 
852	 0.414866262421302 
853	 0.414853163125044 
854	 0.414999783310459 
855	 0.415276319442062 
856	 0.415363606493039 
857	 0.41560997692371 
858	 0.415847429044817 
859	 0.415974040817168 
860	 0.416109593603914 
861	 0.416257025722856 
862	 0.416379011160991 
863	 0.416489608369201 
864	 0.416787783589122 
865	 0.416800873860773 
866	 0.416885880568022 
867	 0.417350270306453 
868	 0.417118676954131 
869	 0.417179919523308 
870	 0.417506590465303 
871	 0.41765676513991 
872	 0.41785595225241 
873	 0.418179927673982 
874	 0.418426212878714 
875	 0.418314375441237 
876	 0.418486788435336 
877	 0.418493976354264 
878	 0.418355142387229 
879	 0.41860184117803 
880	 0.418932827433937 
881	 0.419023304989909 
882	 0.418923066468764 
883	 0.419153705298106 
884	 0.419337637075162 
885	 0.419521662812466 
886	 0.419704190878991 
887	 0.419651654440787 
888	 0.419829147171362 
889	 0.420135879663874 
890	 0.420342229122514 
891	 0.420264995940611 
892	 0.420750209240673 
893	 0.421395595132818 
894	 0.42159482171364 
895	 0.421595666518434 
896	 0.422053773565351 
897	 0.422571111216063 
898	 0.422558821325805 
899	 0.422995793526531 
900	 0.423102788894522 
901	 0.42297387911801 
902	 0.423090286600506 
903	 0.423167715395268 
904	 0.423209803120208 
905	 0.423328819996771 
906	 0.423585260326163 
907	 0.423270248867641 
908	 0.423324163418556 
909	 0.423828967155128 
910	 0.424070207377145 
911	 0.424205030843339 
912	 0.424280329691428 
913	 0.424446242706721 
914	 0.424846498897954 
915	 0.424677764011192 
916	 0.424294596190866 
917	 0.423931611402604 
918	 0.423548002849006 
919	 0.423865644709787 
920	 0.423995490174248 
921	 0.423717364524776 
922	 0.423917327576113 
923	 0.424127145483167 
924	 0.423978075278221 
925	 0.423727915813079 
926	 0.424476607527476 
927	 0.424598085148916 
928	 0.424632832127821 
929	 0.425078531465379 
930	 0.425390227672624 
931	 0.426391095807269 
932	 0.427183073192313 
933	 0.427145157942686 
934	 0.427451476338578 
935	 0.427436090503377 
936	 0.427456879459865 
937	 0.427536537673146 
938	 0.426646140699197 
939	 0.427054328737236 
940	 0.427158479289465 
941	 0.42566134475209 
942	 0.423448959840331 
943	 0.423749618795988 
944	 0.423767922094565 
945	 0.421687122994148 
946	 0.4212666867553 
947	 0.420841151134635 
948	 0.4205763249878 
949	 0.420387443844658 
950	 0.418847612133107 
951	 0.418108362519066 
952	 0.417548322142674 
953	 0.416329538690377 
954	 0.41468986811953 
955	 0.413979260828152 
956	 0.413723940965398 
957	 0.4131274503076 
958	 0.411845467674622 
959	 0.410686452031377 
960	 0.409745310603111 
961	 0.409062570466168 
962	 0.408895882704001 
963	 0.408389138798637 
964	 0.407703369629617 
965	 0.407314046083374 
966	 0.407701943178824 
967	 0.407066447345291 
968	 0.405990927375347 
969	 0.405423121531168 
970	 0.405883017373972 
971	 0.405306820241345 
972	 0.404391595167604 
973	 0.403906419877224 
974	 0.40384188943513 
975	 0.404274367224214 
976	 0.404405008992141 
977	 0.404098701830134 
978	 0.404244503537192 
979	 0.405080075454663 
980	 0.40510775952894 
981	 0.404243180425524 
982	 0.404080414941236 
983	 0.404142563078884 
984	 0.404318717464989 
985	 0.404429156112613 
986	 0.404277187837517 
987	 0.403986849283413 
988	 0.404527902619449 
989	 0.405378625020389 
990	 0.405212233832102 
991	 0.405609207213674 
992	 0.406178023142596 
993	 0.406447678895369 
994	 0.406257816337123 
995	 0.406671365101295 
996	 0.406485079124803 
997	 0.406702334144503 
998	 0.408388707336163 
999	 0.40807633375358 
1000	 0.408054086045973 
1001	 0.410201709011704 
1002	 0.410495267565725 
1003	 0.410814904163086 
1004	 0.411049688412291 
1005	 0.411475645881279 
1006	 0.412094986488164 
1007	 0.412535543222646 
1008	 0.412959246708514 
1009	 0.413463891168022 
1010	 0.413983518627314 
1011	 0.414362102190393 
1012	 0.414729691957319 
1013	 0.415160088714304 
1014	 0.415472158917452 
1015	 0.41587330287596 
1016	 0.416382073041818 
1017	 0.416798834445242 
1018	 0.417253339744729 
1019	 0.417682991604327 
1020	 0.418078879991063 
1021	 0.418492298630252 
1022	 0.418976880493628 
1023	 0.419494826413628 
1024	 0.41987714206589 
1025	 0.420404928925331 
1026	 0.420918844962602 
1027	 0.421371507031899 
1028	 0.421771971508917 
1029	 0.422163775915999 
1030	 0.422552863914967 
1031	 0.422858512862947 
1032	 0.423241207578871 
1033	 0.423618383476232 
1034	 0.42397926087559 
1035	 0.424365779622141 
1036	 0.42480415521334 
1037	 0.425189862230908 
1038	 0.425580253885507 
1039	 0.425933844932585 
1040	 0.42623488347778 
1041	 0.426468395817951 
1042	 0.426767337607086 
1043	 0.427192127271122 
1044	 0.427565019770237 
1045	 0.427936992348053 
1046	 0.42838513836783 
1047	 0.428529151654396 
1048	 0.428539659549094 
1049	 0.42883498919115 
1050	 0.429084304926737 
1051	 0.429309471268169 
1052	 0.429523431889908 
1053	 0.429754956368559 
1054	 0.429816561296551 
1055	 0.429995774182668 
1056	 0.430320906888983 
1057	 0.430516950919335 
1058	 0.430725053699903 
1059	 0.430832591905814 
1060	 0.430798828337087 
1061	 0.430953203989127 
1062	 0.431101227755031 
1063	 0.431147534017953 
1064	 0.431180136995709 
1065	 0.431225313771757 
1066	 0.431272273702719 
1067	 0.431363307328421 
1068	 0.431354019317581 
1069	 0.431370237417482 
1070	 0.431435125766031 
1071	 0.431432959102098 
1072	 0.43144947987157 
1073	 0.431496207427025 
1074	 0.431502023598752 
1075	 0.431459049144307 
1076	 0.431498269007987 
1077	 0.431565574540707 
1078	 0.431645316382479 
1079	 0.431796942050742 
1080	 0.431859120174923 
1081	 0.431881163918693 
1082	 0.431836504677112 
1083	 0.431815619001074 
1084	 0.431724365699805 
1085	 0.431728231856574 
1086	 0.431900278219672 
1087	 0.431876176962976 
1088	 0.431834326555431 
1089	 0.431862541894339 
1090	 0.431747618755276 
1091	 0.431691627584994 
1092	 0.431684583011374 
1093	 0.431629995584399 
1094	 0.431632991609313 
1095	 0.431638530864794 
1096	 0.431669381474631 
1097	 0.431784387711907 
1098	 0.431864361613714 
1099	 0.431956559536924 
1100	 0.431954534157284 
1101	 0.431982669577491 
1102	 0.431990169936052 
1103	 0.432026564729118 
1104	 0.432202484676937 
1105	 0.432318224694424 
1106	 0.432416153437303 
1107	 0.432609217918323 
1108	 0.43277228770731 
1109	 0.433093040348835 
1110	 0.433517970827437 
1111	 0.433894450565382 
1112	 0.434209672536849 
1113	 0.434702569817225 
1114	 0.435430554965759 
1115	 0.435979765501287 
1116	 0.436559202277251 
1117	 0.437172261504811 
1118	 0.437545697477893 
1119	 0.437833568031799 
1120	 0.438164815538979 
1121	 0.438329282080559 
1122	 0.438199139488228 
1123	 0.437798705522529 
1124	 0.437379807713926 
1125	 0.436921652654283 
1126	 0.436180518156817 
1127	 0.43539641902682 
1128	 0.434360507237069 
1129	 0.433126367624448 
1130	 0.431672577041397 
1131	 0.430103510002008 
1132	 0.428448014045151 
1133	 0.426554656924667 
1134	 0.424727634347847 
1135	 0.423008070460556 
1136	 0.421296106391083 
1137	 0.419677537387938 
1138	 0.418044948980858 
1139	 0.416417765508006 
1140	 0.414798037907494 
1141	 0.413080002207569 
1142	 0.411269910923908 
1143	 0.409525810508488 
1144	 0.407819161160772 
1145	 0.405957586295278 
1146	 0.404090810486611 
1147	 0.402180557610491 
1148	 0.400220902088705 
1149	 0.39820445390084 
1150	 0.396251035260986 
1151	 0.394299325330786 
1152	 0.392280853524032 
1153	 0.39042902111795 
1154	 0.388768253598072 
1155	 0.387439694356109 
1156	 0.386341687226992 
1157	 0.385160755567012 
1158	 0.384178908711532 
1159	 0.383273501589703 
1160	 0.382383259678395 
1161	 0.381530810089848 
1162	 0.380787368405697 
1163	 0.379968009723506 
1164	 0.379412635898891 
1165	 0.379038960239457 
1166	 0.378638253640894 
1167	 0.378394856582411 
1168	 0.378098438069659 
1169	 0.377731689866447 
1170	 0.377448303653678 
1171	 0.377216392686694 
1172	 0.377025570866762 
1173	 0.37691789830587 
1174	 0.376747943505173 
1175	 0.376524749998395 
1176	 0.37627040085114 
1177	 0.376056222025702 
1178	 0.37578781375668 
1179	 0.375610074463266 
1180	 0.375561812720355 
1181	 0.375370370114243 
1182	 0.375121724525344 
1183	 0.374890239515994 
1184	 0.374577966344447 
1185	 0.374353146745993 
1186	 0.374175360783255 
1187	 0.374009670961644 
1188	 0.373885996441175 
1189	 0.373741247898078 
1190	 0.373622983855404 
1191	 0.373542245820475 
1192	 0.373479057698274 
1193	 0.373452954735558 
1194	 0.373391827725901 
1195	 0.373341690185899 
1196	 0.373282735594509 
1197	 0.373149272361119 
1198	 0.373145617005382 
1199	 0.373204470824731 
1200	 0.373262815851188 
1201	 0.373412660146001 
1202	 0.373517531360499 
1203	 0.373587176621093 
1204	 0.373699112979048 
1205	 0.373837808239303 
1206	 0.373964975308275 
1207	 0.374057876910034 
1208	 0.374234719852001 
1209	 0.374455355323217 
1210	 0.374660633994665 
1211	 0.375003293586349 
1212	 0.375360373530998 
1213	 0.375633069926231 
1214	 0.375871514225989 
1215	 0.376148099436944 
1216	 0.376359086468729 
1217	 0.376679712759879 
1218	 0.377100587602682 
1219	 0.37745503522582 
1220	 0.377829940426214 
1221	 0.378179849359858 
1222	 0.378493466411141 
1223	 0.378835203431383 
1224	 0.379202924339715 
1225	 0.379531476136173 
1226	 0.379869189293883 
1227	 0.380171889628102 
1228	 0.380414985965347 
1229	 0.380688266180044 
1230	 0.38098511569842 
1231	 0.381184670957554 
1232	 0.381476976271724 
1233	 0.381808640272392 
1234	 0.382125782145794 
1235	 0.382491101878854 
1236	 0.382784951269851 
1237	 0.383025335362006 
1238	 0.383312790223436 
1239	 0.383545507890184 
1240	 0.383890816007862 
1241	 0.384384886057202 
1242	 0.384735116125257 
1243	 0.385100878524894 
1244	 0.38539678233546 
1245	 0.385550714611215 
1246	 0.385767563274452 
1247	 0.385987728259781 
1248	 0.386213413059203 
1249	 0.386456165623651 
1250	 0.386680867431184 
1251	 0.386843327686929 
1252	 0.387107467880123 
1253	 0.387385742972845 
1254	 0.387700295774194 
1255	 0.387973004556176 
1256	 0.388307614129633 
1257	 0.388555925991067 
1258	 0.388735015771878 
1259	 0.388916237692306 
1260	 0.389060570320503 
1261	 0.3892395393532 
1262	 0.38943045486968 
1263	 0.389570829632499 
1264	 0.389734912160746 
1265	 0.389830131746035 
1266	 0.389812068375973 
1267	 0.389845737805845 
1268	 0.389914816295595 
1269	 0.389914650581484 
1270	 0.389852243775515 
1271	 0.389828064465578 
1272	 0.389787473191229 
1273	 0.389750222483323 
1274	 0.389648862909335 
1275	 0.38955489981991 
1276	 0.389444803740819 
1277	 0.38929789486071 
1278	 0.38907334083486 
1279	 0.388810458070219 
1280	 0.388593932775981 
1281	 0.388297221997172 
1282	 0.388043158764254 
1283	 0.387906258399793 
1284	 0.387659872266806 
1285	 0.387332945104395 
1286	 0.387010855280678 
1287	 0.386695040140009 
1288	 0.386325772526456 
1289	 0.385878346944195 
1290	 0.385471007508052 
1291	 0.385054310736051 
1292	 0.384631894724773 
1293	 0.384274663612832 
1294	 0.383824862038574 
1295	 0.383355582945173 
1296	 0.382775097072118 
1297	 0.382183937599396 
1298	 0.381491060391639 
1299	 0.380890920844875 
1300	 0.380300771131055 
1301	 0.379684890991685 
1302	 0.379107047242867 
1303	 0.378456409051137 
1304	 0.377759392765879 
1305	 0.377023904030006 
1306	 0.376285731582675 
1307	 0.375447005601496 
1308	 0.374492897256564 
1309	 0.373569295792431 
1310	 0.372558913927566 
1311	 0.371606618185014 
1312	 0.370728697426705 
1313	 0.369766393124305 
1314	 0.368796851660197 
1315	 0.367783354643425 
1316	 0.366711013569753 
1317	 0.365614561452822 
1318	 0.36447042073863 
1319	 0.363326147396232 
1320	 0.362139190675279 
1321	 0.360927894686735 
1322	 0.359755071377044 
1323	 0.358593562627739 
1324	 0.357390187698734 
1325	 0.356172977711083 
1326	 0.354903445394956 
1327	 0.353527654884404 
1328	 0.352229731757701 
1329	 0.350965686428446 
1330	 0.349607519576507 
1331	 0.348275044664737 
1332	 0.346858506521423 
1333	 0.345286407155763 
1334	 0.343849600428106 
1335	 0.342449045363999 
1336	 0.341082036880175 
1337	 0.339587348892876 
1338	 0.338424648766262 
1339	 0.337353880998434 
1340	 0.336432988080203 
1341	 0.335818658846147 
1342	 0.3352291457529 
1343	 0.334673279885562 
1344	 0.334245325028149 
1345	 0.334088934788867 
1346	 0.333924760561667 
1347	 0.333771757702148 
1348	 0.333946053518161 
1349	 0.334299887582054 
1350	 0.335124514004791 
1351	 0.335998098399914 
1352	 0.337835208718989 
1353	 0.339434420056434 
1354	 0.341033536702682 
1355	 0.342782612244758 
1356	 0.343011258880295 
1357	 0.345434365076165 
1358	 0.34724416755189 
1359	 0.352325037668361 
1360	 0.367610290654516 
1361	 0.377778769545126 
1362	 0.368915481738368 
1363	 0.369874027920319 
1364	 0.355449763569843 
1365	 0.349990808850464 
1366	 0.369701822885694 
1367	 0.367412343626437 
1368	 0.353348945796 
1369	 0.345451695967531 
1370	 0.333652416583794 
1371	 0.32832059045377 
1372	 0.32751156866705 
1373	 0.326619688954851 
1374	 0.327821125506217 
1375	 0.327007191937296 
1376	 0.325239074860397 
1377	 0.322352320895128 
1378	 0.31780939764399 
1379	 0.309815081518893 
1380	 0.30453378323865 
1381	 0.300440314193684 
1382	 0.292928965697993 
1383	 0.286155990701481 
1384	 0.277406087854052 
1385	 0.265431973102104 
1386	 0.257907603854893 
1387	 0.253584013532733 
1388	 0.247402272868772 
1389	 0.240970578359057 
1390	 0.236949900425447 
1391	 0.234573535718901 
1392	 0.229499159988751 
1393	 0.225161977299964 
1394	 0.219559084159351 
1395	 0.210773821885314 
1396	 0.204277495381415 
1397	 0.199610876023488 
1398	 0.193721572128983 
1399	 0.186880911629928 
1400	 0.18129420493748 
1401	 0.175373759106287 
1402	 0.170881994144546 
1403	 0.168767770404534 
1404	 0.165411902147689 
1405	 0.162372551737252 
1406	 0.159153656220692 
1407	 0.154908614603514 
1408	 0.151801091639327 
1409	 0.148526278290947 
1410	 0.144634536504577 
1411	 0.141412094947129 
1412	 0.137933555345241 
1413	 0.1359956323186 
1414	 0.134784320601876 
1415	 0.13326546396807 
1416	 0.132475480250001 
1417	 0.130872757424301 
1418	 0.128643806547286 
1419	 0.127231329477379 
1420	 0.126076915344884 
1421	 0.124743055306584 
1422	 0.123419099483042 
1423	 0.122427300577381 
1424	 0.121435836155067 
1425	 0.120491857918958 
1426	 0.119799952724422 
1427	 0.11904437251887 
1428	 0.117934516038872 
1429	 0.117317850195037 
1430	 0.117119393674991 
1431	 0.116697589422145 
1432	 0.116375424621264 
1433	 0.115928301459136 
1434	 0.115175162661004 
1435	 0.114757424440531 
1436	 0.114575133413768 
1437	 0.114290375388663 
1438	 0.114155707504272 
1439	 0.113903996620979 
1440	 0.113516570215302 
1441	 0.113171455533141 
1442	 0.11273627050869 
1443	 0.112499998964464 
1444	 0.112371709327716 
1445	 0.112169806268098 
1446	 0.112142731733701 
1447	 0.111906670008773 
1448	 0.111680506158757 
1449	 0.111333120079394 
1450	 0.111188830801152 
1451	 0.111129634930615 
1452	 0.110978718584011 
1453	 0.11082556290697 
1454	 0.110764683826502 
1455	 0.11062602617452 
1456	 0.110648975492549 
1457	 0.110892813033261 
1458	 0.110918806562332 
1459	 0.110832111140314 
1460	 0.110922528261645 
1461	 0.110946006872333 
1462	 0.111172337057657 
1463	 0.111678817124301 
1464	 0.112088528690797 
1465	 0.112545097940379 
1466	 0.113033850709424 
1467	 0.113528428109661 
1468	 0.114084887422803 
1469	 0.114745074684716 
1470	 0.115315312618779 
1471	 0.115757998137695 
1472	 0.116353769341002 
1473	 0.116935540887127 
1474	 0.117535252706286 
1475	 0.11824872808259 
1476	 0.118886834875231 
1477	 0.119459673541093 
1478	 0.120034173521725 
1479	 0.120564056148876 
1480	 0.121152109422289 
1481	 0.121683070422672 
1482	 0.122299037592161 
1483	 0.123036979833014 
1484	 0.123702957762834 
1485	 0.124312992154451 
1486	 0.12499986645028 
1487	 0.125707048277949 
1488	 0.126374935795102 
1489	 0.127071797413705 
1490	 0.127757382915068 
1491	 0.128440222706631 
1492	 0.129089637771341 
1493	 0.129763799291483 
1494	 0.130476186529134 
1495	 0.13116093843851 
1496	 0.131813397681977 
1497	 0.132561464992402 
1498	 0.133350053706523 
1499	 0.134190333875025 
1500	 0.13513747383131 
1501	 0.135987229073792 
1502	 0.136819450513268 
1503	 0.137722378628141 
1504	 0.13861616381839 
1505	 0.139539930119227 
1506	 0.140551378220877 
1507	 0.141479207575114 
1508	 0.142350872620309 
1509	 0.143261015877425 
1510	 0.144190334069358 
1511	 0.145078933862412 
1512	 0.145956663244482 
1513	 0.146828791734667 
1514	 0.147657374940261 
1515	 0.148553949341487 
1516	 0.149500007931083 
1517	 0.15043211739343 
1518	 0.151406388997289 
1519	 0.152341948371876 
1520	 0.153253561471307 
1521	 0.154177251552351 
1522	 0.155124900546657 
1523	 0.156017626736021 
1524	 0.156853088921032 
1525	 0.15776073226393 
1526	 0.158644912428623 
1527	 0.159597186364725 
1528	 0.160689094561484 
1529	 0.16166441241169 
1530	 0.162609974299802 
1531	 0.163553910077584 
1532	 0.164440133578467 
1533	 0.165350870694608 
1534	 0.166292968026869 
1535	 0.167198905720226 
1536	 0.168075204659109 
1537	 0.168965921202264 
1538	 0.169871511273584 
1539	 0.170742429606242 
1540	 0.171578156052952 
1541	 0.172441574104384 
1542	 0.173282658917942 
1543	 0.174148159875779 
1544	 0.175072814384657 
1545	 0.175963547989117 
1546	 0.176830613291893 
1547	 0.177712435948762 
1548	 0.178596041199217 
1549	 0.179474188164111 
1550	 0.180376439386028 
1551	 0.181254814815236 
1552	 0.182126068038779 
1553	 0.18297244184537 
1554	 0.183800202018172 
1555	 0.184608463264219 
1556	 0.185346288148842 
1557	 0.186141243695444 
1558	 0.187006656455138 
1559	 0.187796300614354 
1560	 0.188550970697743 
1561	 0.189342258702022 
1562	 0.190090274478699 
1563	 0.190854462007795 
1564	 0.191683121683293 
1565	 0.192507417911085 
1566	 0.193321602455579 
1567	 0.194123331081445 
1568	 0.1949090415283 
1569	 0.195696237218913 
1570	 0.196493250718459 
1571	 0.197273211712907 
1572	 0.198041837847909 
1573	 0.198829637775975 
1574	 0.199569326886031 
1575	 0.200234338751245 
1576	 0.20098159404748 
1577	 0.201747256861461 
1578	 0.202488957433328 
1579	 0.203277439386311 
1580	 0.203925935035782 
1581	 0.204476042063983 
1582	 0.205102289568194 
1583	 0.205660324079303 
1584	 0.206332207078583 
1585	 0.207104166706551 
1586	 0.207807467101684 
1587	 0.208523296413484 
1588	 0.209217986597358 
1589	 0.209891606534354 
1590	 0.210582452584279 
1591	 0.211317031867259 
1592	 0.211921714752278 
1593	 0.212455910618363 
1594	 0.213046177299561 
1595	 0.213543604010725 
1596	 0.21419007719096 
1597	 0.215001143956735 
1598	 0.215619709262513 
1599	 0.216194982869006 
1600	 0.216793126383024 
1601	 0.217311047422396 
1602	 0.217872042555439 
1603	 0.218476028384696 
1604	 0.219080482196136 
1605	 0.219637299064543 
1606	 0.220267490305828 
1607	 0.220988911840176 
1608	 0.221620047627205 
1609	 0.222253065444793 
1610	 0.222803147091037 
1611	 0.223253168612459 
1612	 0.223800327426111 
1613	 0.224342729551912 
1614	 0.224880103739812 
1615	 0.225479513650876 
1616	 0.226015095533957 
1617	 0.226498213806499 
1618	 0.226964652480567 
1619	 0.227421863181082 
1620	 0.227870639141381 
1621	 0.228268885520328 
1622	 0.228717778957116 
1623	 0.22918514597972 
1624	 0.229664515176995 
1625	 0.230190931667926 
1626	 0.230627260352795 
1627	 0.231049751335224 
1628	 0.231455684364087 
1629	 0.231760190588201 
1630	 0.232188491546034 
1631	 0.232718776892865 
1632	 0.233123666676824 
1633	 0.233520859278161 
1634	 0.233903791233843 
1635	 0.234207289330091 
1636	 0.234564471459064 
1637	 0.234938254794604 
1638	 0.235348120076188 
1639	 0.235795598205203 
1640	 0.236163568553848 
1641	 0.236570821687188 
1642	 0.236856378424554 
1643	 0.236980454371603 
1644	 0.237270957666931 
1645	 0.23761150973255 
1646	 0.237878687155519 
1647	 0.238175985291228 
1648	 0.238414546079453 
1649	 0.238546549926136 
1650	 0.238776283079139 
1651	 0.239074205625778 
1652	 0.239324826121698 
1653	 0.239589567267253 
1654	 0.239768126945717 
1655	 0.23989923926987 
1656	 0.240029950450372 
1657	 0.240098015958821 
1658	 0.240171706856333 
1659	 0.24032484006182 
1660	 0.240448969872547 
1661	 0.240559427182346 
1662	 0.240713403410353 
1663	 0.240737709782412 
1664	 0.24065464287497 
1665	 0.240614947219473 
1666	 0.240646061082016 
1667	 0.240747068799026 
1668	 0.240887751300328 
1669	 0.240946603785258 
1670	 0.24094314536763 
1671	 0.240869364472035 
1672	 0.240678378887286 
1673	 0.240580960858072 
1674	 0.240413457278986 
1675	 0.240235707416849 
1676	 0.240351229694961 
1677	 0.240373456255273 
1678	 0.240213163518145 
1679	 0.240109058195514 
1680	 0.239924919464167 
1681	 0.239651904782679 
1682	 0.239490403945538 
1683	 0.239315940830722 
1684	 0.239014830606165 
1685	 0.238788630680043 
1686	 0.23860175744118 
1687	 0.238320815308977 
1688	 0.237927600599459 
1689	 0.23752353081149 
1690	 0.237260564835582 
1691	 0.236894213184815 
1692	 0.236543546755621 
1693	 0.236159568554224 
1694	 0.235621040012317 
1695	 0.235179997476745 
1696	 0.234836066513914 
1697	 0.234445120364746 
1698	 0.234017250581152 
1699	 0.233623668081527 
1700	 0.233262644709336 
1701	 0.232847494830081 
1702	 0.232460275174004 
1703	 0.232005317931731 
1704	 0.231386439386389 
1705	 0.230950585503837 
1706	 0.230626928955942 
1707	 0.230217001045292 
1708	 0.229924692538284 
1709	 0.229491335602026 
1710	 0.228881256501154 
1711	 0.228308339014784 
1712	 0.227654369618652 
1713	 0.227142165028414 
1714	 0.22666915964094 
1715	 0.226292266077787 
1716	 0.226112828275285 
1717	 0.225765680102581 
1718	 0.225392753618967 
1719	 0.224992923365327 
1720	 0.224417407555376 
1721	 0.224065504346287 
1722	 0.22390638901864 
1723	 0.223544705418057 
1724	 0.223161262557842 
1725	 0.222806421810806 
1726	 0.222292975544268 
1727	 0.221899108120193 
1728	 0.221672344803829 
1729	 0.221398333619218 
1730	 0.221156936056425 
1731	 0.22075794091767 
1732	 0.220401889986093 
1733	 0.22032112801143 
1734	 0.219854350755903 
1735	 0.219542225028548 
1736	 0.219346746593604 
1737	 0.21888496621807 
1738	 0.21857964535312 
1739	 0.218120278994721 
1740	 0.217594184261712 
1741	 0.217106491740192 
1742	 0.216432950914814 
1743	 0.215893009258173 
1744	 0.215367753211267 
1745	 0.214955750892764 
1746	 0.214606768121015 
1747	 0.213932202678982 
1748	 0.213334030778745 
1749	 0.212532736032605 
1750	 0.211565637151159 
1751	 0.21122929097312 
1752	 0.210951847693838 
1753	 0.210485081581724 
1754	 0.210035481036126 
1755	 0.209286700101336 
1756	 0.208497419906828 
1757	 0.207864728780112 
1758	 0.207313055911314 
1759	 0.206839331371221 
1760	 0.206427065419371 
1761	 0.206236456230325 
1762	 0.205811574063699 
1763	 0.205237728602769 
1764	 0.204801020279582 
1765	 0.204215671837761 
1766	 0.203764204288508 
1767	 0.203553494794302 
1768	 0.203261913141566 
1769	 0.203009694236919 
1770	 0.202709792465763 
1771	 0.202292577664885 
1772	 0.202135797034187 
1773	 0.20205834566683 
1774	 0.202023463404149 
1775	 0.20191802311183 
1776	 0.201729991874868 
1777	 0.201477748111779 
1778	 0.201363207858335 
1779	 0.201591628957733 
1780	 0.201573617735373 
1781	 0.201611578848234 
1782	 0.201340627672586 
1783	 0.200897538783711 
1784	 0.200996255697536 
1785	 0.200769657393141 
1786	 0.200491770564979 
1787	 0.200865994418929 
1788	 0.201144285995479 
1789	 0.201393768837061 
1790	 0.2021544722765 
1791	 0.202455188162237 
1792	 0.202431661937976 
1793	 0.202755557738272 
1794	 0.202908343671212 
1795	 0.203055666871014 
1796	 0.203216206268724 
1797	 0.203468557966605 
1798	 0.204163351997824 
1799	 0.205007252985322 
1800	 0.205714533470552 
1801	 0.205476266453317 
1802	 0.204696385641212 
1803	 0.204966566353917 
1804	 0.206003684095231 
1805	 0.20635206480871 
1806	 0.206521145762125 
1807	 0.206985846588512 
1808	 0.207396840109382 
1809	 0.207219847022694 
1810	 0.207644146255147 
1811	 0.208488920300989 
1812	 0.209563526554645 
1813	 0.2109985114272 
1814	 0.212323914092988 
1815	 0.214797991749246 
1816	 0.216270189305963 
1817	 0.216286965891546 
1818	 0.217197955892157 
1819	 0.21819635273881 
1820	 0.219540945398528 
1821	 0.21939821589584 
1822	 0.217721897178307 
1823	 0.217939947296968 
1824	 0.21793531347529 
1825	 0.217558269778005 
1826	 0.218867058592846 
1827	 0.220592536164853 
1828	 0.222418725534906 
1829	 0.220468231416674 
1830	 0.224644438102215 
1831	 0.242815657184856 
1832	 0.248228188202315 
1833	 0.242091185895162 
1834	 0.243958033147801 
1835	 0.224698179483189 
1836	 0.218369319641706 
1837	 0.243409450230645 
1838	 0.260683384187216 
1839	 0.277826366750019 
1840	 0.294843786816438 
1841	 0.298837288055615 
1842	 0.31231373386908 
1843	 0.286686887924839 
1844	 0.212282882858458 
1845	 0.188986827386533 
1846	 0.157148941205148 
1847	 0.147385952711878 
1848	 0.154166853825937 
1849	 0.20535292273073 
1850	 0.227419237778774 
1851	 0.266885699394379 
1852	 0.263383391779353 
1853	 0.218556741482771 
1854	 0.202679938447474 
1855	 0.152796704676015 
1856	 0.146552256951686 
1857	 0.182359256733449 
1858	 0.202625263827258 
1859	 0.224348423550237 
1860	 0.27431430005495 
1861	 0.274101498941483 
1862	 0.248036594253336 
1863	 0.23519144998856 
1864	 0.190556366346279 
1865	 0.173061549466305 
1866	 0.172501290187821 
1867	 0.178189217532291 
1868	 0.182922165020277 
1869	 0.178314413616898 
1870	 0.165417698906998 
1871	 0.140899441373596 
1872	 0.123996028054619 
1873	 9.38399346728678E-02 
1874	 0.087278962500337 
1875	 0.101176392825707 
1876	 0.101540237839215 
1877	 9.59800024888245E-02 
1878	 0.10922586859973 
1879	 0.109474413817198 
1880	 0.102887054450439 
1881	 0.100465740918561 
1882	 9.70800551314461E-02 
1883	 9.66535665443869E-02 
1884	 9.55012473442534E-02 
1885	 9.66244493977719E-02 
1886	 9.93102464965208E-02 
1887	 0.106939022499719 
1888	 0.10524096035321 
1889	 0.103659920803108 
1890	 0.102941934390234 
1891	 9.82169107212315E-02 
1892	 9.34792593764037E-02 
1893	 9.24852858781896E-02 
1894	 0.088404878498124 
1895	 7.19015158445981E-02 
1896	 6.86937989232802E-02 
1897	 7.51931540803272E-02 
1898	 8.33232832107048E-02 
1899	 8.43355176661537E-02 
1900	 8.48334698366567E-02 
1901	 8.83468338409086E-02 
1902	 7.76601175322479E-02 
1903	 7.45144577313456E-02 
1904	 9.53232036914284E-02 
1905	 0.100173295904183 
1906	 9.66084833956748E-02 
1907	 8.17105969276559E-02 
1908	 7.41483616463756E-02 
1909	 5.92934157873519E-02 
1910	 4.31372848804352E-02 
1911	 3.56378283733263E-02 
1912	 3.67926214190869E-02 
1913	 4.09324178585914E-02 
1914	 4.62093258929871E-02 
1915	 0.059083864774753 
1916	 6.07794380304956E-02 
1917	 5.97140010035865E-02 
1918	 5.79126150122474E-02 
1919	 5.46672524606406E-02 
1920	 5.21314238158946E-02 
1921	 5.07477482545715E-02 
1922	 5.31079364799042E-02 
1923	 0.053024453781872 
1924	 5.18759162838844E-02 
1925	 5.23083571393126E-02 
1926	 5.29636970643389E-02 
1927	 0.053012189727265 
1928	 5.37230688626652E-02 
1929	 0.054245284886583 
1930	 5.42170117379196E-02 
1931	 5.27160218237601E-02 
1932	 5.20395685126678E-02 
1933	 5.32965943566616E-02 
1934	 5.26068497776981E-02 
1935	 5.14229475635689E-02 
1936	 5.02535093021354E-02 
1937	 4.81160257270128E-02 
1938	 4.67034402674565E-02 
1939	 4.43906965159336E-02 
1940	 4.52273045940195E-02 
1941	 4.69956368936481E-02 
1942	 4.75146797953324E-02 
1943	 0.04977561387972 
1944	 5.08641385056801E-02 
1945	 4.96295698444567E-02 
1946	 4.98302359998647E-02 
1947	 4.94892208165734E-02 
1948	 4.76634222109503E-02 
1949	 4.77612674322163E-02 
1950	 4.94795877434478E-02 
1951	 4.93850705613361E-02 
1952	 4.99903783514577E-02 
1953	 5.07055325956094E-02 
1954	 4.92889877854922E-02 
1955	 4.93689519537926E-02 
1956	 4.92927608555814E-02 
1957	 4.86790543771898E-02 
1958	 4.92069194812778E-02 
1959	 5.09022258318195E-02 
1960	 5.12065053077396E-02 
1961	 0.051286924081516 
1962	 5.18162111539517E-02 
1963	 5.14300821783239E-02 
1964	 5.09719890837644E-02 
1965	 5.11169974408462E-02 
1966	 5.13652856558092E-02 
1967	 5.18660401016945E-02 
1968	 5.21017596218935E-02 
1969	 5.22795745711351E-02 
1970	 5.24168491140154E-02 
1971	 5.26663836581777E-02 
1972	 5.27933162625876E-02 
1973	 5.31084299632064E-02 
1974	 5.37358158459504E-02 
1975	 5.40265349228021E-02 
1976	 5.39871263192135E-02 
1977	 0.054022174259991 
1978	 0.053789580976907 
1979	 5.38790815679688E-02 
1980	 5.46400803840195E-02 
1981	 5.50977234862265E-02 
1982	 0.0553802944662 
1983	 5.56245581907551E-02 
1984	 5.59980186486895E-02 
1985	 5.59911680515029E-02 
1986	 5.61491020825253E-02 
1987	 5.67205345751204E-02 
1988	 5.69928567175043E-02 
1989	 5.71523189288656E-02 
1990	 5.74822398631484E-02 
1991	 5.81839434693865E-02 
1992	 5.89124159242659E-02 
1993	 5.95480722339506E-02 
1994	 6.02304854561087E-02 
1995	 0.06094016510392 
1996	 6.15522391599724E-02 
1997	 6.21844657694351E-02 
1998	 6.27547348276368E-02 
1999	 6.39287828234281E-02 
2000	 6.45708365437888E-02 
2001	 6.47019913525897E-02 
2002	 6.55707363121247E-02 
2003	 6.53940588072782E-02 
2004	 6.46800998648804E-02 
2005	 6.43616958973439E-02 
2006	 6.40044043482522E-02 
2007	 6.31600686172302E-02 
2008	 6.32090726172155E-02 
2009	 0.063953437826935 
2010	 6.44168563010981E-02 
2011	 6.56868783985116E-02 
2012	 6.66800938836724E-02 
2013	 6.64908102868827E-02 
2014	 6.70396274631201E-02 
2015	 6.74215873276608E-02 
2016	 6.68195568345075E-02 
2017	 6.71881226775159E-02 
2018	 6.74618496894044E-02 
2019	 6.74866551274181E-02 
2020	 6.71309210328271E-02 
2021	 6.75083359447448E-02 
2022	 6.79405978461276E-02 
2023	 6.81559755274374E-02 
2024	 6.86557541999029E-02 
2025	 6.94825952736554E-02 
2026	 7.00197620894888E-02 
2027	 7.07603155001965E-02 
2028	 7.13805330291775E-02 
2029	 7.13550023830116E-02 
2030	 7.16110634474695E-02 
2031	 7.19868293861107E-02 
2032	 7.22564357212752E-02 
2033	 7.25806290725355E-02 
2034	 7.30494414341462E-02 
2035	 7.32898030104583E-02 
2036	 7.31159346997756E-02 
2037	 7.32422982477316E-02 
2038	 7.36301054641032E-02 
2039	 7.37365138512777E-02 
2040	 7.41897768177854E-02 
2041	 7.46619011107871E-02 
2042	 7.48375288607201E-02 
2043	 7.49658873923265E-02 
2044	 7.50108618247092E-02 
2045	 7.52613319563413E-02 
2046	 7.54462787554635E-02 
2047	 7.58809567627173E-02 
2048	 7.64977641968314E-02 
2049	 7.74484987623477E-02 
2050	 7.82611954810702E-02 
2051	 7.84814940793691E-02 
2052	 7.88511526772076E-02 
2053	 7.88752325856244E-02 
2054	 7.83377007867217E-02 
2055	 7.82472505664136E-02 
2056	 7.84459501880911E-02 
2057	 7.87070751533916E-02 
2058	 7.91900543036402E-02 
2059	 0.079611461877272 
2060	 8.01963412775712E-02 
2061	 8.03628837697465E-02 
2062	 8.05647313600949E-02 
2063	 8.07201997740578E-02 
2064	 8.05415814642943E-02 
2065	 0.081073885352685 
2066	 8.18654405479178E-02 
2067	 8.21943848851932E-02 
2068	 8.26510969917384E-02 
2069	 8.30776111835613E-02 
2070	 8.29692563176664E-02 
2071	 8.31127082787204E-02 
2072	 8.35238776241815E-02 
2073	 8.42836338442581E-02 
2074	 8.46815597971557E-02 
2075	 8.51555462196163E-02 
2076	 8.56178414146405E-02 
2077	 8.56479061684559E-02 
2078	 8.56719215897872E-02 
2079	 8.57788005733956E-02 
2080	 8.59501438476795E-02 
2081	 8.65604894171939E-02 
2082	 8.72169217828759E-02 
2083	 8.76888857121965E-02 
2084	 8.83101910728867E-02 
2085	 8.87006422431886E-02 
2086	 8.91426327720893E-02 
2087	 8.94344740179171E-02 
2088	 8.96680775272083E-02 
2089	 8.97420878160317E-02 
2090	 0.090135649804335 
2091	 9.03514768781575E-02 
2092	 9.07234561719181E-02 
2093	 9.12424048510722E-02 
2094	 9.16198723833017E-02 
2095	 9.18248306039911E-02 
2096	 9.21788659702483E-02 
2097	 9.28812775471344E-02 
2098	 9.32234309366057E-02 
2099	 9.37321472546519E-02 
2100	 9.41261089784637E-02 
2101	 9.41875961530464E-02 
2102	 9.45931523260124E-02 
2103	 0.095156123323317 
2104	 9.56608279640268E-02 
2105	 9.64215174720558E-02 
2106	 9.70722170987843E-02 
2107	 9.72266954847058E-02 
2108	 9.74029801734571E-02 
2109	 9.75153124143473E-02 
2110	 9.77704575354675E-02 
2111	 9.78468884821607E-02 
2112	 9.76147915708477E-02 
2113	 0.097701457576608 
2114	 9.78779778569527E-02 
2115	 9.81892825300066E-02 
2116	 9.90332707871154E-02 
2117	 9.95864197773716E-02 
2118	 9.97961340762537E-02 
2119	 0.100295702727973 
2120	 0.10101955733707 
2121	 0.101407903352314 
2122	 0.101922292079499 
2123	 0.102311260875518 
2124	 0.102028081239052 
2125	 0.101967529249624 
2126	 0.102342568851289 
2127	 0.102973375201412 
2128	 0.103955639391058 
2129	 0.104721530261284 
2130	 0.104969876629383 
2131	 0.104912046711644 
2132	 0.10473874672734 
2133	 0.104692577495928 
2134	 0.104826988294287 
2135	 0.105153239483777 
2136	 0.105497595666057 
2137	 0.105777747770675 
2138	 0.106243420852341 
2139	 0.106776574858551 
2140	 0.107204556119956 
2141	 0.107629711001317 
2142	 0.108010255679388 
2143	 0.108227903007618 
2144	 0.108320818325643 
2145	 0.108683124742617 
2146	 0.109056091652942 
2147	 0.109053230235646 
2148	 0.109075316274336 
2149	 0.109062435793919 
2150	 0.109179705430101 
2151	 0.109342217554584 
2152	 0.109711650931898 
2153	 0.109940550715397 
2154	 0.110165844053671 
2155	 0.110364914131093 
2156	 0.110374152416512 
2157	 0.11042616469121 
2158	 0.110865805004567 
2159	 0.111315759185089 
2160	 0.111402671658505 
2161	 0.111620580175852 
2162	 0.111671119668165 
2163	 0.111528497001025 
2164	 0.111895474464228 
2165	 0.112763505928433 
2166	 0.113373047680213 
2167	 0.113430222764108 
2168	 0.113527793984072 
2169	 0.113255384734724 
2170	 0.113224271276823 
2171	 0.113129039864409 
2172	 0.11347736594973 
2173	 0.113955557994619 
2174	 0.11418439798629 
2175	 0.114633190324635 
2176	 0.114762498785565 
2177	 0.11443150947207 
2178	 0.11469374295767 
2179	 0.114700965344111 
2180	 0.114708579180308 
2181	 0.11507661337176 
2182	 0.1148983479211 
2183	 0.115079852436318 
2184	 0.115681919893425 
2185	 0.115860679663777 
2186	 0.115967216378028 
2187	 0.116103375086184 
2188	 0.115884342237419 
2189	 0.115756607893809 
2190	 0.115639831534988 
2191	 0.116036964746407 
2192	 0.116118052263905 
2193	 0.11604347379156 
2194	 0.116229620998682 
2195	 0.116306459158971 
2196	 0.116257261569697 
2197	 0.116911874160717 
2198	 0.118062235327333 
2199	 0.118429670584519 
2200	 0.118770546220949 
2201	 0.119261599041007 
2202	 0.118551961870133 
2203	 0.117727271821951 
2204	 0.117323083130952 
2205	 0.116527409557412 
2206	 0.116326738326852 
2207	 0.116920691056559 
2208	 0.11725935507256 
2209	 0.117763564291923 
2210	 0.118129492228245 
2211	 0.118481188356607 
2212	 0.118631585283382 
2213	 0.118465437417456 
2214	 0.11845055079579 
2215	 0.118689331599346 
2216	 0.118373048566853 
2217	 0.118299465713724 
2218	 0.118778490685155 
2219	 0.118789305193097 
2220	 0.118994396966831 
2221	 0.119082177509296 
2222	 0.118744597186804 
2223	 0.11876702490993 
2224	 0.118154875457567 
2225	 0.117797846267422 
2226	 0.117979909408464 
2227	 0.117389567385214 
2228	 0.117659255936669 
2229	 0.118501491304816 
2230	 0.118470968848895 
2231	 0.118360512257512 
2232	 0.118055438069626 
2233	 0.11769535840678 
2234	 0.116890031028527 
2235	 0.116639089241356 
2236	 0.116595507621995 
2237	 0.116419568487274 
2238	 0.115867948987991 
2239	 0.115000848301371 
2240	 0.114304831991118 
2241	 0.113687857858994 
2242	 0.113157859090918 
2243	 0.112802300116071 
2244	 0.11269335545093 
2245	 0.112520792982144 
2246	 0.112394832970482 
2247	 0.112745465899717 
2248	 0.112433878657102 
2249	 0.111577510118245 
2250	 0.111304879006028 
2251	 0.110878626368536 
2252	 0.110833126503314 
2253	 0.110988314302805 
2254	 0.109796563588358 
2255	 0.108464329019902 
2256	 0.107752383450669 
2257	 0.106954638388173 
2258	 0.106445382418272 
2259	 0.106847111869985 
2260	 0.107171712161017 
2261	 0.106921985384718 
2262	 0.106281151607549 
2263	 0.105199822220481 
2264	 0.10397612862983 
2265	 0.103412918790687 
2266	 0.103157820339983 
2267	 0.102624236542954 
2268	 0.102961591570862 
2269	 0.103115349697622 
2270	 0.10243961323846 
2271	 0.102350011159227 
2272	 0.102210475704748 
2273	 0.10119721374202 
2274	 9.99986961258029E-02 
2275	 9.97091784894904E-02 
2276	 9.91498881127644E-02 
2277	 9.85810719522092E-02 
2278	 9.88056756447474E-02 
2279	 0.09809793992838 
2280	 9.76941214174813E-02 
2281	 9.76887894442698E-02 
2282	 9.65126228359711E-02 
2283	 9.58163133771841E-02 
2284	 9.54062192072547E-02 
2285	 9.42897942243692E-02 
2286	 9.38546697651243E-02 
2287	 9.41718739230477E-02 
2288	 9.45962372751608E-02 
2289	 9.39235187499306E-02 
2290	 9.36235085619945E-02 
2291	 9.34668247331625E-02 
2292	 9.22924237787733E-02 
2293	 9.15918996439726E-02 
2294	 9.15503618282066E-02 
2295	 9.07615072057638E-02 
2296	 9.01806286518018E-02 
2297	 9.00815439119979E-02 
2298	 8.94456881822625E-02 
2299	 8.87339234742805E-02 
2300	 8.80926276622921E-02 
2301	 8.76041420312639E-02 
2302	 8.71935763365183E-02 
2303	 8.69101463987183E-02 
2304	 0.0877227984444 
2305	 8.80992772140136E-02 
2306	 8.84896950148713E-02 
2307	 8.90596036078991E-02 
2308	 8.79006167507683E-02 
2309	 8.73103133638555E-02 
2310	 0.086986179338233 
2311	 8.58657709375757E-02 
2312	 8.56705408842059E-02 
2313	 0.085686940115943 
2314	 8.52937986413396E-02 
2315	 8.60183607574344E-02 
2316	 0.086769539790446 
2317	 8.59317789256993E-02 
2318	 8.59661365699794E-02 
2319	 0.085988702256889 
2320	 8.48514323830657E-02 
2321	 8.42839433342629E-02 
2322	 8.43724944446731E-02 
2323	 8.41527820536822E-02 
2324	 8.35093182025627E-02 
2325	 8.36152937331513E-02 
2326	 8.43851920478207E-02 
2327	 0.084641854642481 
2328	 8.48660563075238E-02 
2329	 0.085655370186514 
2330	 8.53282980092853E-02 
2331	 8.43217957627304E-02 
2332	 8.40423586303748E-02 
2333	 8.29620616189764E-02 
2334	 8.16979043452251E-02 
2335	 8.12646282154883E-02 
2336	 8.00654194982864E-02 
2337	 7.99157509962182E-02 
2338	 8.01144490709493E-02 
2339	 7.91024907646296E-02 
2340	 7.80683035870508E-02 
2341	 7.66339592198759E-02 
2342	 7.68318712384931E-02 
2343	 7.76758094439803E-02 
2344	 7.77510736064068E-02 
2345	 7.83299104911795E-02 
2346	 7.79924393869487E-02 
2347	 7.78711008440807E-02 
2348	 7.87538594596195E-02 
2349	 7.85883839384126E-02 
2350	 7.80032837019781E-02 
2351	 7.69214138936033E-02 
2352	 7.55483659290391E-02 
2353	 7.56252735542623E-02 
2354	 7.61972576009435E-02 
2355	 0.077743857299153 
2356	 0.078548847880319 
2357	 7.70262342456217E-02 
2358	 7.60619313318454E-02 
2359	 7.44719595593367E-02 
2360	 7.27057583343815E-02 
2361	 7.25239074088424E-02 
2362	 7.19183666134621E-02 
2363	 7.18118780863224E-02 
2364	 7.25038961539927E-02 
2365	 7.40734767467674E-02 
2366	 7.45827820258596E-02 
2367	 7.30822743863405E-02 
2368	 7.39069704867742E-02 
2369	 7.42502620276542E-02 
2370	 7.35427037185621E-02 
2371	 7.44781496802269E-02 
2372	 7.42052390561264E-02 
2373	 7.17776139207011E-02 
2374	 7.06841967638413E-02 
2375	 6.98380090160247E-02 
2376	 6.89787849725535E-02 
2377	 6.86115084972336E-02 
2378	 6.84634057228997E-02 
2379	 6.90118052584906E-02 
2380	 6.88549745255681E-02 
2381	 6.75369255809001E-02 
2382	 6.71985853009668E-02 
2383	 6.80663841251772E-02 
2384	 6.80263188944683E-02 
2385	 6.80513321303603E-02 
2386	 6.79979276684948E-02 
2387	 6.65290570311924E-02 
2388	 6.55357803224266E-02 
2389	 6.48575692855499E-02 
2390	 6.46794824986945E-02 
2391	 6.53232297983278E-02 
2392	 6.56022381533275E-02 
2393	 6.58874236527937E-02 
2394	 6.66160734802891E-02 
2395	 6.79290758781171E-02 
2396	 6.76910276105872E-02 
2397	 0.066295565107397 
2398	 6.60998313774221E-02 
2399	 6.48152143508525E-02 
2400	 6.46572982504593E-02 
2401	 6.54876977383156E-02 
2402	 6.89569827761156E-02 
2403	 6.93303825350987E-02 
2404	 6.81620409516214E-02 
2405	 6.93267815333654E-02 
2406	 0.069361997464154 
2407	 6.80756606901325E-02 
2408	 0.068013544804392 
2409	 6.52448510803532E-02 
2410	 5.97160528494192E-02 
2411	 5.74311520028735E-02 
2412	 5.63010369734323E-02 
2413	 5.31149303039326E-02 
2414	 5.37050282592147E-02 
2415	 0.055706608155867 
2416	 5.86847005382981E-02 
2417	 6.37793069512244E-02 
2418	 6.38973717491859E-02 
2419	 0.061440714670095 
2420	 5.65196799093651E-02 
2421	 5.03432583185974E-02 
2422	 4.84902307090769E-02 
2423	 4.76729535303176E-02 
2424	 4.80125617118519E-02 
2425	 5.31841610755188E-02 
2426	 5.80706603287912E-02 
2427	 5.92898773053127E-02 
2428	 6.16387431078044E-02 
2429	 6.14321693431941E-02 
2430	 5.73475726732428E-02 
2431	 0.054821397247959 
2432	 5.21419222161435E-02 
2433	 5.33105739961233E-02 
2434	 5.09334422737806E-02 
2435	 4.71601927670117E-02 
2436	 4.80808794501597E-02 
2437	 4.78118391527103E-02 
2438	 4.85293838406685E-02 
2439	 5.85088720572382E-02 
2440	 5.98477872032158E-02 
2441	 5.32508536847907E-02 
2442	 5.00156061421722E-02 
2443	 4.25287923297976E-02 
2444	 3.89370547171267E-02 
2445	 4.00380922147746E-02 
2446	 3.94679203064671E-02 
2447	 3.80897690683722E-02 
2448	 3.96250352982327E-02 
2449	 0.044963186917114 
2450	 4.61179455251443E-02 
2451	 4.93738839949368E-02 
2452	 4.94093444706812E-02 
2453	 4.32475781280889E-02 
2454	 4.20634681831557E-02 
2455	 3.92653024407721E-02 
2456	 4.08044749745412E-02 
2457	 4.96885057572021E-02 
2458	 5.00952564275362E-02 
2459	 4.82626399893005E-02 
2460	 0.048993245885248 
2461	 4.29831674132205E-02 
2462	 4.10700313393386E-02 
2463	 4.82163383241279E-02 
2464	 4.97864811154731E-02 
2465	 4.83699432779505E-02 
2466	 5.04483887454164E-02 
2467	 5.15230543652719E-02 
2468	 5.10343642418211E-02 
2469	 5.24233539875179E-02 
2470	 5.16012287352621E-02 
2471	 4.79596903360564E-02 
2472	 4.58432595380636E-02 
2473	 4.01571249602436E-02 
2474	 3.80585182200127E-02 
2475	 3.85748875613512E-02 
2476	 3.92721166329869E-02 
2477	 0.050420443409082 
2478	 4.77256911051599E-02 
2479	 2.91716816931774E-02 
2480	 2.45208036836577E-02 
2481	 1.41312352952445E-02 
2482	 1.45498448995749E-02 
2483	 5.03772569607777E-02 
2484	 4.65483340602868E-02 
2485	 1.72797765183368E-02 
2486	-8.16733628066658E-03 
2487	-4.42180985444255E-02 
2488	-0.027855875971283 
2489	 6.75719269272919E-03 
2490	 1.53401673540129E-02 
2491	 3.54217367816545E-02 
2492	 4.72959076317055E-02 
2493	 5.22853908883857E-02 
2494	 7.57155439050925E-02 
2495	 5.85502420345044E-02 
2496	 6.14846843029334E-02 
2497	 3.69900126325514E-02 
2498	-4.72937567856476E-02 
2499	-5.83777057726783E-02 
2500	-7.67436107505012E-02 
