Wavelength	ref00067.asd
350	 1.78481456581592E-02 
351	 1.79398136990983E-02 
352	 1.75827151153174E-02 
353	 1.74805418554152E-02 
354	 1.67038992269552E-02 
355	 1.62278717047676E-02 
356	 1.65897416908246E-02 
357	 1.68779101802067E-02 
358	 1.62720171322904E-02 
359	 1.58167454092575E-02 
360	 1.64796958439486E-02 
361	 1.63186895547151E-02 
362	 1.58192468664068E-02 
363	 1.55755802016736E-02 
364	 1.59989371693093E-02 
365	 1.56908321133261E-02 
366	 1.52706894068944E-02 
367	 1.51253311640954E-02 
368	 1.49568153762895E-02 
369	 1.51855491014643E-02 
370	 1.51041251689978E-02 
371	 0.014432641269474 
372	 1.50554044526271E-02 
373	 1.50907654830743E-02 
374	 0.014696934927533 
375	 1.49319317068123E-02 
376	 1.49274452974819E-02 
377	 1.48923555748812E-02 
378	 1.49753024144706E-02 
379	 1.51343003634216E-02 
380	 1.50880263415698E-02 
381	 1.52301415727243E-02 
382	 1.56570758382329E-02 
383	 1.52274010505718E-02 
384	 1.51541125553628E-02 
385	 1.52700102854228E-02 
386	 1.50235523128494E-02 
387	 1.56663418311497E-02 
388	 1.60866583525602E-02 
389	 1.60376547419545E-02 
390	 1.63086315614074E-02 
391	 1.62949838831325E-02 
392	 1.62859884471612E-02 
393	 1.64147567948237E-02 
394	 1.60023228766859E-02 
395	 1.65162825914008E-02 
396	 1.72601692532141E-02 
397	 1.71892877199056E-02 
398	 0.017730069570831 
399	 1.81376657217942E-02 
400	 1.84045669496346E-02 
401	 1.91446005619701E-02 
402	 1.95281438503047E-02 
403	 2.00347019833913E-02 
404	 2.09500884455082E-02 
405	 2.18220538947696E-02 
406	 2.25669430338057E-02 
407	 2.33923951353324E-02 
408	 2.45584164791075E-02 
409	 2.59641765256123E-02 
410	 2.74236015968565E-02 
411	 2.89771777243662E-02 
412	 3.08270248364752E-02 
413	 3.24657041380989E-02 
414	 3.42209766215183E-02 
415	 3.62814546116836E-02 
416	 0.038281271930565 
417	 4.02887789239406E-02 
418	 4.23820440892369E-02 
419	 4.46009103913689E-02 
420	 0.046712384056751 
421	 4.90620846764332E-02 
422	 5.15271092598388E-02 
423	 5.36088103398495E-02 
424	 5.57972106003753E-02 
425	 0.058009721255797 
426	 6.01521150302434E-02 
427	 6.23139681350717E-02 
428	 6.43911038050457E-02 
429	 6.65160440615336E-02 
430	 6.87890506893323E-02 
431	 7.07119964476128E-02 
432	 7.27132777847697E-02 
433	 7.47825618923208E-02 
434	 7.65229324537092E-02 
435	 7.81721520628432E-02 
436	 7.96421459556502E-02 
437	 8.09458403152709E-02 
438	 8.24268954477577E-02 
439	 8.36912896599849E-02 
440	 8.47837479225252E-02 
441	 8.58770823498897E-02 
442	 8.69289814010661E-02 
443	 8.78954574747674E-02 
444	 8.87716199947577E-02 
445	 8.95918520801793E-02 
446	 9.03270681381377E-02 
447	 0.090965938161624 
448	 9.15681851598804E-02 
449	 0.092372311827524 
450	 9.30758443329769E-02 
451	 9.36633803747089E-02 
452	 9.42569173169073E-02 
453	 9.49484400623804E-02 
454	 9.58083851566228E-02 
455	 9.67723064806054E-02 
456	 9.76331937481508E-02 
457	 9.86831662998579E-02 
458	 9.98623641052997E-02 
459	 0.101051720259166 
460	 0.102196411748427 
461	 0.103463922808697 
462	 0.104804546305718 
463	 0.106057740940188 
464	 0.107280573547631 
465	 0.108528288494422 
466	 0.109774417581945 
467	 0.110869355417991 
468	 0.111968155203663 
469	 0.112943099066994 
470	 0.113660458852494 
471	 0.114277364634755 
472	 0.114700331172632 
473	 0.114946117416857 
474	 0.115115975677371 
475	 0.115293084368765 
476	 0.115333966430441 
477	 0.11522674618192 
478	 0.115260798033742 
479	 0.115342486422902 
480	 0.115552139015753 
481	 0.115940502021386 
482	 0.116150476041465 
483	 0.116426925664949 
484	 0.11696171618009 
485	 0.11783746174709 
486	 0.118633971334791 
487	 0.119529794463796 
488	 0.120718446510101 
489	 0.122136129322989 
490	 0.123516391490023 
491	 0.124883369429416 
492	 0.12640388306929 
493	 0.128053918438734 
494	 0.130033466787156 
495	 0.132408439608828 
496	 0.135062185155411 
497	 0.137796507240555 
498	 0.140756782159409 
499	 0.144087594878925 
500	 0.147634199931247 
501	 0.151336860539801 
502	 0.155210285455515 
503	 0.159300799092738 
504	 0.163441783955505 
505	 0.167465231253456 
506	 0.171400278695081 
507	 0.175578801031247 
508	 0.179738152734083 
509	 0.183892711157047 
510	 0.188103904701286 
511	 0.192266437017071 
512	 0.196488824380955 
513	 0.200709496192044 
514	 0.204731418212501 
515	 0.208621562157398 
516	 0.212513395288139 
517	 0.21641193946509 
518	 0.220007935470122 
519	 0.223849950823818 
520	 0.227684361438367 
521	 0.231035854723961 
522	 0.234115013039638 
523	 0.237012327276594 
524	 0.239776323372428 
525	 0.242378894778593 
526	 0.244693499665249 
527	 0.246999372179974 
528	 0.249506980263318 
529	 0.251969202421322 
530	 0.25399615836329 
531	 0.255633969861522 
532	 0.257203354777811 
533	 0.258907484254436 
534	 0.260640985511589 
535	 0.262290299795116 
536	 0.263819115369093 
537	 0.265254872445469 
538	 0.266486717904882 
539	 0.267483536408349 
540	 0.268748210995123 
541	 0.270021893536584 
542	 0.271205077763874 
543	 0.27236442319148 
544	 0.273606965539018 
545	 0.274811501462383 
546	 0.275883402636913 
547	 0.276848295551122 
548	 0.277906047664194 
549	 0.279007817030172 
550	 0.280017680013677 
551	 0.281024540140381 
552	 0.281978285861046 
553	 0.282897297117508 
554	 0.283888047501151 
555	 0.284854041300813 
556	 0.285891417213805 
557	 0.287034877383301 
558	 0.287930139022373 
559	 0.288972261330353 
560	 0.290180439263104 
561	 0.291334155270104 
562	 0.292468435489016 
563	 0.293652631797669 
564	 0.294933085981491 
565	 0.296291576410368 
566	 0.297753225665867 
567	 0.29937040084683 
568	 0.301127770379768 
569	 0.302695369816991 
570	 0.304097622936449 
571	 0.305484946212163 
572	 0.307089830833039 
573	 0.308620402218171 
574	 0.310158837277771 
575	 0.311810497805209 
576	 0.313516170105042 
577	 0.315321729570412 
578	 0.317212919641641 
579	 0.319155689764353 
580	 0.321200905508035 
581	 0.323134008835924 
582	 0.324904223362585 
583	 0.326706382537636 
584	 0.328402120026028 
585	 0.330012145524846 
586	 0.331606474766232 
587	 0.333332841291467 
588	 0.334895422724641 
589	 0.336260358191691 
590	 0.337601738743102 
591	 0.339276718578092 
592	 0.340948526366097 
593	 0.342451433013882 
594	 0.344004137777891 
595	 0.345671259184423 
596	 0.347298132028565 
597	 0.348729901577398 
598	 0.350187670330869 
599	 0.351709711559173 
600	 0.353191912624008 
601	 0.354408374766928 
602	 0.355609431333608 
603	 0.356756516508963 
604	 0.357766567644796 
605	 0.358589498729181 
606	 0.359418229841651 
607	 0.36015639194318 
608	 0.360607342978365 
609	 0.361029822926409 
610	 0.361472863418873 
611	 0.361867473595695 
612	 0.362017149437817 
613	 0.362158106543728 
614	 0.362348791352321 
615	 0.36255309930969 
616	 0.362577959640781 
617	 0.36265410008705 
618	 0.362842047144128 
619	 0.363067642064829 
620	 0.363262247504228 
621	 0.363493671715993 
622	 0.363759830539276 
623	 0.363873685294548 
624	 0.364065634760995 
625	 0.364340414878103 
626	 0.364640480377461 
627	 0.365068238955968 
628	 0.365415346717414 
629	 0.365654289768936 
630	 0.365938870742262 
631	 0.366231390552207 
632	 0.366504199505766 
633	 0.36670326817105 
634	 0.36669692579005 
635	 0.366714358101224 
636	 0.366651081946903 
637	 0.366310591751818 
638	 0.366000165457432 
639	 0.365588967176038 
640	 0.365003381765862 
641	 0.364302216452804 
642	 0.363555516911425 
643	 0.36274687142304 
644	 0.361853759277777 
645	 0.360929979605452 
646	 0.360078686538092 
647	 0.35921336637785 
648	 0.358178701060663 
649	 0.357379838888889 
650	 0.356614297874422 
651	 0.355832517081954 
652	 0.355310751539827 
653	 0.354768843603885 
654	 0.354213737132954 
655	 0.353601692664357 
656	 0.352355156936559 
657	 0.351048313856281 
658	 0.349888555029081 
659	 0.348511652469611 
660	 0.346889018648737 
661	 0.344988738707546 
662	 0.342918555099848 
663	 0.340934562769586 
664	 0.338734902777385 
665	 0.336384541636117 
666	 0.334080136821648 
667	 0.332038381372249 
668	 0.330046623593754 
669	 0.32815057183566 
670	 0.326592052212882 
671	 0.325034164913828 
672	 0.323723678320837 
673	 0.322824387472774 
674	 0.322017664516654 
675	 0.32146881509309 
676	 0.321098160754776 
677	 0.320809965539629 
678	 0.320895671457401 
679	 0.32145546529567 
680	 0.322520498003014 
681	 0.324072368520791 
682	 0.32646707672761 
683	 0.329680908594918 
684	 0.333582723371002 
685	 0.338004333665324 
686	 0.34294633873324 
687	 0.348556893020907 
688	 0.354358263848488 
689	 0.359534224081042 
690	 0.364603467408881 
691	 0.369866294345208 
692	 0.374788632441509 
693	 0.379747461210524 
694	 0.384637597381343 
695	 0.389248519085718 
696	 0.393520912213703 
697	 0.397732491485734 
698	 0.401826648117491 
699	 0.405619466476728 
700	 0.409513389165351 
701	 0.413250924713475 
702	 0.416644025754081 
703	 0.419668399379492 
704	 0.422635556127697 
705	 0.425616820897362 
706	 0.428575029229856 
707	 0.431253906605371 
708	 0.433929908504744 
709	 0.436576993929697 
710	 0.439059402954949 
711	 0.441691091735547 
712	 0.44425486154616 
713	 0.446666759299023 
714	 0.449053680161096 
715	 0.45160743814551 
716	 0.454329163149429 
717	 0.457208553101303 
718	 0.460124246486412 
719	 0.462505405583996 
720	 0.464474512519211 
721	 0.466546735668608 
722	 0.468528003903358 
723	 0.470716034854145 
724	 0.473156931355337 
725	 0.47531975572923 
726	 0.477361432210821 
727	 0.479307111955061 
728	 0.48119746407971 
729	 0.482987641841665 
730	 0.48459456045428 
731	 0.486067142311927 
732	 0.487478170006463 
733	 0.488609939707251 
734	 0.489875866315365 
735	 0.491302133343337 
736	 0.492529971847511 
737	 0.49377824876359 
738	 0.494938825591939 
739	 0.495976711379538 
740	 0.497072101847362 
741	 0.498051387711414 
742	 0.498903946629017 
743	 0.499693947665277 
744	 0.500588900779173 
745	 0.501346207536491 
746	 0.501999014690546 
747	 0.50276371266874 
748	 0.503316142342553 
749	 0.503750521368825 
750	 0.504216491051039 
751	 0.504858758897611 
752	 0.505289151962696 
753	 0.5056611423588 
754	 0.506163890116214 
755	 0.506517598012917 
756	 0.506914095806194 
757	 0.507461245812611 
758	 0.50816474507265 
759	 0.508541449171666 
760	 0.508652171113168 
761	 0.508707870449744 
762	 0.509169000163461 
763	 0.509278878330672 
764	 0.509222479723086 
765	 0.509233378702134 
766	 0.509343332367869 
767	 0.509499727778825 
768	 0.509757644381263 
769	 0.510117472025934 
770	 0.510140087326541 
771	 0.510256181019462 
772	 0.510568885944906 
773	 0.510859063660232 
774	 0.510883895261924 
775	 0.511036569816191 
776	 0.511422415709193 
777	 0.511493476427741 
778	 0.51165959081884 
779	 0.511847930534633 
780	 0.511973390845935 
781	 0.512408675850314 
782	 0.512667643616244 
783	 0.512767873581973 
784	 0.512984527232653 
785	 0.51324639450271 
786	 0.513538551638834 
787	 0.513813497231293 
788	 0.513999582961157 
789	 0.514304225817454 
790	 0.514585224381108 
791	 0.514738722725048 
792	 0.514865251348616 
793	 0.515254018803836 
794	 0.515585681968176 
795	 0.515585394047792 
796	 0.516003621647616 
797	 0.51633977140625 
798	 0.51653343722741 
799	 0.516779348491879 
800	 0.516943370162069 
801	 0.517143103443666 
802	 0.517381896579787 
803	 0.517523439940183 
804	 0.517753487999733 
805	 0.518092126840866 
806	 0.518457060358517 
807	 0.518632675794511 
808	 0.518840016310484 
809	 0.519073359710188 
810	 0.519317143259377 
811	 0.51981767840299 
812	 0.520337535565889 
813	 0.520805416445345 
814	 0.521223149363527 
815	 0.521310349087244 
816	 0.521544548938933 
817	 0.521920302183532 
818	 0.521901276072498 
819	 0.522234684780129 
820	 0.522390703450506 
821	 0.522205424451528 
822	 0.522462638852543 
823	 0.522460444373265 
824	 0.522617749030705 
825	 0.523197627764118 
826	 0.523168735615675 
827	 0.522945693908512 
828	 0.52281943307088 
829	 0.52293836774535 
830	 0.522881698883443 
831	 0.522918479851228 
832	 0.522990329555526 
833	 0.522845940473287 
834	 0.5229882193786 
835	 0.523161844133046 
836	 0.523235677370535 
837	 0.523328382882702 
838	 0.523268716662084 
839	 0.523344606379775 
840	 0.523650773239941 
841	 0.523738734836896 
842	 0.523858644481279 
843	 0.524014672384641 
844	 0.52417622121853 
845	 0.524438418665666 
846	 0.524658329232017 
847	 0.524743308777077 
848	 0.52470293733322 
849	 0.524901332480723 
850	 0.52498771628049 
851	 0.525005471999106 
852	 0.525235361873657 
853	 0.525101651654129 
854	 0.524830908580113 
855	 0.524928293361717 
856	 0.525937812489204 
857	 0.526481053933563 
858	 0.526490451505246 
859	 0.52628369421455 
860	 0.526351943749989 
861	 0.52681394161117 
862	 0.527162517406919 
863	 0.527039258428486 
864	 0.52688622505623 
865	 0.526719155365549 
866	 0.526665701214821 
867	 0.526871493890182 
868	 0.527480114755766 
869	 0.527991861220207 
870	 0.528130254140868 
871	 0.527932079134199 
872	 0.528212751117244 
873	 0.528159662781893 
874	 0.527952231527419 
875	 0.528379118926064 
876	 0.528780433667678 
877	 0.528855643660931 
878	 0.528644973003218 
879	 0.528502363817834 
880	 0.528685860336041 
881	 0.528819619795268 
882	 0.528815892988521 
883	 0.529085301086713 
884	 0.529175320472503 
885	 0.529253817106453 
886	 0.52940118303303 
887	 0.529312203641792 
888	 0.529620709103583 
889	 0.529864406719552 
890	 0.529726625464389 
891	 0.529968574869313 
892	 0.530500259669828 
893	 0.530662028548443 
894	 0.5301578350837 
895	 0.530726362965509 
896	 0.53073266816174 
897	 0.530508039039435 
898	 0.530938510909809 
899	 0.531080918353575 
900	 0.531198161872176 
901	 0.53143106057214 
902	 0.531813383034557 
903	 0.532347359358532 
904	 0.532411328416111 
905	 0.532149281302287 
906	 0.532086418133865 
907	 0.531661152559649 
908	 0.531646128973658 
909	 0.532023142275541 
910	 0.532116141008108 
911	 0.532534951356722 
912	 0.532779823301428 
913	 0.532564032667443 
914	 0.532040201901634 
915	 0.532266375511904 
916	 0.532145934884418 
917	 0.531630864354798 
918	 0.531990227309794 
919	 0.531879592469676 
920	 0.5317206683841 
921	 0.531703615089245 
922	 0.531425566325503 
923	 0.531407116249272 
924	 0.531389608348093 
925	 0.531185570830668 
926	 0.530954316014661 
927	 0.531247219227467 
928	 0.530989338866936 
929	 0.529807160508306 
930	 0.529416426211265 
931	 0.529401183496857 
932	 0.528818101926481 
933	 0.527328412227968 
934	 0.526394943162939 
935	 0.526365344065497 
936	 0.527607533167824 
937	 0.529175041883362 
938	 0.528246796863464 
939	 0.527452776434128 
940	 0.526376546866096 
941	 0.524693890032313 
942	 0.523529998176257 
943	 0.521739217210621 
944	 0.519790380512075 
945	 0.518351553392409 
946	 0.517579802212781 
947	 0.516827183833224 
948	 0.516169476697085 
949	 0.515367569041389 
950	 0.513183893686088 
951	 0.511363348981076 
952	 0.510099328659669 
953	 0.508997500040675 
954	 0.507394487006466 
955	 0.505342829220997 
956	 0.503903454538057 
957	 0.503100847403238 
958	 0.500634626948646 
959	 0.499818987448471 
960	 0.498652791395463 
961	 0.496455456954593 
962	 0.496986434838921 
963	 0.496107867254738 
964	 0.49416246793326 
965	 0.492705372658147 
966	 0.493285439634072 
967	 0.493935112491178 
968	 0.49378457833533 
969	 0.493023799179622 
970	 0.492944077997358 
971	 0.49263292257616 
972	 0.491707561581197 
973	 0.490635927826695 
974	 0.490777362159331 
975	 0.490698751033707 
976	 0.490845048586263 
977	 0.491037006388841 
978	 0.49015503617742 
979	 0.490779786612198 
980	 0.491287034955415 
981	 0.490661122595898 
982	 0.489595813163151 
983	 0.490763797129389 
984	 0.491612740680597 
985	 0.491335759079288 
986	 0.491495143413918 
987	 0.493423709155107 
988	 0.493289717973225 
989	 0.491974388629876 
990	 0.493446354780198 
991	 0.494197856496567 
992	 0.494687684743571 
993	 0.49503330008382 
994	 0.495166163789582 
995	 0.495943975339992 
996	 0.496698495769368 
997	 0.496848358701351 
998	 0.496433012990421 
999	 0.497362187236356 
1000	 0.498157563870576 
1001	 0.495263328656626 
1002	 0.496031625821202 
1003	 0.496732051343957 
1004	 0.497561371697026 
1005	 0.49820637269292 
1006	 0.498680841793386 
1007	 0.499287316958267 
1008	 0.499822399219254 
1009	 0.500525708147043 
1010	 0.501390285200607 
1011	 0.502222407019812 
1012	 0.503069731620753 
1013	 0.503748622895013 
1014	 0.504397206043348 
1015	 0.505061909688193 
1016	 0.505693204276661 
1017	 0.506410629679464 
1018	 0.507147087560368 
1019	 0.507948619230271 
1020	 0.508638675828267 
1021	 0.509289716810591 
1022	 0.51002741260384 
1023	 0.510714038144497 
1024	 0.511504537881734 
1025	 0.512417469920922 
1026	 0.513322205234788 
1027	 0.514102342762613 
1028	 0.514711556416423 
1029	 0.515371497593776 
1030	 0.515971712585418 
1031	 0.516656945510457 
1032	 0.517451905358718 
1033	 0.51815351228364 
1034	 0.518828372950935 
1035	 0.519558001503599 
1036	 0.520243048580178 
1037	 0.520946147729587 
1038	 0.521728489173071 
1039	 0.522458238087597 
1040	 0.523080316247905 
1041	 0.523761425580716 
1042	 0.524382459758489 
1043	 0.524896182104737 
1044	 0.525518827969512 
1045	 0.525981462751176 
1046	 0.526387618617763 
1047	 0.526876969662025 
1048	 0.527254948355714 
1049	 0.527630433698808 
1050	 0.527955114248076 
1051	 0.528267055401968 
1052	 0.528592406150672 
1053	 0.528836492427947 
1054	 0.528989311656543 
1055	 0.529366179636698 
1056	 0.529601427208453 
1057	 0.529749044659893 
1058	 0.530269645618643 
1059	 0.53070170410522 
1060	 0.530899348015614 
1061	 0.531080460369346 
1062	 0.53106598414174 
1063	 0.530916552468983 
1064	 0.530821164499515 
1065	 0.530819477485086 
1066	 0.53093530967143 
1067	 0.530911406543689 
1068	 0.53088056191641 
1069	 0.531006913705836 
1070	 0.530925239529613 
1071	 0.530823828158211 
1072	 0.530767439039239 
1073	 0.530653729082352 
1074	 0.530499163934865 
1075	 0.530333373293756 
1076	 0.530284227298212 
1077	 0.530254394934179 
1078	 0.530165972300309 
1079	 0.529971590986756 
1080	 0.529732182779156 
1081	 0.52955273515126 
1082	 0.529279035666983 
1083	 0.529110864244369 
1084	 0.529107172886831 
1085	 0.529030957826902 
1086	 0.528913504279484 
1087	 0.528725488901839 
1088	 0.528504760698809 
1089	 0.528290801266346 
1090	 0.527914449658575 
1091	 0.527521322159992 
1092	 0.527238963763081 
1093	 0.5270717814207 
1094	 0.527014248286465 
1095	 0.526952163877433 
1096	 0.526779953972149 
1097	 0.526464455398687 
1098	 0.526217038364511 
1099	 0.525939697517245 
1100	 0.525683067126191 
1101	 0.525348755253813 
1102	 0.525040096036821 
1103	 0.524865205827769 
1104	 0.524631280532607 
1105	 0.524534724188122 
1106	 0.524575897213785 
1107	 0.524461910780063 
1108	 0.524411497427911 
1109	 0.524404826948209 
1110	 0.524252516006247 
1111	 0.524172237319976 
1112	 0.524072514843618 
1113	 0.523954058222962 
1114	 0.523905088656212 
1115	 0.523847089642457 
1116	 0.523723452372744 
1117	 0.52365995975316 
1118	 0.523619047955354 
1119	 0.523411016039575 
1120	 0.523143790065426 
1121	 0.522701430705993 
1122	 0.522169296570906 
1123	 0.521615414574471 
1124	 0.520782821067942 
1125	 0.519732295314722 
1126	 0.518353239872774 
1127	 0.516703537229888 
1128	 0.514854377409514 
1129	 0.512941071028381 
1130	 0.510718346831747 
1131	 0.508266035737029 
1132	 0.505771600928697 
1133	 0.503117619329013 
1134	 0.500422085356205 
1135	 0.497719624608391 
1136	 0.49512568991735 
1137	 0.492546456963074 
1138	 0.489770760308924 
1139	 0.48710251387209 
1140	 0.484326103285403 
1141	 0.48143239126447 
1142	 0.478637755719278 
1143	 0.47565150625696 
1144	 0.472556114309126 
1145	 0.469366447006317 
1146	 0.465983495542547 
1147	 0.462716963266127 
1148	 0.459441137736362 
1149	 0.456396552218032 
1150	 0.453558927974558 
1151	 0.450891284277626 
1152	 0.448440419125744 
1153	 0.446277319721334 
1154	 0.444239160757623 
1155	 0.442412401312679 
1156	 0.440831988748485 
1157	 0.439406014106348 
1158	 0.438314803583525 
1159	 0.437323501648484 
1160	 0.436339367482296 
1161	 0.435446787498031 
1162	 0.434620349134141 
1163	 0.433763773087257 
1164	 0.433059205884186 
1165	 0.432461037446615 
1166	 0.431901479381118 
1167	 0.43134589466849 
1168	 0.430901124423326 
1169	 0.430551761185395 
1170	 0.430249462565195 
1171	 0.429921060283104 
1172	 0.42965371046458 
1173	 0.429376333451138 
1174	 0.429107255241384 
1175	 0.428923235082486 
1176	 0.428679232307315 
1177	 0.428408529800931 
1178	 0.428086754025599 
1179	 0.427792909700536 
1180	 0.427493402479151 
1181	 0.427207578025781 
1182	 0.426943175963068 
1183	 0.426647045040397 
1184	 0.426301261283199 
1185	 0.426010882985446 
1186	 0.425704482712296 
1187	 0.425471981742506 
1188	 0.425324011598551 
1189	 0.425177903216989 
1190	 0.425007586378821 
1191	 0.424790610065427 
1192	 0.424526465084652 
1193	 0.424243484257952 
1194	 0.424032833871507 
1195	 0.423809427709157 
1196	 0.423712969051663 
1197	 0.42373292328879 
1198	 0.42369656694761 
1199	 0.423689072173481 
1200	 0.423708708649495 
1201	 0.423670526861455 
1202	 0.423775015171 
1203	 0.424018489509636 
1204	 0.424223012080895 
1205	 0.42452520679778 
1206	 0.424740630561283 
1207	 0.424841096455224 
1208	 0.425057832021315 
1209	 0.425400720030169 
1210	 0.425551802915998 
1211	 0.425771499352453 
1212	 0.426049979210975 
1213	 0.426309905914143 
1214	 0.426493364961263 
1215	 0.426816639600814 
1216	 0.427219398400401 
1217	 0.42763575153004 
1218	 0.428145772618915 
1219	 0.428577133385482 
1220	 0.428994342202528 
1221	 0.429426281980093 
1222	 0.429891970353187 
1223	 0.430248225985201 
1224	 0.43051021480161 
1225	 0.430888374334308 
1226	 0.431214221428063 
1227	 0.431588495069812 
1228	 0.432097072925448 
1229	 0.432573934545789 
1230	 0.433007157012242 
1231	 0.433480549370007 
1232	 0.433906725691939 
1233	 0.434353367637799 
1234	 0.434745294779161 
1235	 0.435077929930405 
1236	 0.435435295313776 
1237	 0.435756728588339 
1238	 0.436152207375369 
1239	 0.43659714669471 
1240	 0.436990509072512 
1241	 0.437415030114055 
1242	 0.437816848578167 
1243	 0.43815336223119 
1244	 0.438536487173067 
1245	 0.438956519917873 
1246	 0.439366531487123 
1247	 0.439799090174518 
1248	 0.4402018740391 
1249	 0.440618637036528 
1250	 0.440986565310632 
1251	 0.441313178827049 
1252	 0.441617091765611 
1253	 0.441922766543564 
1254	 0.442184272190471 
1255	 0.442513865926972 
1256	 0.442905411584082 
1257	 0.443208317005803 
1258	 0.443503065934903 
1259	 0.443791163855267 
1260	 0.444026792294486 
1261	 0.444264878852864 
1262	 0.444552231358471 
1263	 0.444753122520734 
1264	 0.444864658286121 
1265	 0.444993317985813 
1266	 0.445119980089703 
1267	 0.445185761765834 
1268	 0.445237300033744 
1269	 0.445226755308474 
1270	 0.445095819484723 
1271	 0.44500928079289 
1272	 0.444930648729745 
1273	 0.444827744701858 
1274	 0.444672965832425 
1275	 0.444544715644716 
1276	 0.444282127864966 
1277	 0.443910778540211 
1278	 0.44355271078061 
1279	 0.44315201364603 
1280	 0.442706669892717 
1281	 0.44226149787263 
1282	 0.441705252197393 
1283	 0.441012918227341 
1284	 0.440399393628959 
1285	 0.43981598967457 
1286	 0.439112401560583 
1287	 0.43838860107237 
1288	 0.437623531191544 
1289	 0.436697719091777 
1290	 0.435843848762971 
1291	 0.43507802150393 
1292	 0.434209103336635 
1293	 0.43324914157028 
1294	 0.432320745140198 
1295	 0.431390559396843 
1296	 0.430396265790119 
1297	 0.429331852885311 
1298	 0.428251032249652 
1299	 0.427117500707554 
1300	 0.425867363731106 
1301	 0.424635376738524 
1302	 0.423426634016917 
1303	 0.422122306649787 
1304	 0.42069155685723 
1305	 0.419333005972057 
1306	 0.417960138212948 
1307	 0.416585219239478 
1308	 0.415309066026333 
1309	 0.413844609651686 
1310	 0.412297162449341 
1311	 0.410675992029605 
1312	 0.40888304262182 
1313	 0.407121678306892 
1314	 0.405332209385722 
1315	 0.403523031011077 
1316	 0.40165550725618 
1317	 0.399836123929297 
1318	 0.398037349976597 
1319	 0.396213419491015 
1320	 0.394377094391079 
1321	 0.392583276878041 
1322	 0.390654016856539 
1323	 0.388578029393858 
1324	 0.386627122758981 
1325	 0.384611905097261 
1326	 0.38262092362529 
1327	 0.380725570012976 
1328	 0.378629194771715 
1329	 0.376399576999769 
1330	 0.374150776657615 
1331	 0.371776882331433 
1332	 0.36949665603326 
1333	 0.367202493242329 
1334	 0.365028112557544 
1335	 0.362887288585049 
1336	 0.360914864829025 
1337	 0.358993787643381 
1338	 0.35727111576129 
1339	 0.355647054383924 
1340	 0.354180531612957 
1341	 0.352867266615173 
1342	 0.351589563389718 
1343	 0.350318785469428 
1344	 0.34915691200966 
1345	 0.348132049595431 
1346	 0.346933134093584 
1347	 0.345961369342797 
1348	 0.345194727650897 
1349	 0.344432823195316 
1350	 0.34397378798739 
1351	 0.34349605363064 
1352	 0.343852295699093 
1353	 0.343398332534779 
1354	 0.342410341209566 
1355	 0.341837873774153 
1356	 0.340984185400076 
1357	 0.340493553761666 
1358	 0.344315189599297 
1359	 0.34670378742167 
1360	 0.346634631464437 
1361	 0.34837139030094 
1362	 0.348563779415351 
1363	 0.348570234195108 
1364	 0.34997231498507 
1365	 0.34607622868985 
1366	 0.336813343158633 
1367	 0.331265667490903 
1368	 0.331199878401932 
1369	 0.324265589826114 
1370	 0.310713190040199 
1371	 0.308974439622535 
1372	 0.310082682618444 
1373	 0.309097925531971 
1374	 0.313612082698638 
1375	 0.317686884056963 
1376	 0.305538573926179 
1377	 0.298679103716747 
1378	 0.291398429122042 
1379	 0.27951221020517 
1380	 0.272836114949069 
1381	 0.272914073067636 
1382	 0.2633374026748 
1383	 0.250114253472166 
1384	 0.241272828736297 
1385	 0.230778058418551 
1386	 0.223630164081812 
1387	 0.221946358223562 
1388	 0.21692545581709 
1389	 0.211209899745084 
1390	 0.205801999205855 
1391	 0.200809296243604 
1392	 0.195210349280287 
1393	 0.188663879725527 
1394	 0.182884673512899 
1395	 0.178111058664213 
1396	 0.171883628190912 
1397	 0.164311770548159 
1398	 0.158744050822839 
1399	 0.152566531967596 
1400	 0.147859542880329 
1401	 0.14625739098902 
1402	 0.14252173074814 
1403	 0.138716083510983 
1404	 0.134226778891256 
1405	 0.128344298102477 
1406	 0.124006310536713 
1407	 0.120163024358216 
1408	 0.117356331075807 
1409	 0.115445475769281 
1410	 0.112309576803147 
1411	 0.109901024573032 
1412	 0.107630810531464 
1413	 0.105432757147489 
1414	 0.103293287645962 
1415	 0.101728153001206 
1416	 0.100305041558482 
1417	 9.88790433883492E-02 
1418	 9.78767746542584E-02 
1419	 9.65319357570608E-02 
1420	 9.48763749484665E-02 
1421	 9.36331935576292E-02 
1422	 9.25452813658291E-02 
1423	 9.14600794063872E-02 
1424	 9.02575670472194E-02 
1425	 8.95255108987592E-02 
1426	 8.91468683697851E-02 
1427	 8.83606516842004E-02 
1428	 8.75230914740005E-02 
1429	 8.68924504149952E-02 
1430	 8.59409456585271E-02 
1431	 8.52859687128666E-02 
1432	 8.50251990573392E-02 
1433	 8.46692906090514E-02 
1434	 8.43579585605371E-02 
1435	 8.39832023797162E-02 
1436	 8.37306135756691E-02 
1437	 8.33076629167283E-02 
1438	 8.25961933709595E-02 
1439	 8.20819317496797E-02 
1440	 8.15102982990148E-02 
1441	 0.081162376163575 
1442	 0.080977292530813 
1443	 8.09543805112114E-02 
1444	 8.08981052950815E-02 
1445	 8.09216954275867E-02 
1446	 8.10001267149021E-02 
1447	 8.09187808083759E-02 
1448	 8.08165644446529E-02 
1449	 0.080721491847224 
1450	 8.05471554723052E-02 
1451	 8.02382116506512E-02 
1452	 8.01183086183133E-02 
1453	 0.080029764541827 
1454	 7.99695263225245E-02 
1455	 7.99655472713973E-02 
1456	 8.00054765805875E-02 
1457	 8.00124772166057E-02 
1458	 0.080153653257035 
1459	 8.04431501019787E-02 
1460	 8.06521132615356E-02 
1461	 8.09061362490223E-02 
1462	 8.11787051463742E-02 
1463	 8.14505631917105E-02 
1464	 8.17518274226374E-02 
1465	 8.20443616700536E-02 
1466	 8.24935136603352E-02 
1467	 8.30798024478891E-02 
1468	 8.35842457824274E-02 
1469	 8.41291466556377E-02 
1470	 8.47304639358389E-02 
1471	 8.52240253945225E-02 
1472	 8.58246432687546E-02 
1473	 8.65337988377442E-02 
1474	 0.087206395721015 
1475	 0.08776732691091 
1476	 8.84592976803881E-02 
1477	 8.93053284925316E-02 
1478	 9.00360789847419E-02 
1479	 9.07017984019341E-02 
1480	 9.14435272971751E-02 
1481	 9.21002366726875E-02 
1482	 0.092831504760538 
1483	 9.36626039448156E-02 
1484	 9.44903616903251E-02 
1485	 0.095276677952837 
1486	 9.61358175845268E-02 
1487	 9.70073587415472E-02 
1488	 9.79461602076075E-02 
1489	 9.88880578635128E-02 
1490	 9.97776174670242E-02 
1491	 0.100661175746021 
1492	 0.101420836396498 
1493	 0.102168936474792 
1494	 0.103036065549304 
1495	 0.103890192745771 
1496	 0.1047839059573 
1497	 0.105703418091119 
1498	 0.106670983501102 
1499	 0.107604782188314 
1500	 0.108587238799399 
1501	 0.109520089098613 
1502	 0.110395218411451 
1503	 0.111400949710383 
1504	 0.112430735014131 
1505	 0.113518438477781 
1506	 0.114721352535537 
1507	 0.115826160357137 
1508	 0.116914211966817 
1509	 0.118003066904686 
1510	 0.119079046043362 
1511	 0.120131232636669 
1512	 0.121168946070506 
1513	 0.122226965599248 
1514	 0.12329192840653 
1515	 0.124328823450472 
1516	 0.125361318659379 
1517	 0.126439637986419 
1518	 0.127495871860729 
1519	 0.12859713779553 
1520	 0.129820206066348 
1521	 0.13092817492861 
1522	 0.131968954010998 
1523	 0.133056920189135 
1524	 0.13414566378379 
1525	 0.135206212290157 
1526	 0.136283394319618 
1527	 0.137347194634153 
1528	 0.138331355560186 
1529	 0.139406916232678 
1530	 0.140550517038449 
1531	 0.1416800344054 
1532	 0.142889510138904 
1533	 0.144011479980354 
1534	 0.145072746117332 
1535	 0.146161819392598 
1536	 0.147184297851234 
1537	 0.148283980558464 
1538	 0.149517763928847 
1539	 0.150615023144699 
1540	 0.151624303129339 
1541	 0.152708928790026 
1542	 0.153754527982858 
1543	 0.154811294116836 
1544	 0.155994444284615 
1545	 0.157077197344837 
1546	 0.157995119710226 
1547	 0.159045003524784 
1548	 0.160175592858309 
1549	 0.161255179523282 
1550	 0.162417901553724 
1551	 0.163518436994354 
1552	 0.164533036924464 
1553	 0.16555374533392 
1554	 0.166525232910687 
1555	 0.167554619218204 
1556	 0.168638973849657 
1557	 0.16966666813347 
1558	 0.170700319193963 
1559	 0.171737868015544 
1560	 0.172788587557597 
1561	 0.173749541827031 
1562	 0.174639188402012 
1563	 0.175576167047561 
1564	 0.176498562108948 
1565	 0.177335596732478 
1566	 0.17830456229979 
1567	 0.179352033829465 
1568	 0.180319686114224 
1569	 0.181279971265522 
1570	 0.18219192896409 
1571	 0.183053337295108 
1572	 0.183972818908602 
1573	 0.184866955053386 
1574	 0.185794341707207 
1575	 0.18676971649933 
1576	 0.187689884129367 
1577	 0.188572963806922 
1578	 0.189461271158632 
1579	 0.190337055866857 
1580	 0.191190681970366 
1581	 0.192012058753926 
1582	 0.192871422274741 
1583	 0.193732072809547 
1584	 0.194581396599477 
1585	 0.195456740224335 
1586	 0.196294528331434 
1587	 0.19709336259779 
1588	 0.197935212598857 
1589	 0.19878299030718 
1590	 0.199654942577402 
1591	 0.200582204698616 
1592	 0.201411698909505 
1593	 0.20224482726056 
1594	 0.202986208001003 
1595	 0.203624484714685 
1596	 0.204314580328747 
1597	 0.204946293388721 
1598	 0.205696010215013 
1599	 0.206511552848057 
1600	 0.20730430524402 
1601	 0.208195146089158 
1602	 0.208930670388673 
1603	 0.209562550375676 
1604	 0.210272747309581 
1605	 0.210957110033634 
1606	 0.211627083836738 
1607	 0.212281401653092 
1608	 0.213045176086417 
1609	 0.213851877361965 
1610	 0.214548341737391 
1611	 0.215327272118645 
1612	 0.215968467379409 
1613	 0.216384459240023 
1614	 0.216993959592238 
1615	 0.217706486177754 
1616	 0.218315266115188 
1617	 0.21893267376809 
1618	 0.219504367820225 
1619	 0.219993521196572 
1620	 0.220535993125643 
1621	 0.221073003038533 
1622	 0.22165157289447 
1623	 0.222264876039241 
1624	 0.222859599202186 
1625	 0.223481773554352 
1626	 0.224077506352397 
1627	 0.224668494041335 
1628	 0.225229272703241 
1629	 0.22578553466504 
1630	 0.22632170909244 
1631	 0.226819351091652 
1632	 0.227323391583858 
1633	 0.227860242183899 
1634	 0.228297074123124 
1635	 0.228672587309902 
1636	 0.229070422232887 
1637	 0.229406430926352 
1638	 0.229798692209398 
1639	 0.230202009658034 
1640	 0.230667928611473 
1641	 0.231187978376128 
1642	 0.231609372697306 
1643	 0.232058445592779 
1644	 0.232449919627396 
1645	 0.232729461552122 
1646	 0.233091534898843 
1647	 0.233505443516023 
1648	 0.23383718999754 
1649	 0.234122560011753 
1650	 0.2344736845838 
1651	 0.234836530598828 
1652	 0.235140011016736 
1653	 0.235488093201015 
1654	 0.235686915718821 
1655	 0.235716749547978 
1656	 0.235915996715632 
1657	 0.236128722338727 
1658	 0.236463818778452 
1659	 0.236802789473379 
1660	 0.237167352843508 
1661	 0.237347170669005 
1662	 0.237451974980254 
1663	 0.23767969700505 
1664	 0.237882364766077 
1665	 0.23804594623995 
1666	 0.238193699218619 
1667	 0.238380821854004 
1668	 0.238587532456851 
1669	 0.238707607900269 
1670	 0.238937441637811 
1671	 0.239124767945233 
1672	 0.239294869310369 
1673	 0.2395028798912 
1674	 0.239569912862197 
1675	 0.239662505120291 
1676	 0.239613770695123 
1677	 0.239519675145219 
1678	 0.239566749788316 
1679	 0.239527353977327 
1680	 0.239576377041363 
1681	 0.239694605056969 
1682	 0.239607919130933 
1683	 0.239543110800625 
1684	 0.239401968655903 
1685	 0.23916111821711 
1686	 0.23912730566453 
1687	 0.238930175334343 
1688	 0.238591150224992 
1689	 0.238431454026958 
1690	 0.238216458680956 
1691	 0.238032731520498 
1692	 0.238030248042962 
1693	 0.237904868867505 
1694	 0.237655770681881 
1695	 0.237460034403006 
1696	 0.23734093251617 
1697	 0.237074100040361 
1698	 0.236695126449106 
1699	 0.236360760626965 
1700	 0.235925130934991 
1701	 0.235551342881245 
1702	 0.235241075400856 
1703	 0.234922112703179 
1704	 0.234694214121322 
1705	 0.234323722863619 
1706	 0.233838506696627 
1707	 0.233422348929932 
1708	 0.232910326201374 
1709	 0.232443655179343 
1710	 0.232108290553044 
1711	 0.231708094698257 
1712	 0.231273591067308 
1713	 0.230818689106972 
1714	 0.230379943340201 
1715	 0.229852959125769 
1716	 0.229230254378563 
1717	 0.228646064386797 
1718	 0.227991148170609 
1719	 0.227367191226485 
1720	 0.226682791787291 
1721	 0.226232337619375 
1722	 0.225957060294355 
1723	 0.225521314650588 
1724	 0.225235404550492 
1725	 0.224818356779188 
1726	 0.224223822045379 
1727	 0.223686233454465 
1728	 0.22315474638911 
1729	 0.22258819988961 
1730	 0.221925596544336 
1731	 0.221333246706303 
1732	 0.220852764546688 
1733	 0.220394904753085 
1734	 0.219891169453268 
1735	 0.219571068674578 
1736	 0.219361315377018 
1737	 0.218881558025768 
1738	 0.218373052273706 
1739	 0.217899570564041 
1740	 0.217131706089385 
1741	 0.216483320374776 
1742	 0.216011259570265 
1743	 0.215266294144989 
1744	 0.214503624091231 
1745	 0.213837225973418 
1746	 0.213152309300645 
1747	 0.21247202731871 
1748	 0.211582740378314 
1749	 0.210693845348645 
1750	 0.209804447253381 
1751	 0.208714500789647 
1752	 0.208089284681044 
1753	 0.20765998243941 
1754	 0.206901010524617 
1755	 0.206326507247598 
1756	 0.205675866377583 
1757	 0.204793935104253 
1758	 0.204148071229748 
1759	 0.203635104024455 
1760	 0.203057692900724 
1761	 0.202517065891098 
1762	 0.201959856782022 
1763	 0.201354475533366 
1764	 0.200815263900722 
1765	 0.200427594974006 
1766	 0.199910229758643 
1767	 0.199268993743657 
1768	 0.19871848882129 
1769	 0.198136214424791 
1770	 0.197598533765518 
1771	 0.197120369538357 
1772	 0.196778087649514 
1773	 0.196478704165786 
1774	 0.196278135700681 
1775	 0.196041820993902 
1776	 0.195580091936462 
1777	 0.195211454543595 
1778	 0.194816035620126 
1779	 0.194344619351005 
1780	 0.194067522533031 
1781	 0.193828216800225 
1782	 0.193581569359516 
1783	 0.193488829365137 
1784	 0.193735180790627 
1785	 0.193975227939637 
1786	 0.19370354563225 
1787	 0.193698602447655 
1788	 0.193627609279645 
1789	 0.193295713687115 
1790	 0.194058686999465 
1791	 0.194669450931067 
1792	 0.194573665413199 
1793	 0.195078339085405 
1794	 0.195085639085103 
1795	 0.1951007434647 
1796	 0.195876865108692 
1797	 0.196197465226498 
1798	 0.196781491968807 
1799	 0.197630277558718 
1800	 0.197911106741914 
1801	 0.193248185344605 
1802	 0.19416906584155 
1803	 0.194602945911814 
1804	 0.195006373956982 
1805	 0.19519174839734 
1806	 0.193944487736684 
1807	 0.194195918387939 
1808	 0.195424391549433 
1809	 0.196921528489264 
1810	 0.197910535233503 
1811	 0.200074208848845 
1812	 0.200692580743382 
1813	 0.199508560962307 
1814	 0.198891814877268 
1815	 0.196348504077226 
1816	 0.196294160269602 
1817	 0.19822181963048 
1818	 0.199560878460809 
1819	 0.20166705743036 
1820	 0.207244954021596 
1821	 0.209388206442366 
1822	 0.209651649789904 
1823	 0.209636222389755 
1824	 0.206380307377569 
1825	 0.205360488423987 
1826	 0.202653239619121 
1827	 0.20186823177887 
1828	 0.202992065373704 
1829	 0.20966975282016 
1830	 0.214990327140684 
1831	 0.227709077291725 
1832	 0.232533199491656 
1833	 0.223105448551273 
1834	 0.226643604553358 
1835	 0.221892282323261 
1836	 0.227938389522195 
1837	 0.285895632069538 
1838	 0.308583758764813 
1839	 0.312547800490657 
1840	 0.28477874699861 
1841	 0.274182583372478 
1842	 0.248975613553343 
1843	 0.226894098801238 
1844	 0.216974081947925 
1845	 0.197559313423606 
1846	 0.138064588284544 
1847	 0.119028345885582 
1848	 0.114514979061616 
1849	 0.119520315594407 
1850	 0.134398815389366 
1851	 0.197690675746614 
1852	 0.217684698132362 
1853	 0.237238093898601 
1854	 0.237248416338739 
1855	 0.179035324430815 
1856	 0.171618788415303 
1857	 0.192736289835945 
1858	 0.199902868011219 
1859	 0.186467211850521 
1860	 0.175092780034284 
1861	 0.165888467817317 
1862	 0.113171272714926 
1863	 0.115714180255188 
1864	 0.171739853626296 
1865	 0.199649598277977 
1866	 0.25728542146866 
1867	 0.304048858556262 
1868	 0.275075415517922 
1869	 0.24332887304841 
1870	 0.203333119996083 
1871	 0.100616037762296 
1872	 8.00903963898515E-02 
1873	 0.113237324666622 
1874	 0.109330017831904 
1875	 0.125337123661977 
1876	 0.123477352685413 
1877	 0.110619356188944 
1878	 8.97094164987652E-02 
1879	 0.07751178721639 
1880	 8.32533933939402E-02 
1881	 8.34407043698034E-02 
1882	 8.68018177901813E-02 
1883	 8.43680550430492E-02 
1884	 8.46282791823942E-02 
1885	 7.71632547046366E-02 
1886	 5.23410059115329E-02 
1887	 5.15223036869544E-02 
1888	 6.24799266134604E-02 
1889	 5.88239131992115E-02 
1890	 5.74608109567681E-02 
1891	 6.17839120219157E-02 
1892	 6.64654554117648E-02 
1893	 6.15435688943447E-02 
1894	 7.07715387060117E-02 
1895	 0.110593014831878 
1896	 0.121414137216877 
1897	 0.116654573292749 
1898	 0.116597584228514 
1899	 9.26621108725053E-02 
1900	 7.21946403333379E-02 
1901	 6.14608302166758E-02 
1902	 6.20110874161177E-02 
1903	 6.11804314505666E-02 
1904	 7.50464953041208E-02 
1905	 8.72384133277817E-02 
1906	 0.112662077321221 
1907	 0.138000780467885 
1908	 9.58004237036481E-02 
1909	 6.54854919253674E-02 
1910	 4.90419211533022E-02 
1911	 3.23092558489644E-02 
1912	 3.51505646144936E-02 
1913	 6.65553857880085E-02 
1914	 6.05064709598377E-02 
1915	 4.32782807767488E-02 
1916	 3.79879430122439E-02 
1917	 2.91579936255552E-02 
1918	 2.23174713704495E-02 
1919	 2.60015063494323E-02 
1920	 3.22981284831043E-02 
1921	 3.65506275288747E-02 
1922	 4.20404873453644E-02 
1923	 4.26653595408855E-02 
1924	 3.93769596310027E-02 
1925	 3.83190764207997E-02 
1926	 3.84233453435981E-02 
1927	 0.035054871499227 
1928	 2.93427895285252E-02 
1929	 2.80603979856393E-02 
1930	 2.44537631353982E-02 
1931	 0.018847528191804 
1932	 2.12810449833821E-02 
1933	 2.30187182041095E-02 
1934	 2.34702822788212E-02 
1935	 2.40926692366334E-02 
1936	 2.46893700914316E-02 
1937	 2.51344483023292E-02 
1938	 2.54002779610718E-02 
1939	 2.56052066601164E-02 
1940	 2.61446761075267E-02 
1941	 2.60546129920192E-02 
1942	 0.023930478105871 
1943	 2.41816166333614E-02 
1944	 2.47517621500792E-02 
1945	 2.49888263859012E-02 
1946	 2.65562061233067E-02 
1947	 0.026628273822493 
1948	 2.52594965669281E-02 
1949	 2.50618630477108E-02 
1950	 2.53726169949336E-02 
1951	 2.39888565058985E-02 
1952	 2.45347668954015E-02 
1953	 0.025398083898202 
1954	 2.46148907179918E-02 
1955	 2.51434701292902E-02 
1956	 2.44599808405583E-02 
1957	 2.43346799240428E-02 
1958	 2.46194898480616E-02 
1959	 2.51559530150085E-02 
1960	 2.53682466973949E-02 
1961	 2.59487840176967E-02 
1962	 2.61637586858122E-02 
1963	 0.025943556867973 
1964	 2.62407700593567E-02 
1965	 0.02664314368929 
1966	 2.69994723197199E-02 
1967	 2.75573397969787E-02 
1968	 2.82643603384698E-02 
1969	 2.85700602224719E-02 
1970	 2.87534400055979E-02 
1971	 2.87723187082934E-02 
1972	 2.84890565399626E-02 
1973	 2.84486974537429E-02 
1974	 2.83678904358179E-02 
1975	 2.82880597820278E-02 
1976	 2.79655978996087E-02 
1977	 2.78280054775893E-02 
1978	 2.81904066466325E-02 
1979	 2.86465361562328E-02 
1980	 2.93555549055401E-02 
1981	 2.95794296502791E-02 
1982	 2.99026875649345E-02 
1983	 2.98781637279852E-02 
1984	 0.030477036198908 
1985	 0.030995678682069 
1986	 0.031449520216168 
1987	 3.21687199057908E-02 
1988	 3.21766038497795E-02 
1989	 3.20556957471474E-02 
1990	 3.25487263313878E-02 
1991	 0.032468925002305 
1992	 3.24094117845513E-02 
1993	 3.25935073034846E-02 
1994	 0.032545602987496 
1995	 3.27942061451916E-02 
1996	 3.34629737566104E-02 
1997	 3.41172036147024E-02 
1998	 3.43674537565555E-02 
1999	 3.42597824504595E-02 
2000	 3.40837242311028E-02 
2001	 3.40932609213613E-02 
2002	 3.43985198140783E-02 
2003	 3.60643401632549E-02 
2004	 3.75086973520483E-02 
2005	 0.038072686189848 
2006	 3.88936426980974E-02 
2007	 3.98180466461367E-02 
2008	 3.97930525034886E-02 
2009	 4.00601808723905E-02 
2010	 4.06189701075943E-02 
2011	 0.040542744723056 
2012	 4.12157357642509E-02 
2013	 4.16626107716692E-02 
2014	 0.041948504031737 
2015	 4.26016110794199E-02 
2016	 0.042937698087116 
2017	 4.34551207967812E-02 
2018	 4.43084929083064E-02 
2019	 0.044697224331835 
2020	 4.50409137586829E-02 
2021	 4.50218657422942E-02 
2022	 4.48525357522782E-02 
2023	 4.47602651211814E-02 
2024	 4.49514352190859E-02 
2025	 4.55188161446288E-02 
2026	 4.60284865118758E-02 
2027	 4.63294250143522E-02 
2028	 4.65447605223348E-02 
2029	 4.67885471135891E-02 
2030	 4.73775832805485E-02 
2031	 0.047877603473012 
2032	 4.82560773789841E-02 
2033	 4.86670093882154E-02 
2034	 4.90357868340751E-02 
2035	 4.92522815871567E-02 
2036	 4.94939200679246E-02 
2037	 4.98603694103691E-02 
2038	 5.02268747214648E-02 
2039	 5.01833547158037E-02 
2040	 5.06071815377172E-02 
2041	 5.13676963684646E-02 
2042	 5.14955483989189E-02 
2043	 0.051947518897889 
2044	 5.24204811828015E-02 
2045	 5.25721674053854E-02 
2046	 5.21871903528129E-02 
2047	 5.24352079692371E-02 
2048	 5.29620493572256E-02 
2049	 5.33656965874471E-02 
2050	 5.42234778077979E-02 
2051	 5.53395752841474E-02 
2052	 5.61649036417192E-02 
2053	 5.68714219486419E-02 
2054	 5.78421280582169E-02 
2055	 5.83402672979032E-02 
2056	 5.86116593507681E-02 
2057	 5.90971272822943E-02 
2058	 5.89835722020063E-02 
2059	 5.90693544701465E-02 
2060	 5.91899208972256E-02 
2061	 0.059619086957452 
2062	 5.97065708331416E-02 
2063	 6.03607514611999E-02 
2064	 6.08813530977257E-02 
2065	 6.12192638863557E-02 
2066	 6.20386462382251E-02 
2067	 0.062253269788722 
2068	 6.25878023186208E-02 
2069	 6.32658802467434E-02 
2070	 6.35415941975176E-02 
2071	 6.36276628479398E-02 
2072	 6.38859674685542E-02 
2073	 6.42012239727102E-02 
2074	 6.44632578522684E-02 
2075	 6.45165766823181E-02 
2076	 6.47815263704858E-02 
2077	 6.51851915232657E-02 
2078	 0.065822963707043 
2079	 6.64407336086187E-02 
2080	 6.69233960053817E-02 
2081	 6.73622227494375E-02 
2082	 0.067566246367651 
2083	 6.80120964219942E-02 
2084	 6.83532461879061E-02 
2085	 6.87847866555582E-02 
2086	 6.92641195934299E-02 
2087	 6.96258031962673E-02 
2088	 6.97184838703184E-02 
2089	 7.04589169862978E-02 
2090	 7.11743171400015E-02 
2091	 7.15168052648441E-02 
2092	 7.20446823584793E-02 
2093	 7.26162102371128E-02 
2094	 7.30478789223027E-02 
2095	 7.36950876475737E-02 
2096	 7.45245226637757E-02 
2097	 7.52794726047016E-02 
2098	 7.59815788633455E-02 
2099	 7.61569750878258E-02 
2100	 7.60465790672929E-02 
2101	 7.58431355643154E-02 
2102	 7.58859214680289E-02 
2103	 0.075847028431625 
2104	 7.62932509080902E-02 
2105	 0.077027401394984 
2106	 7.77446646422554E-02 
2107	 7.80973631983705E-02 
2108	 7.86705777289845E-02 
2109	 7.92230471984429E-02 
2110	 7.95407507555691E-02 
2111	 8.01655818022172E-02 
2112	 8.04635773146674E-02 
2113	 8.08575194682953E-02 
2114	 8.15646116319167E-02 
2115	 0.082080453899594 
2116	 0.082553120991646 
2117	 8.28783944402306E-02 
2118	 8.27509908345749E-02 
2119	 8.30605829604351E-02 
2120	 8.34683311221071E-02 
2121	 8.39532512085715E-02 
2122	 8.46855161938009E-02 
2123	 8.52819233227205E-02 
2124	 8.58175177872771E-02 
2125	 8.64659045416278E-02 
2126	 8.67689970850316E-02 
2127	 8.66827899454673E-02 
2128	 8.65977608224163E-02 
2129	 8.64145659598412E-02 
2130	 8.63674007152951E-02 
2131	 8.68630187461395E-02 
2132	 8.76045159020119E-02 
2133	 8.81788254399622E-02 
2134	 8.87220614452598E-02 
2135	 8.94176362634217E-02 
2136	 8.99759765958174E-02 
2137	 0.09006097323159 
2138	 9.02458280476528E-02 
2139	 9.06648280276096E-02 
2140	 9.10731047801604E-02 
2141	 9.13360975178598E-02 
2142	 9.18774922012861E-02 
2143	 9.25177036174882E-02 
2144	 9.26855185686004E-02 
2145	 9.30301708101218E-02 
2146	 9.33083343357491E-02 
2147	 9.35021281809626E-02 
2148	 9.39230147396717E-02 
2149	 9.43123300155692E-02 
2150	 9.47428942836638E-02 
2151	 9.49439189561743E-02 
2152	 9.47069303589974E-02 
2153	 0.094814293697378 
2154	 9.50084458832105E-02 
2155	 9.50551620654532E-02 
2156	 9.53387684922891E-02 
2157	 9.58608026180049E-02 
2158	 9.60310639764373E-02 
2159	 9.65525436752177E-02 
2160	 9.72302189686824E-02 
2161	 0.097453890731778 
2162	 9.79643670769472E-02 
2163	 9.83446502231271E-02 
2164	 9.84440035686984E-02 
2165	 0.098810581063075 
2166	 9.89076125480395E-02 
2167	 9.91757757387038E-02 
2168	 9.95442913292027E-02 
2169	 0.100050938697841 
2170	 0.100291707245522 
2171	 0.100657231276322 
2172	 0.10070144873397 
2173	 0.100220444792489 
2174	 0.100101477928282 
2175	 0.100268650676994 
2176	 0.100293980962351 
2177	 0.100537312102537 
2178	 0.101391593853696 
2179	 0.10206048721119 
2180	 0.102135829569509 
2181	 0.102306058988212 
2182	 0.102279101071537 
2183	 0.101827467082003 
2184	 0.101887182289285 
2185	 0.102184864434703 
2186	 0.102346019099396 
2187	 0.102486296548297 
2188	 0.102539736661538 
2189	 0.102909180535543 
2190	 0.103574017726184 
2191	 0.103549618469626 
2192	 0.103875726319461 
2193	 0.104055323034452 
2194	 0.103402819378683 
2195	 0.103623195171833 
2196	 0.104167632440122 
2197	 0.104446630010092 
2198	 0.10488053631295 
2199	 0.105011683654168 
2200	 0.104893749083361 
2201	 0.104822015033262 
2202	 0.105207217540006 
2203	 0.105925132957561 
2204	 0.105931089980559 
2205	 0.105867932673888 
2206	 0.106353392026597 
2207	 0.106394795058855 
2208	 0.106325779155083 
2209	 0.106640667614765 
2210	 0.106671761701139 
2211	 0.106145427244258 
2212	 0.105818456859709 
2213	 0.106135622161709 
2214	 0.10611412908025 
2215	 0.106106926245833 
2216	 0.106245468767661 
2217	 0.106044629108113 
2218	 0.106296347650806 
2219	 0.106790314289768 
2220	 0.106912054600252 
2221	 0.106662991047764 
2222	 0.106295142338157 
2223	 0.105812519665487 
2224	 0.105075043115296 
2225	 0.105218422897822 
2226	 0.10555718467316 
2227	 0.105680943130397 
2228	 0.1064278841206 
2229	 0.106602245599042 
2230	 0.105883284713975 
2231	 0.105399519466925 
2232	 0.104354092891613 
2233	 0.103921162593213 
2234	 0.103524466039445 
2235	 0.104214067136127 
2236	 0.104954295660617 
2237	 0.105506233520904 
2238	 0.106176495835391 
2239	 0.105992045449156 
2240	 0.105512770052092 
2241	 0.104765317644621 
2242	 0.103341040076181 
2243	 0.102612554475412 
2244	 0.102090561799183 
2245	 0.101547764318976 
2246	 0.101466541741138 
2247	 0.101181624167152 
2248	 0.101324393361987 
2249	 0.101506840827189 
2250	 0.101400986052606 
2251	 0.101624116539772 
2252	 0.101013762360405 
2253	 0.100080544237029 
2254	 0.099320236386926 
2255	 9.80455812417236E-02 
2256	 9.75684823076365E-02 
2257	 9.75333731918358E-02 
2258	 9.79360561015895E-02 
2259	 9.80178238108879E-02 
2260	 9.82432773311879E-02 
2261	 0.097844239017804 
2262	 9.69417782857056E-02 
2263	 9.64000824163086E-02 
2264	 9.60238101928891E-02 
2265	 9.62583083517296E-02 
2266	 9.67506337563134E-02 
2267	 9.64676859264966E-02 
2268	 9.64249140556192E-02 
2269	 0.095664301194021 
2270	 0.093810356940544 
2271	 0.093187682914676 
2272	 9.21806693752636E-02 
2273	 9.17151271937568E-02 
2274	 9.28095431988526E-02 
2275	 9.19908296702412E-02 
2276	 9.17255373479681E-02 
2277	 9.16493109564654E-02 
2278	 9.04507181513799E-02 
2279	 9.12775143430649E-02 
2280	 9.16910697585382E-02 
2281	 9.11442320544293E-02 
2282	 9.08555904955977E-02 
2283	 8.96740911943422E-02 
2284	 8.85810592259066E-02 
2285	 8.81414791639237E-02 
2286	 8.79317696392824E-02 
2287	 0.088021221096118 
2288	 8.77966433444789E-02 
2289	 8.78317758046672E-02 
2290	 8.89542378043064E-02 
2291	 8.84973359600235E-02 
2292	 8.77141851672913E-02 
2293	 8.75439669282835E-02 
2294	 8.48848952375784E-02 
2295	 8.30496977716558E-02 
2296	 8.28869483731102E-02 
2297	 8.19814185748117E-02 
2298	 8.18678106544264E-02 
2299	 8.20596857323821E-02 
2300	 8.19908732553953E-02 
2301	 8.20606040314273E-02 
2302	 8.21970784448374E-02 
2303	 8.19973100768559E-02 
2304	 8.14046274757914E-02 
2305	 8.10788979762219E-02 
2306	 8.05587427960023E-02 
2307	 8.00209601936172E-02 
2308	 0.07961111629981 
2309	 7.88289860714263E-02 
2310	 7.80009481168419E-02 
2311	 7.76483649029615E-02 
2312	 7.74131474364901E-02 
2313	 7.70241178107458E-02 
2314	 7.66365133056629E-02 
2315	 7.65359417951102E-02 
2316	 7.74954005080545E-02 
2317	 7.80139518685206E-02 
2318	 7.76225958560954E-02 
2319	 0.077341696034726 
2320	 7.64003839772441E-02 
2321	 7.54617278794993E-02 
2322	 7.38769902208738E-02 
2323	 7.38981345273548E-02 
2324	 7.49348581576764E-02 
2325	 7.52233281771624E-02 
2326	 7.52765151180201E-02 
2327	 7.58304759085375E-02 
2328	 7.47606785458095E-02 
2329	 7.39397497424303E-02 
2330	 7.48538902992443E-02 
2331	 7.61976161676546E-02 
2332	 7.59744566678279E-02 
2333	 7.44793323821001E-02 
2334	 0.072371894319138 
2335	 7.09361604717804E-02 
2336	 7.13118500636035E-02 
2337	 7.21780265131637E-02 
2338	 7.25222654370076E-02 
2339	 7.14865870791919E-02 
2340	 7.01750317958694E-02 
2341	 6.99763071589304E-02 
2342	 6.99854145634782E-02 
2343	 6.93374693509415E-02 
2344	 0.069300172890141 
2345	 6.93597275760619E-02 
2346	 6.84853724036878E-02 
2347	 6.79058200133657E-02 
2348	 6.73659298123047E-02 
2349	 6.63576914244926E-02 
2350	 0.065319325565611 
2351	 0.065048073638534 
2352	 6.49589353372052E-02 
2353	 6.38418668767009E-02 
2354	 6.31283041299638E-02 
2355	 6.37592531490022E-02 
2356	 6.42734042870733E-02 
2357	 6.44458543098228E-02 
2358	 6.47950150355718E-02 
2359	 6.52722750838289E-02 
2360	 6.56323900689102E-02 
2361	 6.38430041473701E-02 
2362	 6.22620933048876E-02 
2363	 6.18855010751965E-02 
2364	 5.91665431729481E-02 
2365	 5.94312454921119E-02 
2366	 6.32584748247566E-02 
2367	 6.42697519352905E-02 
2368	 6.47628718278266E-02 
2369	 6.61607170571768E-02 
2370	 6.58691080329955E-02 
2371	 6.42139060191498E-02 
2372	 6.32852686030002E-02 
2373	 6.29270418818543E-02 
2374	 6.25187359832704E-02 
2375	 6.31803067231143E-02 
2376	 6.24455063378703E-02 
2377	 6.15192522743633E-02 
2378	 6.05514619703232E-02 
2379	 5.71200650968325E-02 
2380	 5.50154943926152E-02 
2381	 5.43179354102786E-02 
2382	 5.32721153032532E-02 
2383	 5.15254339254725E-02 
2384	 5.10284881039173E-02 
2385	 5.12619296736432E-02 
2386	 5.18212111939007E-02 
2387	 5.42163606478813E-02 
2388	 5.57576515282666E-02 
2389	 0.057503257150694 
2390	 5.80001550621967E-02 
2391	 5.79790472334008E-02 
2392	 5.65212603781131E-02 
2393	 5.14424328579611E-02 
2394	 5.05007773908397E-02 
2395	 5.18405419366885E-02 
2396	 0.051978972155206 
2397	 0.054284190996648 
2398	 5.57366543014697E-02 
2399	 0.055086390806004 
2400	 5.43285885666041E-02 
2401	 5.41216138306516E-02 
2402	 5.40433581979384E-02 
2403	 0.050295136212633 
2404	 4.87895575435436E-02 
2405	 4.77664004677626E-02 
2406	 4.46130630127595E-02 
2407	 4.72536486549892E-02 
2408	 4.98796515229027E-02 
2409	 4.85713965082215E-02 
2410	 5.17105815610845E-02 
2411	 5.13881011727829E-02 
2412	 4.63940847795208E-02 
2413	 4.48239669767848E-02 
2414	 4.49494719280704E-02 
2415	 0.044699367585992 
2416	 4.61862475549298E-02 
2417	 5.07712738196978E-02 
2418	 5.35850844657844E-02 
2419	 5.30456038119991E-02 
2420	 0.050528263598541 
2421	 5.02317609580303E-02 
2422	 4.84100237009774E-02 
2423	 4.49563760450724E-02 
2424	 4.72427664219458E-02 
2425	 4.52866124160618E-02 
2426	 4.11696512257615E-02 
2427	 4.55746991426685E-02 
2428	 4.80942860811382E-02 
2429	 0.047011809957898 
2430	 4.86583595478739E-02 
2431	 4.54923914245796E-02 
2432	 3.99330341509631E-02 
2433	 4.07852759527658E-02 
2434	 3.93274441202981E-02 
2435	 3.66993235375481E-02 
2436	 3.79048863377463E-02 
2437	 4.04573784117225E-02 
2438	 0.040681767607608 
2439	 4.43538771985562E-02 
2440	 0.044413124412386 
2441	 3.73462305974425E-02 
2442	 0.037760087817406 
2443	 4.42653802565331E-02 
2444	 4.49723311812734E-02 
2445	 4.65027835534652E-02 
2446	 4.53460943184608E-02 
2447	 3.36942613733976E-02 
2448	 3.00780221079279E-02 
2449	 3.46570902091934E-02 
2450	 3.54026031737254E-02 
2451	 3.70445441762908E-02 
2452	 3.86839829010905E-02 
2453	 4.05733722319884E-02 
2454	 3.71061262664708E-02 
2455	 2.88207710042579E-02 
2456	 2.79919831207605E-02 
2457	 2.58440967213906E-02 
2458	 2.55524646229517E-02 
2459	 3.64360621422299E-02 
2460	 3.64910395324282E-02 
2461	 2.44820292840587E-02 
2462	 2.30399356949499E-02 
2463	 2.57664834671005E-02 
2464	 0.025213310763686 
2465	 0.029935599412164 
2466	 0.030035208815814 
2467	 1.70813594104462E-02 
2468	 1.84231703898425E-02 
2469	 3.50839490261258E-02 
2470	 3.81604743287706E-02 
2471	 4.22356225978764E-02 
2472	 4.16079427068025E-02 
2473	 2.44644649937757E-02 
2474	 1.92918389843187E-02 
2475	 1.78626798319722E-02 
2476	 2.01940394966739E-02 
2477	 2.98112819967867E-02 
2478	 3.86840274128743E-02 
2479	 6.11295532421537E-02 
2480	 6.96623408777869E-02 
2481	 6.64922980663457E-02 
2482	 5.79581614393077E-02 
2483	 3.16374820411007E-02 
2484	 1.91688942304212E-02 
2485	-1.32812079138901E-03 
2486	 3.94824797187263E-02 
2487	 9.14964282844993E-02 
2488	 0.124400550762049 
2489	 0.149358280214977 
2490	 0.130366049872887 
2491	 0.029301901105671 
2492	-3.83009229433072E-02 
2493	-4.53531520771666E-02 
2494	-6.60514522246154E-02 
2495	-0.024496024710734 
2496	 2.75065391883225E-02 
2497	 4.06616809869404E-02 
2498	 0.050764254313151 
2499	 6.16716048052859E-02 
2500	 9.46061301501996E-02 
