Wavelength	ref00131.asd
350	 0.248834316136931 
351	 0.253920414671636 
352	 0.232402102903773 
353	 0.240933194241853 
354	 0.24438820967026 
355	 0.238866116155338 
356	 0.229879184803809 
357	 0.23076399530048 
358	 0.232387876383008 
359	 0.222168124684565 
360	 0.200820137167162 
361	 0.217962050004221 
362	 0.232364242012668 
363	 0.230673566734495 
364	 0.222243066563458 
365	 0.231105595068729 
366	 0.229652365623356 
367	 0.211358632047414 
368	 0.205430407910078 
369	 0.212970769825508 
370	 0.218006618268752 
371	 0.209545708812697 
372	 0.202950420773935 
373	 0.200552695853151 
374	 0.199481284244203 
375	 0.195425304390682 
376	 0.194103192885515 
377	 0.192098050362778 
378	 0.189782060342258 
379	 0.192524891193357 
380	 0.186189034861954 
381	 0.180241979229061 
382	 0.182401307016697 
383	 0.183858384128217 
384	 0.179115953467274 
385	 0.174734927685005 
386	 0.178840540259098 
387	 0.172019197211531 
388	 0.165004057594469 
389	 0.163444901146469 
390	 0.165194137882167 
391	 0.164529602761537 
392	 0.161657145584115 
393	 0.157578921223383 
394	 0.151202861274718 
395	 0.156436870413501 
396	 0.161069392239502 
397	 0.152278458377436 
398	 0.159198578058477 
399	 0.161484039833631 
400	 0.156280598464926 
401	 0.155836739754523 
402	 0.156178186024349 
403	 0.154873966662765 
404	 0.152421953718981 
405	 0.15519284979424 
406	 0.153451189873709 
407	 0.150056889432147 
408	 0.150213455530563 
409	 0.148566895533944 
410	 0.14659500780568 
411	 0.144938154911548 
412	 0.143453361740559 
413	 0.145098272184696 
414	 0.146331773561353 
415	 0.144798934670541 
416	 0.142041392598859 
417	 0.143167667341131 
418	 0.145603809208963 
419	 0.144926805054145 
420	 0.141413959055251 
421	 0.142034956966916 
422	 0.145132878155626 
423	 0.142363292289175 
424	 0.142945975837575 
425	 0.143652690080841 
426	 0.142024973299814 
427	 0.140996937620844 
428	 0.144725322225092 
429	 0.147451741845318 
430	 0.143245386700043 
431	 0.143322979026289 
432	 0.144955273565764 
433	 0.145246139319063 
434	 0.142333542604637 
435	 0.142237790455789 
436	 0.143780814257021 
437	 0.145069191130758 
438	 0.145294724621205 
439	 0.144986963376588 
440	 0.144371638685079 
441	 0.143863273242193 
442	 0.145470219261444 
443	 0.145413502225632 
444	 0.143673328438147 
445	 0.143799011729657 
446	 0.144493102491773 
447	 0.14485299001119 
448	 0.144660850403704 
449	 0.145136346918437 
450	 0.145868596920097 
451	 0.146536153917679 
452	 0.146788374207097 
453	 0.145848961342081 
454	 0.145530866020833 
455	 0.145741625748047 
456	 0.144094181242247 
457	 0.144616412416079 
458	 0.145481602796829 
459	 0.144739171983008 
460	 0.143909127263812 
461	 0.143688999207484 
462	 0.143456548763154 
463	 0.142128483516043 
464	 0.141342886712018 
465	 0.141600971554028 
466	 0.142399294910917 
467	 0.142023064828973 
468	 0.141106981680708 
469	 0.140398128146973 
470	 0.140348246989462 
471	 0.140156183230162 
472	 0.139778064398396 
473	 0.139253101919188 
474	 0.138708969896625 
475	 0.138627979770407 
476	 0.138201492698624 
477	 0.13727024796403 
478	 0.137192639878075 
479	 0.137277060893161 
480	 0.137247892347374 
481	 0.137012345036391 
482	 0.13680304208302 
483	 0.136212109722302 
484	 0.135824220049734 
485	 0.137034133929855 
486	 0.136862516149922 
487	 0.136218047019285 
488	 0.136145186879693 
489	 0.135928274507033 
490	 0.136102313856994 
491	 0.13667561613042 
492	 0.137352194377898 
493	 0.137371277919926 
494	 0.1378262425552 
495	 0.139001548036291 
496	 0.140047376105425 
497	 0.141020019963618 
498	 0.142075962508858 
499	 0.14361094755346 
500	 0.14681946085605 
501	 0.149278923871507 
502	 0.150931337557021 
503	 0.153180522507718 
504	 0.15567520489983 
505	 0.15859072633868 
506	 0.161884019743206 
507	 0.165121809231456 
508	 0.169136042274707 
509	 0.173169395538416 
510	 0.176648626934802 
511	 0.181860208621273 
512	 0.187144245024761 
513	 0.192287792226702 
514	 0.198400159256781 
515	 0.204718002542685 
516	 0.211857047734605 
517	 0.219646351931706 
518	 0.225413698023458 
519	 0.232467116193607 
520	 0.239939672813362 
521	 0.246017405205817 
522	 0.253100468582904 
523	 0.260327378263232 
524	 0.267315620343733 
525	 0.274275551229641 
526	 0.280668937655227 
527	 0.287064509689723 
528	 0.293574546988606 
529	 0.297975575747091 
530	 0.302871144400858 
531	 0.30814704773435 
532	 0.312376931754381 
533	 0.316603072812335 
534	 0.321044636331257 
535	 0.325026785207886 
536	 0.326540009797747 
537	 0.328413396476517 
538	 0.331126576203197 
539	 0.334133496927004 
540	 0.335811917026119 
541	 0.337600484907533 
542	 0.339503155102606 
543	 0.340331514108907 
544	 0.341417895189233 
545	 0.342622587805766 
546	 0.343630334945679 
547	 0.344204620456034 
548	 0.345421166704317 
549	 0.346775509065223 
550	 0.347235817371768 
551	 0.347079810266846 
552	 0.346630675005625 
553	 0.345836861777526 
554	 0.344206381653167 
555	 0.342691357425353 
556	 0.340820856445334 
557	 0.338182169468431 
558	 0.335850486515356 
559	 0.333128242388047 
560	 0.329689172995364 
561	 0.325572264453758 
562	 0.321953500279508 
563	 0.317516092806852 
564	 0.312189697766635 
565	 0.308714345385183 
566	 0.304200879625281 
567	 0.299391791627558 
568	 0.295566570827104 
569	 0.290543962697859 
570	 0.285720356807518 
571	 0.281188507289611 
572	 0.275787701059654 
573	 0.271333493247374 
574	 0.26694629234994 
575	 0.262052223381484 
576	 0.2582529500389 
577	 0.254205828079876 
578	 0.250210822459739 
579	 0.247107248534858 
580	 0.243791163268165 
581	 0.240712552388314 
582	 0.237950338522576 
583	 0.234915571594757 
584	 0.232447965853004 
585	 0.230465236021723 
586	 0.228584447407431 
587	 0.226268055665726 
588	 0.224072615260243 
589	 0.222029282916914 
590	 0.219843481568982 
591	 0.217820344405313 
592	 0.216391168964463 
593	 0.215352581013633 
594	 0.213390307462035 
595	 0.212728369478203 
596	 0.211991189748069 
597	 0.20947159011578 
598	 0.208281736736653 
599	 0.206937227002515 
600	 0.205264730022733 
601	 0.20451625280638 
602	 0.203445024419086 
603	 0.201873620088961 
604	 0.199944650776863 
605	 0.19794421165474 
606	 0.196093439819135 
607	 0.194253932177578 
608	 0.19212914654014 
609	 0.189830701587483 
610	 0.187517441295996 
611	 0.185411308609112 
612	 0.183803732615462 
613	 0.181533340101125 
614	 0.179025498934781 
615	 0.176938563226514 
616	 0.175065737249867 
617	 0.172593273392403 
618	 0.170060022521293 
619	 0.168701680912033 
620	 0.166724476248382 
621	 0.165263973966974 
622	 0.164718223198062 
623	 0.163310954319072 
624	 0.162303283344206 
625	 0.161487183946218 
626	 0.160417989921727 
627	 0.160177632293439 
628	 0.159337632755147 
629	 0.158459531833559 
630	 0.159839387192213 
631	 0.158692876044117 
632	 0.157057805663342 
633	 0.156707923681649 
634	 0.155215536844373 
635	 0.153842653691027 
636	 0.152604119793883 
637	 0.150997571536595 
638	 0.148831929933131 
639	 0.146572403239328 
640	 0.144286018192822 
641	 0.141534560010143 
642	 0.138776884753055 
643	 0.136206796754241 
644	 0.133812830890451 
645	 0.131293714821429 
646	 0.128624185896576 
647	 0.125950688928874 
648	 0.123602825553424 
649	 0.122375339440604 
650	 0.121151292261616 
651	 0.119389015230938 
652	 0.117735353102332 
653	 0.116965385499213 
654	 0.116102012912216 
655	 0.114200785475594 
656	 0.113205556293463 
657	 0.111965517190752 
658	 0.11042559707274 
659	 0.10911372939907 
660	 0.10696032249546 
661	 0.104757618906245 
662	 0.103068410610162 
663	 0.101414429187121 
664	 9.97187895642616E-02 
665	 9.79800252655863E-02 
666	 9.62564251292438E-02 
667	 9.46866688902469E-02 
668	 9.33314900292141E-02 
669	 9.19116945394318E-02 
670	 8.99430571944184E-02 
671	 8.90354494545879E-02 
672	 8.91468632588522E-02 
673	 8.95353256841125E-02 
674	 8.85285785234451E-02 
675	 8.81628968788724E-02 
676	 8.82682272134456E-02 
677	 8.79765773749728E-02 
678	 8.76398267389034E-02 
679	 8.81995334360477E-02 
680	 8.94857000813766E-02 
681	 9.02210355514277E-02 
682	 9.15747297209583E-02 
683	 9.36072531878706E-02 
684	 9.61318253932685E-02 
685	 9.88550908177535E-02 
686	 0.102791774512548 
687	 0.108077661438742 
688	 0.113932801575188 
689	 0.120582190340789 
690	 0.128080323432119 
691	 0.136402527335431 
692	 0.145022924236374 
693	 0.155970935537348 
694	 0.168173858422542 
695	 0.180525378198569 
696	 0.193672926919851 
697	 0.207745908846969 
698	 0.222802690781053 
699	 0.238552389121579 
700	 0.253708627288704 
701	 0.269668765715361 
702	 0.286529440150482 
703	 0.302733296530099 
704	 0.318794861989112 
705	 0.334393986653749 
706	 0.349743671460857 
707	 0.366474527964046 
708	 0.383060236833659 
709	 0.399434129119582 
710	 0.416092775966885 
711	 0.433586495790503 
712	 0.450992780117752 
713	 0.468008246146821 
714	 0.485222151838566 
715	 0.501830686900356 
716	 0.517876700135662 
717	 0.534244467513495 
718	 0.5517966599818 
719	 0.571474849249921 
720	 0.59267703032813 
721	 0.613869018716768 
722	 0.633672771806911 
723	 0.652437466380788 
724	 0.671398786637419 
725	 0.690530385728276 
726	 0.710054630179456 
727	 0.729366465973759 
728	 0.748619954815855 
729	 0.768670204219825 
730	 0.788099795283253 
731	 0.806922763252514 
732	 0.825804032168434 
733	 0.844763430643146 
734	 0.862161502713377 
735	 0.877985712570799 
736	 0.893308835506871 
737	 0.907774126365697 
738	 0.921634347477182 
739	 0.935152346875801 
740	 0.947865733248136 
741	 0.960082754517422 
742	 0.971542314651477 
743	 0.981726852305927 
744	 0.99034995606591 
745	 0.998211635501557 
746	 1.0057535052193 
747	 1.01300022486073 
748	 1.01912729564222 
749	 1.02458528917704 
750	 1.02962920469522 
751	 1.033886820571 
752	 1.03757454626981 
753	 1.04109745866566 
754	 1.04444366909676 
755	 1.0459161355999 
756	 1.04756709294315 
757	 1.04899404502047 
758	 1.04885465107878 
759	 1.05143060782995 
760	 1.05503364163801 
761	 1.05671775140281 
762	 1.0545095636284 
763	 1.05546864742921 
764	 1.05595637459926 
765	 1.05401635959375 
766	 1.05458617026876 
767	 1.05361768554941 
768	 1.05215006982857 
769	 1.05192730020826 
770	 1.05132186258459 
771	 1.05024149720344 
772	 1.04921898841387 
773	 1.04905931367483 
774	 1.04781195819012 
775	 1.04662201499342 
776	 1.0460494528055 
777	 1.04489220902883 
778	 1.04334550414554 
779	 1.04176308711224 
780	 1.0404878554418 
781	 1.0395434022038 
782	 1.03859000328564 
783	 1.03769498080715 
784	 1.03693823850839 
785	 1.03490495796719 
786	 1.03269234222618 
787	 1.03086750342386 
788	 1.02917857218824 
789	 1.0271197498938 
790	 1.02519383179599 
791	 1.02390394116234 
792	 1.02339772960934 
793	 1.0226981708669 
794	 1.02157924295401 
795	 1.02007795057661 
796	 1.0179356543309 
797	 1.01658014308213 
798	 1.01568284954622 
799	 1.014099944498 
800	 1.01326818085205 
801	 1.01168862502996 
802	 1.00947278305049 
803	 1.00870167271441 
804	 1.00843622680483 
805	 1.00783654401008 
806	 1.00662537433811 
807	 1.0056744345205 
808	 1.00387744054987 
809	 1.00165585661847 
810	 0.99950784670944 
811	 0.996249096597649 
812	 0.992519818922879 
813	 0.988677036417806 
814	 0.984972638581278 
815	 0.981912738029753 
816	 0.979689678798501 
817	 0.978059623026479 
818	 0.976483148576269 
819	 0.977065821873014 
820	 0.977718967036009 
821	 0.977106427319394 
822	 0.976299704973807 
823	 0.975035737583504 
824	 0.973465171375384 
825	 0.972213774140759 
826	 0.972944359243565 
827	 0.972542760144339 
828	 0.971319058460561 
829	 0.970605533472371 
830	 0.968369209400088 
831	 0.967380112462068 
832	 0.967626410318588 
833	 0.967082587173671 
834	 0.966942618786944 
835	 0.966356221754359 
836	 0.96544062880124 
837	 0.965585042197667 
838	 0.965918609457853 
839	 0.96563661133891 
840	 0.964498526155015 
841	 0.963266439540815 
842	 0.962816797565601 
843	 0.962413049278071 
844	 0.96137759324883 
845	 0.961024767363286 
846	 0.960002725757708 
847	 0.958877184951935 
848	 0.95859969093774 
849	 0.95734992027935 
850	 0.955859033282269 
851	 0.954605696264648 
852	 0.953823919632846 
853	 0.954414411473588 
854	 0.954249005178646 
855	 0.952170127964111 
856	 0.94884116545724 
857	 0.947851402525322 
858	 0.947460593977164 
859	 0.946554038183346 
860	 0.946478303205686 
861	 0.945082137369513 
862	 0.943758315632475 
863	 0.943778987617093 
864	 0.943891569647769 
865	 0.943572299432054 
866	 0.943136617619308 
867	 0.942671619235844 
868	 0.94001970957273 
869	 0.93756777616517 
870	 0.93641712557518 
871	 0.936427708954545 
872	 0.935398734576578 
873	 0.93503741891324 
874	 0.934683047000503 
875	 0.93240861784831 
876	 0.930847807536397 
877	 0.929828413670372 
878	 0.928940861843075 
879	 0.927831904710247 
880	 0.926284800696172 
881	 0.92501368669551 
882	 0.924146607304798 
883	 0.922878763456804 
884	 0.921837050829833 
885	 0.921118068706856 
886	 0.920566457159256 
887	 0.919825485181737 
888	 0.917279939725797 
889	 0.914736228477041 
890	 0.913490501997638 
891	 0.91129629998345 
892	 0.908922662658135 
893	 0.906112056338789 
894	 0.902473411526887 
895	 0.897847801700324 
896	 0.896692179374042 
897	 0.896650210868431 
898	 0.893755300330692 
899	 0.892034232790562 
900	 0.891342326494313 
901	 0.89012856388973 
902	 0.887173439098845 
903	 0.886468225221471 
904	 0.885262887039782 
905	 0.88379019038394 
906	 0.883914992774297 
907	 0.884342462699541 
908	 0.881531882028487 
909	 0.87697427558559 
910	 0.87567423859684 
911	 0.873746667485068 
912	 0.872178999103727 
913	 0.870654814533897 
914	 0.867790504003803 
915	 0.868624617452833 
916	 0.868588126922035 
917	 0.866636889183658 
918	 0.866648070142646 
919	 0.864984665913281 
920	 0.864915158534566 
921	 0.866057400893917 
922	 0.862826059618775 
923	 0.861327773320545 
924	 0.859874250894621 
925	 0.856951241072828 
926	 0.853433298378723 
927	 0.848315880527866 
928	 0.842814582411707 
929	 0.838468789918387 
930	 0.836449730429025 
931	 0.831316756782818 
932	 0.825303561072533 
933	 0.820234212753244 
934	 0.811647393021115 
935	 0.808966037414398 
936	 0.805233696126392 
937	 0.796779385740887 
938	 0.793917019503972 
939	 0.794440235079026 
940	 0.796409418075874 
941	 0.798174249851464 
942	 0.798787568899505 
943	 0.799663689585271 
944	 0.798310898277685 
945	 0.793043692329294 
946	 0.786197021590803 
947	 0.781704104886421 
948	 0.778220928589247 
949	 0.775131574806222 
950	 0.776273856892973 
951	 0.775425651990256 
952	 0.77197811572239 
953	 0.767648422810928 
954	 0.765202579462182 
955	 0.762935644223105 
956	 0.762687319466949 
957	 0.763413270187871 
958	 0.757417478911303 
959	 0.753965361065454 
960	 0.756982683639524 
961	 0.762768240362093 
962	 0.757851162355061 
963	 0.757597989700672 
964	 0.756883915839079 
965	 0.753674905641806 
966	 0.757912685104877 
967	 0.758392295620112 
968	 0.756835694275148 
969	 0.755351287766049 
970	 0.752426535600703 
971	 0.755063871050659 
972	 0.756854107691318 
973	 0.754839881809227 
974	 0.754857650770779 
975	 0.757067998512062 
976	 0.758107930009819 
977	 0.756758655880121 
978	 0.755536204389984 
979	 0.755659026927979 
980	 0.754805713365561 
981	 0.753510463168176 
982	 0.754958894230601 
983	 0.750555496206138 
984	 0.750325069293825 
985	 0.754922513705093 
986	 0.755448970244126 
987	 0.757250181039496 
988	 0.756666244889492 
989	 0.755009712770293 
990	 0.757067542168345 
991	 0.760816563545133 
992	 0.760898486241007 
993	 0.759793147050007 
994	 0.763237108341817 
995	 0.766065434319167 
996	 0.763560904638298 
997	 0.760320909060669 
998	 0.76227169388743 
999	 0.761066380772285 
1000	 0.75892206509478 
1001	 0.793775811383487 
1002	 0.794458515524497 
1003	 0.795110901891467 
1004	 0.795897306753129 
1005	 0.796562517052744 
1006	 0.797446919374725 
1007	 0.798050544858958 
1008	 0.798342951268441 
1009	 0.798804538501886 
1010	 0.799293277163621 
1011	 0.799837769866812 
1012	 0.800060738255129 
1013	 0.800464499041772 
1014	 0.800622337616233 
1015	 0.801026620704839 
1016	 0.802213468140468 
1017	 0.802986289579127 
1018	 0.803567050899353 
1019	 0.804005092702448 
1020	 0.804669260099288 
1021	 0.805319991877982 
1022	 0.805860489650646 
1023	 0.80665486431673 
1024	 0.807070853900324 
1025	 0.807196135576247 
1026	 0.807191429453776 
1027	 0.807403980237215 
1028	 0.807987038573598 
1029	 0.808282257869765 
1030	 0.80858481367367 
1031	 0.809009246380524 
1032	 0.808931076039884 
1033	 0.808942540483181 
1034	 0.808940321807073 
1035	 0.808980963900638 
1036	 0.808933498134338 
1037	 0.808830858426344 
1038	 0.808745526368888 
1039	 0.808715138815445 
1040	 0.808392542872066 
1041	 0.808540229951324 
1042	 0.808943225899218 
1043	 0.808808861430858 
1044	 0.808889812746454 
1045	 0.809246086734546 
1046	 0.809148116725919 
1047	 0.809135199462578 
1048	 0.809004905397454 
1049	 0.809034659768313 
1050	 0.80920921005198 
1051	 0.809781681350277 
1052	 0.809804998395283 
1053	 0.809626890879215 
1054	 0.809387009356249 
1055	 0.809249317155639 
1056	 0.80913207044632 
1057	 0.808944773025117 
1058	 0.809306800435306 
1059	 0.809428639384553 
1060	 0.809280475222511 
1061	 0.809621520266253 
1062	 0.809624636725847 
1063	 0.809128555955425 
1064	 0.80930245113921 
1065	 0.809285671224001 
1066	 0.809379010627302 
1067	 0.809277042101719 
1068	 0.809424451761958 
1069	 0.808953862889015 
1070	 0.808838949934558 
1071	 0.8088160670945 
1072	 0.808221780198011 
1073	 0.808261623020683 
1074	 0.808281077219606 
1075	 0.807720256857766 
1076	 0.807041378782249 
1077	 0.806407644899982 
1078	 0.805833475035218 
1079	 0.80557972333166 
1080	 0.80582416014339 
1081	 0.805595327644898 
1082	 0.805189768964563 
1083	 0.804414397863531 
1084	 0.803899741746257 
1085	 0.803399266096009 
1086	 0.8029427052871 
1087	 0.802441399465748 
1088	 0.801713118919673 
1089	 0.800481593356475 
1090	 0.798589534582326 
1091	 0.796995576684615 
1092	 0.795811926684931 
1093	 0.79454687626699 
1094	 0.793573303549448 
1095	 0.79246294848775 
1096	 0.791165407210836 
1097	 0.789542495349757 
1098	 0.78777993938311 
1099	 0.785779056515573 
1100	 0.784104063383296 
1101	 0.782120278390625 
1102	 0.779975925428318 
1103	 0.778527070075359 
1104	 0.776738970115983 
1105	 0.774608619045327 
1106	 0.77256565950236 
1107	 0.770155506310937 
1108	 0.767509532233309 
1109	 0.764686659163384 
1110	 0.761689903556304 
1111	 0.758270311237977 
1112	 0.754022103470759 
1113	 0.749966483954 
1114	 0.745550729632927 
1115	 0.740879130368964 
1116	 0.735939310843063 
1117	 0.730786670748841 
1118	 0.725562700029066 
1119	 0.720108422932736 
1120	 0.714606884210943 
1121	 0.709531893194236 
1122	 0.70431407277681 
1123	 0.69953699078131 
1124	 0.695581446061844 
1125	 0.692000345065529 
1126	 0.689080207448737 
1127	 0.687328614610485 
1128	 0.685112731076702 
1129	 0.683683148154154 
1130	 0.6815645587948 
1131	 0.679544748348781 
1132	 0.676852986324994 
1133	 0.673598097678248 
1134	 0.670519503928629 
1135	 0.667360526463349 
1136	 0.663901896730048 
1137	 0.661253967806136 
1138	 0.657805409186483 
1139	 0.653638609878367 
1140	 0.649509004472831 
1141	 0.644069786479244 
1142	 0.639152952739612 
1143	 0.634405193442397 
1144	 0.629694723097203 
1145	 0.624558444836452 
1146	 0.619431782267712 
1147	 0.614428476997568 
1148	 0.608659180579201 
1149	 0.604525935255525 
1150	 0.601564911224365 
1151	 0.598634132295414 
1152	 0.596211194114086 
1153	 0.594538618544161 
1154	 0.593116710540223 
1155	 0.591753485032933 
1156	 0.591085358492318 
1157	 0.590857677606163 
1158	 0.590434596254946 
1159	 0.589786708524191 
1160	 0.589220487876553 
1161	 0.588583295073296 
1162	 0.588027931612769 
1163	 0.587520856532408 
1164	 0.587034333959507 
1165	 0.586521932683198 
1166	 0.58600774251173 
1167	 0.585575651480696 
1168	 0.585074378475425 
1169	 0.584535715541373 
1170	 0.584035658724792 
1171	 0.583455488967226 
1172	 0.582584839398227 
1173	 0.581775442333164 
1174	 0.580987692851624 
1175	 0.580139899599788 
1176	 0.579265284511637 
1177	 0.578380700380966 
1178	 0.577469260728989 
1179	 0.576510279653948 
1180	 0.575571962536174 
1181	 0.574534192197558 
1182	 0.573218672119026 
1183	 0.572313330471275 
1184	 0.571545066244762 
1185	 0.570772379359002 
1186	 0.570306523314084 
1187	 0.569716968244621 
1188	 0.5690237527131 
1189	 0.568379020377135 
1190	 0.567802166834641 
1191	 0.56730081837342 
1192	 0.566659242729235 
1193	 0.566132832242446 
1194	 0.565715458275446 
1195	 0.565401726127407 
1196	 0.56495763428051 
1197	 0.564517275058395 
1198	 0.564197532794775 
1199	 0.56385181967874 
1200	 0.563503351546723 
1201	 0.563246338716169 
1202	 0.563068755578506 
1203	 0.562809486797012 
1204	 0.562705435614406 
1205	 0.562829155822018 
1206	 0.562929118316599 
1207	 0.562991176846973 
1208	 0.563148178804894 
1209	 0.563434515692335 
1210	 0.563670605295878 
1211	 0.563921117229702 
1212	 0.564469227620486 
1213	 0.565040328408112 
1214	 0.565725027409583 
1215	 0.566414571994203 
1216	 0.567172950360735 
1217	 0.568017018624101 
1218	 0.568988432525963 
1219	 0.569879389892245 
1220	 0.570849135067946 
1221	 0.57172799653387 
1222	 0.572385785143968 
1223	 0.573329549735356 
1224	 0.574612199025862 
1225	 0.575554210822713 
1226	 0.576484665394215 
1227	 0.577305306743622 
1228	 0.577857144247271 
1229	 0.578284597179009 
1230	 0.579219219056685 
1231	 0.580346859955911 
1232	 0.581057151511924 
1233	 0.581766557315305 
1234	 0.582470686721163 
1235	 0.582834348128699 
1236	 0.583450366408377 
1237	 0.584394938905797 
1238	 0.585010355158931 
1239	 0.585432908013197 
1240	 0.585916474043305 
1241	 0.586366660150038 
1242	 0.586760864475362 
1243	 0.587196366812718 
1244	 0.587478724284389 
1245	 0.587514903769031 
1246	 0.587743706713402 
1247	 0.587939977778632 
1248	 0.588191171954817 
1249	 0.588724580336054 
1250	 0.589040624000729 
1251	 0.5892382995935 
1252	 0.589437668333261 
1253	 0.589507725238832 
1254	 0.589392455479849 
1255	 0.589377229842106 
1256	 0.589369053895187 
1257	 0.589280849242169 
1258	 0.589204181489231 
1259	 0.589003823278102 
1260	 0.58858932454314 
1261	 0.588355205053733 
1262	 0.588229681794118 
1263	 0.587925571224082 
1264	 0.587575839166288 
1265	 0.587273917379326 
1266	 0.586730626274751 
1267	 0.586442389675011 
1268	 0.586587540983567 
1269	 0.586374343193362 
1270	 0.586007166593582 
1271	 0.585702718727581 
1272	 0.585177611381474 
1273	 0.584805313980558 
1274	 0.584377248133634 
1275	 0.584117678997408 
1276	 0.583580873003555 
1277	 0.582781387744067 
1278	 0.582291886489204 
1279	 0.581865637724129 
1280	 0.581383197164554 
1281	 0.581114742814833 
1282	 0.580568845061544 
1283	 0.579799167987724 
1284	 0.579101384243179 
1285	 0.578399392561915 
1286	 0.577601120007612 
1287	 0.576786033061672 
1288	 0.575869661680774 
1289	 0.574751614954024 
1290	 0.57375053520679 
1291	 0.57283497309003 
1292	 0.57176882483188 
1293	 0.570727022105094 
1294	 0.569549243119972 
1295	 0.568290180864507 
1296	 0.566800225748457 
1297	 0.565188533296115 
1298	 0.56339494070302 
1299	 0.561689410196782 
1300	 0.559861146736519 
1301	 0.557983097227412 
1302	 0.556163222998938 
1303	 0.554176280224031 
1304	 0.552035215350916 
1305	 0.549775471123392 
1306	 0.547428539053816 
1307	 0.544999677888532 
1308	 0.542365547261761 
1309	 0.539732283708213 
1310	 0.537101083808377 
1311	 0.534338943368181 
1312	 0.531381556133186 
1313	 0.528492690257229 
1314	 0.525698335711834 
1315	 0.522687871011996 
1316	 0.519530891450272 
1317	 0.516424300915936 
1318	 0.513266184668118 
1319	 0.509950123825602 
1320	 0.506557087778724 
1321	 0.503200417190348 
1322	 0.499512101532328 
1323	 0.495395669636231 
1324	 0.491518796993002 
1325	 0.487546726098579 
1326	 0.483458590144291 
1327	 0.479290729068662 
1328	 0.475025721610519 
1329	 0.470440567195869 
1330	 0.466112004193513 
1331	 0.461807012531699 
1332	 0.457715348931722 
1333	 0.454029046735521 
1334	 0.450052176400191 
1335	 0.445935004830724 
1336	 0.442186869580309 
1337	 0.438299542410238 
1338	 0.434705272713242 
1339	 0.431620710214592 
1340	 0.428213695008518 
1341	 0.424148409677209 
1342	 0.420514885145254 
1343	 0.416620148891141 
1344	 0.412732515237485 
1345	 0.40882820558025 
1346	 0.404671928970003 
1347	 0.400399754455588 
1348	 0.395625624417994 
1349	 0.390454637532418 
1350	 0.384925543123004 
1351	 0.378780105966369 
1352	 0.371683179723405 
1353	 0.36429651270116 
1354	 0.358869804703119 
1355	 0.350853250119099 
1356	 0.346816248230294 
1357	 0.337088558221806 
1358	 0.329384104408571 
1359	 0.313846701300718 
1360	 0.294067966781969 
1361	 0.266748534978817 
1362	 0.247756025068678 
1363	 0.223451620182223 
1364	 0.223838941740143 
1365	 0.221391630252465 
1366	 0.249744774657561 
1367	 0.243798050035085 
1368	 0.215387585828561 
1369	 0.211946410022729 
1370	 0.212350571694248 
1371	 0.209873859400087 
1372	 0.21575597589795 
1373	 0.218945526983813 
1374	 0.225472947637764 
1375	 0.212508074673421 
1376	 0.211352521687399 
1377	 0.217488736931482 
1378	 0.214540979194786 
1379	 0.207990390920467 
1380	 0.201764340183732 
1381	 0.189550851079612 
1382	 0.186247767178181 
1383	 0.189425222059541 
1384	 0.185803090440133 
1385	 0.183410449992882 
1386	 0.179378841541291 
1387	 0.172146493702692 
1388	 0.165996828616444 
1389	 0.162936041545104 
1390	 0.157047243782367 
1391	 0.14604400685446 
1392	 0.141186163833214 
1393	 0.139731740354759 
1394	 0.135402208974947 
1395	 0.13070728664995 
1396	 0.128073312833009 
1397	 0.126050642325609 
1398	 0.12226457510938 
1399	 0.118761896848906 
1400	 0.116741745909115 
1401	 0.114566401858164 
1402	 0.11048786142845 
1403	 0.10621967736905 
1404	 0.103827397643345 
1405	 9.99640085780866E-02 
1406	 9.78430994940416E-02 
1407	 9.80729622111943E-02 
1408	 9.92535473788534E-02 
1409	 9.69490366328916E-02 
1410	 9.41177671415286E-02 
1411	 9.29758591731699E-02 
1412	 9.12847295315421E-02 
1413	 9.13127874771573E-02 
1414	 9.35339646790793E-02 
1415	 9.28812919722987E-02 
1416	 9.14477457440208E-02 
1417	 9.05349412631348E-02 
1418	 8.85786983009149E-02 
1419	 8.80516195426393E-02 
1420	 8.86894402095388E-02 
1421	 8.83178783135578E-02 
1422	 8.78168546787728E-02 
1423	 0.08715933607319 
1424	 8.57911081687062E-02 
1425	 8.55750274729486E-02 
1426	 8.59763424731091E-02 
1427	 8.60014475416162E-02 
1428	 8.63679743411249E-02 
1429	 8.64719388439095E-02 
1430	 8.65496083889755E-02 
1431	 8.60678261384533E-02 
1432	 8.51730644614417E-02 
1433	 8.45636570403043E-02 
1434	 8.32706319381421E-02 
1435	 0.082768652176689 
1436	 8.30930269025593E-02 
1437	 8.31731095716742E-02 
1438	 8.32976644204564E-02 
1439	 8.34851659936743E-02 
1440	 8.40994986906514E-02 
1441	 8.40079188971004E-02 
1442	 0.083365976642474 
1443	 8.32085120900132E-02 
1444	 0.082357230372782 
1445	 8.18400856763366E-02 
1446	 8.25311146930779E-02 
1447	 8.28514878122226E-02 
1448	 8.30682594477576E-02 
1449	 8.33673889236006E-02 
1450	 0.083761931556749 
1451	 8.40869588780606E-02 
1452	 8.41351065606696E-02 
1453	 8.41488473627423E-02 
1454	 8.45362905108233E-02 
1455	 8.49048137482582E-02 
1456	 8.49801734347288E-02 
1457	 8.52823694150198E-02 
1458	 8.54968147629317E-02 
1459	 8.51862972361148E-02 
1460	 8.53288253459169E-02 
1461	 8.60307418277675E-02 
1462	 0.086384109779139 
1463	 8.65468018502739E-02 
1464	 8.67791382839816E-02 
1465	 0.087111660235885 
1466	 0.0873405182842 
1467	 8.73493216456393E-02 
1468	 8.75555170918859E-02 
1469	 8.75432881337903E-02 
1470	 8.82160705158272E-02 
1471	 8.96967921640695E-02 
1472	 0.090443594528652 
1473	 9.10402338274731E-02 
1474	 9.17425502154714E-02 
1475	 0.091795683285455 
1476	 9.24931210332152E-02 
1477	 9.40325829919652E-02 
1478	 9.49755322056527E-02 
1479	 9.54380511712078E-02 
1480	 9.64144648639978E-02 
1481	 9.75264703232784E-02 
1482	 9.85523220469583E-02 
1483	 9.98461772436802E-02 
1484	 0.101068596090573 
1485	 0.102079408450904 
1486	 0.103111394755548 
1487	 0.104155130676393 
1488	 0.105283786165995 
1489	 0.106524984087835 
1490	 0.107692429879278 
1491	 0.109047330871913 
1492	 0.110220428246779 
1493	 0.111059147900227 
1494	 0.111975134109599 
1495	 0.113003763047957 
1496	 0.114111067686479 
1497	 0.115129141775657 
1498	 0.116209860192011 
1499	 0.117235240728535 
1500	 0.118111163008795 
1501	 0.119232757493029 
1502	 0.120544608598911 
1503	 0.121759137705436 
1504	 0.123038703804124 
1505	 0.124212293037692 
1506	 0.125315390208744 
1507	 0.126428151447914 
1508	 0.127475755340995 
1509	 0.128621089123567 
1510	 0.12982992112787 
1511	 0.13093413262808 
1512	 0.132023388645599 
1513	 0.13316092862448 
1514	 0.134190772455398 
1515	 0.13540227359389 
1516	 0.136961807886832 
1517	 0.138084993762412 
1518	 0.138946452111566 
1519	 0.140070311299218 
1520	 0.141117535765716 
1521	 0.142151013409148 
1522	 0.143399727422714 
1523	 0.144540793630165 
1524	 0.145463524412748 
1525	 0.146520372466215 
1526	 0.147724027820934 
1527	 0.148877714623591 
1528	 0.150007433780767 
1529	 0.151124162669452 
1530	 0.152226197363147 
1531	 0.153390721490978 
1532	 0.154638932030948 
1533	 0.155772818406584 
1534	 0.156863550651841 
1535	 0.157995858825572 
1536	 0.15909406542279 
1537	 0.160125973611559 
1538	 0.161226151737606 
1539	 0.162245443965066 
1540	 0.163075660840358 
1541	 0.163999774881712 
1542	 0.164924237154676 
1543	 0.165934979209358 
1544	 0.166996725717589 
1545	 0.168079756344902 
1546	 0.169341040170178 
1547	 0.170421610578772 
1548	 0.171466801462912 
1549	 0.172435475840008 
1550	 0.173150913471534 
1551	 0.174034839807152 
1552	 0.174928072274011 
1553	 0.175901150924747 
1554	 0.177100122890047 
1555	 0.178165754312849 
1556	 0.179181934461036 
1557	 0.180201771847236 
1558	 0.181213772869043 
1559	 0.182141895035141 
1560	 0.182997623837215 
1561	 0.183893734069824 
1562	 0.184760581461018 
1563	 0.185592789009807 
1564	 0.186433654121671 
1565	 0.18730963669978 
1566	 0.188274718829902 
1567	 0.188874990910042 
1568	 0.189799429259134 
1569	 0.190801816456328 
1570	 0.191886808014052 
1571	 0.193140215642616 
1572	 0.194159792030503 
1573	 0.195149273748002 
1574	 0.196132797699602 
1575	 0.197024482651963 
1576	 0.197815728144123 
1577	 0.198606328570009 
1578	 0.199297774006828 
1579	 0.199658512423501 
1580	 0.20056425634751 
1581	 0.201794913636086 
1582	 0.202610460536689 
1583	 0.20350555081705 
1584	 0.204295743116824 
1585	 0.204767333337624 
1586	 0.205437174660029 
1587	 0.206277863506756 
1588	 0.20702481067647 
1589	 0.207632382314582 
1590	 0.208421115256307 
1591	 0.209497900734714 
1592	 0.210039712804476 
1593	 0.210275705823289 
1594	 0.210875856382914 
1595	 0.211233856729721 
1596	 0.212055810302085 
1597	 0.213497631805525 
1598	 0.214318789720421 
1599	 0.21499431763435 
1600	 0.215671475896741 
1601	 0.216073238435171 
1602	 0.216753505631579 
1603	 0.217617328425389 
1604	 0.218293011833807 
1605	 0.21891840386169 
1606	 0.219621694421078 
1607	 0.2202745698842 
1608	 0.220985809042421 
1609	 0.221934616911284 
1610	 0.222393210713463 
1611	 0.222494282404852 
1612	 0.222979421347589 
1613	 0.22332403673832 
1614	 0.223908003743773 
1615	 0.224940334338204 
1616	 0.225515368233162 
1617	 0.225809468942035 
1618	 0.226423149179551 
1619	 0.227081226335975 
1620	 0.227698728026601 
1621	 0.228606866572755 
1622	 0.228968694816934 
1623	 0.228896820964971 
1624	 0.229223846453042 
1625	 0.229364921454381 
1626	 0.229933554828189 
1627	 0.231081158339637 
1628	 0.231543459109061 
1629	 0.231841208496495 
1630	 0.232207886805578 
1631	 0.232183693701832 
1632	 0.232603235357066 
1633	 0.233557749949713 
1634	 0.233715266328578 
1635	 0.233451202050534 
1636	 0.233686519451463 
1637	 0.233661988382217 
1638	 0.234008789369821 
1639	 0.234990818953788 
1640	 0.235507638184707 
1641	 0.235811177171693 
1642	 0.236166881588944 
1643	 0.236604790461547 
1644	 0.236764835359962 
1645	 0.236712777251316 
1646	 0.236712408715191 
1647	 0.236582600103829 
1648	 0.236477719764607 
1649	 0.236335813028589 
1650	 0.236343272168039 
1651	 0.236401951446687 
1652	 0.236412839464357 
1653	 0.236530551480204 
1654	 0.236565789419258 
1655	 0.236579369158578 
1656	 0.2363321826112 
1657	 0.235950857027312 
1658	 0.235439384079423 
1659	 0.234990742054646 
1660	 0.234851031740922 
1661	 0.235231080435149 
1662	 0.235576125920482 
1663	 0.235485876593085 
1664	 0.235280449902268 
1665	 0.235103228974088 
1666	 0.23462298271285 
1667	 0.23450197571553 
1668	 0.234752067490683 
1669	 0.234681176188189 
1670	 0.234909932302718 
1671	 0.235228046391983 
1672	 0.235114998719111 
1673	 0.235112413238522 
1674	 0.235076429674821 
1675	 0.234673433837243 
1676	 0.234823559514287 
1677	 0.235211072629468 
1678	 0.235006352100273 
1679	 0.235147524972722 
1680	 0.235280152181599 
1681	 0.234738716987798 
1682	 0.234755334962275 
1683	 0.234988747011438 
1684	 0.234482521832705 
1685	 0.234124421506082 
1686	 0.2339031361327 
1687	 0.233498866372946 
1688	 0.233445392843309 
1689	 0.233628122504884 
1690	 0.233255034564718 
1691	 0.232944193589769 
1692	 0.232397626004483 
1693	 0.231977023515245 
1694	 0.231823511805058 
1695	 0.231528982257283 
1696	 0.231152087947685 
1697	 0.230731868532571 
1698	 0.230074810729213 
1699	 0.22962796796335 
1700	 0.22956052949528 
1701	 0.229125984937476 
1702	 0.228415183763022 
1703	 0.227897504216428 
1704	 0.227296837185997 
1705	 0.226562332270176 
1706	 0.226012746583345 
1707	 0.225406018881115 
1708	 0.224278177116309 
1709	 0.223679704056617 
1710	 0.223698973515512 
1711	 0.223225990642237 
1712	 0.2226832032205 
1713	 0.222130415858194 
1714	 0.22127968413105 
1715	 0.22051453743087 
1716	 0.219925361451545 
1717	 0.219213928806898 
1718	 0.218284633607289 
1719	 0.217596352939033 
1720	 0.217135945327288 
1721	 0.216498708736099 
1722	 0.215830417865085 
1723	 0.215040908381683 
1724	 0.213965551530919 
1725	 0.213233275356958 
1726	 0.212739337661865 
1727	 0.212009378796085 
1728	 0.21123402602494 
1729	 0.210557713879542 
1730	 0.2096633857225 
1731	 0.209894182513233 
1732	 0.210012451796273 
1733	 0.209947717402724 
1734	 0.209229424187588 
1735	 0.208134655473428 
1736	 0.207295374972962 
1737	 0.206728705239647 
1738	 0.206835468475929 
1739	 0.206462755833697 
1740	 0.205561400671167 
1741	 0.204954233267674 
1742	 0.203888337411767 
1743	 0.20303935378814 
1744	 0.202750061811857 
1745	 0.202288353951786 
1746	 0.201704863715396 
1747	 0.201154510132209 
1748	 0.200546281469304 
1749	 0.199833178879333 
1750	 0.199386794606115 
1751	 0.19875683594923 
1752	 0.197998732323241 
1753	 0.197473377557855 
1754	 0.196371050679429 
1755	 0.195319232348764 
1756	 0.194713377475036 
1757	 0.193736094040757 
1758	 0.19299950197306 
1759	 0.192694731565483 
1760	 0.192109771163741 
1761	 0.191629888634318 
1762	 0.190805321984836 
1763	 0.18938886045356 
1764	 0.188542864199618 
1765	 0.187724297566553 
1766	 0.186930114844064 
1767	 0.186719991982734 
1768	 0.186092013822393 
1769	 0.185086651987496 
1770	 0.184541468451057 
1771	 0.184078597926139 
1772	 0.183224524515837 
1773	 0.182332127665352 
1774	 0.181014660051993 
1775	 0.18028083241825 
1776	 0.180205385376646 
1777	 0.179886904619832 
1778	 0.17910078623857 
1779	 0.178919758713733 
1780	 0.17920571942473 
1781	 0.178716121579395 
1782	 0.178290819644614 
1783	 0.178288388850893 
1784	 0.177744573020724 
1785	 0.177879270907981 
1786	 0.178069580992185 
1787	 0.177321863250837 
1788	 0.176367083970363 
1789	 0.174620826049724 
1790	 0.173333756073414 
1791	 0.17243504042472 
1792	 0.170486345400068 
1793	 0.169391646424282 
1794	 0.169321039753183 
1795	 0.169965637272116 
1796	 0.171602937784568 
1797	 0.173041874914305 
1798	 0.173741056993768 
1799	 0.172375379739803 
1800	 0.172396679785547 
1801	 0.166502487411262 
1802	 0.165724130673139 
1803	 0.165064920645799 
1804	 0.166889651386017 
1805	 0.166287683965567 
1806	 0.161874425481716 
1807	 0.15897050441589 
1808	 0.153105485217144 
1809	 0.153566818559175 
1810	 0.152506758743182 
1811	 0.152079087673524 
1812	 0.15185093426692 
1813	 0.154180788842656 
1814	 0.154455454701957 
1815	 0.153991657926943 
1816	 0.153642838217465 
1817	 0.152035664173536 
1818	 0.151746152180206 
1819	 0.151912250618913 
1820	 0.151903120037023 
1821	 0.153587824345068 
1822	 0.157910407984059 
1823	 0.161285425875233 
1824	 0.168322602700021 
1825	 0.170805763299407 
1826	 0.171616415303995 
1827	 0.169994609976798 
1828	 0.164206540069359 
1829	 0.142729397515176 
1830	 0.138128603635695 
1831	 0.136871662304391 
1832	 0.143941119402573 
1833	 0.227885157893435 
1834	 0.238190502241883 
1835	 0.138899834391894 
1836	 0.104552759845143 
1837	 5.16602017996526E-03 
1838	-3.71364878130159E-02 
1839	-3.05225215263017E-02 
1840	 0.132928363434357 
1841	 0.181653687151017 
1842	 0.211475369714445 
1843	 0.223594933167372 
1844	 0.151709004855126 
1845	 0.166601416233206 
1846	 0.244945492686446 
1847	 0.270620253065767 
1848	 0.292377550617733 
1849	 0.379041308352616 
1850	 0.347887646731618 
1851	 0.189008028230868 
1852	 0.140975906511156 
1853	 8.35784000730023E-02 
1854	 4.64949865741852E-02 
1855	 7.72631834246609E-02 
1856	 0.084228479801255 
1857	 9.16557190716163E-02 
1858	 7.96438233688412E-02 
1859	 6.62489045780086E-02 
1860	 4.34304756312423E-02 
1861	 4.97259423710507E-02 
1862	 6.30940504974786E-02 
1863	 6.97416856293117E-02 
1864	 9.80484681334893E-02 
1865	 0.115378413535624 
1866	 0.137806716722931 
1867	 0.118706934593434 
1868	 0.113655243691892 
1869	 0.138234387393305 
1870	 0.124708371819725 
1871	 0.07661047887718 
1872	 5.90648743128246E-02 
1873	 4.02700289845731E-02 
1874	 0.034072701103792 
1875	 3.87101100283374E-02 
1876	 4.83763491966361E-02 
1877	 7.15452450219078E-02 
1878	 6.95393651704267E-02 
1879	 8.35160891925892E-02 
1880	 8.77705926127146E-02 
1881	 8.26673733123419E-02 
1882	 0.060069437592758 
1883	 5.90940605608516E-02 
1884	 6.84742495835868E-02 
1885	 6.43948943412419E-02 
1886	 6.12175152144275E-02 
1887	 5.75877308231722E-02 
1888	 3.79211664383807E-02 
1889	 2.29165525549473E-02 
1890	 8.73936002842283E-03 
1891	-1.48785666623809E-02 
1892	-1.65392195510852E-02 
1893	-1.40275370705936E-03 
1894	 7.19799001685861E-04 
1895	 2.02566502760487E-02 
1896	 3.10390750536616E-02 
1897	 3.29574345942442E-02 
1898	 2.30695409746835E-02 
1899	-1.34713373840184E-02 
1900	-0.028091425182187 
1901	-2.19228997827132E-02 
1902	-9.92432750423385E-03 
1903	 2.4553158414934E-03 
1904	 8.91465189856022E-02 
1905	 0.112019162967116 
1906	 9.65470274688066E-02 
1907	 5.65013742911034E-02 
1908	-1.19125785303807E-02 
1909	-2.03925200649702E-02 
1910	-8.11603681974908E-03 
1911	 1.01369481042614E-02 
1912	 0.024769231448592 
1913	 6.24942108799306E-02 
1914	 6.73427759412727E-02 
1915	 6.00439275348905E-02 
1916	 5.25835874521848E-02 
1917	 3.90422872427556E-02 
1918	 0.031386069027002 
1919	 3.65311602559334E-02 
1920	 0.035237998632662 
1921	 2.99260860561867E-02 
1922	 3.15844987644121E-02 
1923	 3.62403133261775E-02 
1924	 3.97460102257337E-02 
1925	 4.49884682079525E-02 
1926	 6.39250631417657E-02 
1927	 6.46079757571102E-02 
1928	 5.68867594643452E-02 
1929	 4.10131131631058E-02 
1930	 2.97804541304787E-02 
1931	 3.10625953842133E-02 
1932	 3.49303570121911E-02 
1933	 3.94850076388611E-02 
1934	 4.13310210803111E-02 
1935	 4.08885858858213E-02 
1936	 4.00151352799572E-02 
1937	 4.07355783237404E-02 
1938	 3.84220935544877E-02 
1939	 3.26396397411625E-02 
1940	 3.22087752699236E-02 
1941	 3.17098184463155E-02 
1942	 2.60156644843283E-02 
1943	 2.67863245798264E-02 
1944	 2.58886729344716E-02 
1945	 1.89431183939675E-02 
1946	 2.23090743786701E-02 
1947	 2.46969477041093E-02 
1948	 0.029174596081981 
1949	 3.00430165402924E-02 
1950	 3.33207723312907E-02 
1951	 3.10702236547791E-02 
1952	 2.63612049037519E-02 
1953	 2.34039538627493E-02 
1954	 2.37832356651253E-02 
1955	 2.61733046682648E-02 
1956	 0.02710296901443 
1957	 2.63033099988123E-02 
1958	 2.62588992008069E-02 
1959	 0.025153434346938 
1960	 2.62532631595953E-02 
1961	 2.82365183238894E-02 
1962	 2.95353397638789E-02 
1963	 0.034021044021134 
1964	 3.45301224320268E-02 
1965	 3.22199407863979E-02 
1966	 3.47561439812903E-02 
1967	 3.48227119767459E-02 
1968	 3.25900780859857E-02 
1969	 3.27867272015362E-02 
1970	 3.46345133941468E-02 
1971	 3.46015714707525E-02 
1972	 3.37767638618683E-02 
1973	 3.49437234418578E-02 
1974	 3.58046532579216E-02 
1975	 3.64962692170442E-02 
1976	 3.86540504249158E-02 
1977	 4.08563626315389E-02 
1978	 4.09077767495707E-02 
1979	 4.00329265225386E-02 
1980	 3.85016949965855E-02 
1981	 3.64631873504365E-02 
1982	 3.58692695183618E-02 
1983	 3.60685296758625E-02 
1984	 3.66853738253856E-02 
1985	 3.77007390676343E-02 
1986	 3.92886164743637E-02 
1987	 3.91326431444745E-02 
1988	 3.91811280657624E-02 
1989	 4.01347202072736E-02 
1990	 3.90446545686734E-02 
1991	 3.82292517398848E-02 
1992	 3.80121906359327E-02 
1993	 3.72848514397406E-02 
1994	 3.88329341316392E-02 
1995	 4.06155925185681E-02 
1996	 4.47364498827529E-02 
1997	 0.048147289517339 
1998	 4.93678893457275E-02 
1999	 4.80202625788341E-02 
2000	 4.54190609462884E-02 
2001	 4.29616398625788E-02 
2002	 4.18698872040693E-02 
2003	 4.24815990456336E-02 
2004	 4.32993695890507E-02 
2005	 4.37398216296008E-02 
2006	 4.41378716746432E-02 
2007	 4.48145054757676E-02 
2008	 4.38618698089301E-02 
2009	 4.39661463913074E-02 
2010	 4.36880466817745E-02 
2011	 4.06058307618132E-02 
2012	 0.04224120558681 
2013	 4.53128317300091E-02 
2014	 4.43322977658936E-02 
2015	 4.61693539620764E-02 
2016	 4.75457714237194E-02 
2017	 0.044886690489198 
2018	 4.54983294855219E-02 
2019	 4.64899228270107E-02 
2020	 4.82453837603292E-02 
2021	 4.86730597972607E-02 
2022	 5.05780606603661E-02 
2023	 5.13113510102442E-02 
2024	 5.05260487499347E-02 
2025	 4.98139825749159E-02 
2026	 4.90490839853758E-02 
2027	 0.048020389661345 
2028	 4.84317794967348E-02 
2029	 5.00548311613751E-02 
2030	 4.97540553301071E-02 
2031	 4.97180932510511E-02 
2032	 5.06129054574245E-02 
2033	 5.21499666717953E-02 
2034	 5.17087845071191E-02 
2035	 5.19240600466504E-02 
2036	 0.05290932115995 
2037	 5.24153113581999E-02 
2038	 5.25815860971894E-02 
2039	 5.38688380408757E-02 
2040	 5.45699799955977E-02 
2041	 5.41014358011887E-02 
2042	 0.054497644877503 
2043	 5.53837191130164E-02 
2044	 5.62758764496862E-02 
2045	 5.68302381636952E-02 
2046	 5.78879909774361E-02 
2047	 0.057349441285385 
2048	 0.056947227424202 
2049	 5.68982480971833E-02 
2050	 5.73142695387019E-02 
2051	 5.92510671438715E-02 
2052	 6.06753118536636E-02 
2053	 0.061118320989725 
2054	 0.061257718897585 
2055	 6.10970445997826E-02 
2056	 6.05693909798153E-02 
2057	 6.11440339691641E-02 
2058	 0.062385593513737 
2059	 6.26569425522163E-02 
2060	 6.22935103277692E-02 
2061	 0.062910248356271 
2062	 6.30503518903266E-02 
2063	 6.23591901533482E-02 
2064	 6.28495670655021E-02 
2065	 6.20680030437877E-02 
2066	 6.10433913811087E-02 
2067	 6.14411226165205E-02 
2068	 6.25017039905027E-02 
2069	 6.37668057469778E-02 
2070	 0.065000284012968 
2071	 6.63497457716817E-02 
2072	 6.69328024429147E-02 
2073	 6.67134077294069E-02 
2074	 6.71412360169494E-02 
2075	 6.71081235352635E-02 
2076	 0.065440441110699 
2077	 6.59129510501671E-02 
2078	 6.68636335853448E-02 
2079	 6.74364044687556E-02 
2080	 6.91152143298154E-02 
2081	 7.02958231978529E-02 
2082	 7.05315314927518E-02 
2083	 7.09198542909844E-02 
2084	 7.11578199602181E-02 
2085	 0.069872308763822 
2086	 6.89789311449824E-02 
2087	 6.86224110097689E-02 
2088	 6.83539309811841E-02 
2089	 0.068099516276099 
2090	 6.90548213752131E-02 
2091	 6.97612419668658E-02 
2092	 7.00244058314219E-02 
2093	 7.06526528741131E-02 
2094	 7.16739094232364E-02 
2095	 7.29528491970853E-02 
2096	 7.32022267813785E-02 
2097	 7.39031001882285E-02 
2098	 7.48623959942629E-02 
2099	 7.40243495258044E-02 
2100	 7.44146437290685E-02 
2101	 7.54462745809987E-02 
2102	 7.58517005999088E-02 
2103	 7.58503139156761E-02 
2104	 0.076539822952012 
2105	 7.69247656052192E-02 
2106	 0.077697009710301 
2107	 7.86848677171502E-02 
2108	 7.96516125634741E-02 
2109	 7.95503518649706E-02 
2110	 0.07792456299515 
2111	 7.76677327640668E-02 
2112	 7.76707955258746E-02 
2113	 7.81293538326745E-02 
2114	 8.04898381379922E-02 
2115	 8.10533780283149E-02 
2116	 0.080204483914412 
2117	 7.99070642339418E-02 
2118	 0.078974760726067 
2119	 7.80625004421058E-02 
2120	 7.65293887758849E-02 
2121	 7.75971425462241E-02 
2122	 7.90307390025577E-02 
2123	 8.04981022800732E-02 
2124	 8.16760365938831E-02 
2125	 8.16208366708402E-02 
2126	 7.97128927087303E-02 
2127	 7.83107470261841E-02 
2128	 7.94739470892858E-02 
2129	 8.07436477806489E-02 
2130	 8.22202747245432E-02 
2131	 8.38368949095022E-02 
2132	 8.42756892358063E-02 
2133	 8.36276720700184E-02 
2134	 8.26373670105126E-02 
2135	 8.07997979913395E-02 
2136	 7.94334336066263E-02 
2137	 7.83770238736388E-02 
2138	 7.83250184085713E-02 
2139	 8.04389588967867E-02 
2140	 8.17574720861297E-02 
2141	 8.18497796797718E-02 
2142	 8.16827613335274E-02 
2143	 8.12969729433861E-02 
2144	 8.14570538684642E-02 
2145	 8.19749165953338E-02 
2146	 8.33841506153206E-02 
2147	 8.37274639523978E-02 
2148	 8.40288345701641E-02 
2149	 8.51271017900618E-02 
2150	 8.52024824416218E-02 
2151	 8.56139430527102E-02 
2152	 8.60951000870945E-02 
2153	 8.61651557416463E-02 
2154	 8.58278278565315E-02 
2155	 8.65497270103643E-02 
2156	 8.64148314060958E-02 
2157	 8.70934581681413E-02 
2158	 8.87134086668837E-02 
2159	 9.10445297833501E-02 
2160	 9.16879032428198E-02 
2161	 9.20180896988876E-02 
2162	 9.22455160510663E-02 
2163	 9.04349607996611E-02 
2164	 0.090400885317023 
2165	 0.09149732775569 
2166	 9.10935025269514E-02 
2167	 9.02800609411498E-02 
2168	 9.04293794338944E-02 
2169	 9.07924118630678E-02 
2170	 9.13066381545088E-02 
2171	 9.24029261260115E-02 
2172	 9.40128843660396E-02 
2173	 9.50266875900147E-02 
2174	 9.46909187484156E-02 
2175	 0.094766705771278 
2176	 9.49430317512191E-02 
2177	 9.43294087689327E-02 
2178	 9.34969332698903E-02 
2179	 9.36854486871904E-02 
2180	 0.094682094389468 
2181	 9.53899943772159E-02 
2182	 9.72589328571845E-02 
2183	 9.83588498842649E-02 
2184	 9.70612572570618E-02 
2185	 0.09540006525109 
2186	 9.43330949154552E-02 
2187	 9.40872815224937E-02 
2188	 9.41967004298675E-02 
2189	 9.48150890595125E-02 
2190	 9.67796739051259E-02 
2191	 9.81600142309087E-02 
2192	 0.097830448755468 
2193	 9.79733961249813E-02 
2194	 9.87045815377752E-02 
2195	 9.86953723874054E-02 
2196	 9.79955854033653E-02 
2197	 9.75500898482422E-02 
2198	 9.70154178884067E-02 
2199	 9.50808663094627E-02 
2200	 9.50271589925903E-02 
2201	 9.70669267939385E-02 
2202	 9.83396894041546E-02 
2203	 9.96503831474857E-02 
2204	 0.100862040197221 
2205	 0.101554512160796 
2206	 0.101041590185177 
2207	 9.99094746417219E-02 
2208	 9.91960138645444E-02 
2209	 9.71107030269572E-02 
2210	 9.69344065460909E-02 
2211	 0.097532375684356 
2212	 0.100531276761331 
2213	 0.101085078230632 
2214	 0.100637904611476 
2215	 0.100101482181021 
2216	 9.74467006672483E-02 
2217	 9.65197590839925E-02 
2218	 9.76277621903402E-02 
2219	 0.097517081470174 
2220	 9.67973824621765E-02 
2221	 9.71768959985197E-02 
2222	 9.75740813762707E-02 
2223	 9.80929238058506E-02 
2224	 9.87177310903878E-02 
2225	 9.87457207784334E-02 
2226	 9.95639233071459E-02 
2227	 9.91246731761754E-02 
2228	 9.81102851645518E-02 
2229	 9.87407933055124E-02 
2230	 9.82812788068369E-02 
2231	 9.75264261754624E-02 
2232	 9.70995298088861E-02 
2233	 0.097379379741588 
2234	 9.74568325544343E-02 
2235	 0.096518894052227 
2236	 9.74167152601941E-02 
2237	 0.097304638755979 
2238	 9.60639358371914E-02 
2239	 9.68943680345935E-02 
2240	 9.67151837783461E-02 
2241	 9.55112595217793E-02 
2242	 9.55648184284156E-02 
2243	 9.45912952139852E-02 
2244	 9.37532062324869E-02 
2245	 9.43679798304004E-02 
2246	 9.22098538910319E-02 
2247	 9.18630313356605E-02 
2248	 9.41661098218063E-02 
2249	 9.46003117543781E-02 
2250	 9.50976742689094E-02 
2251	 9.37786280694516E-02 
2252	 9.11922414346988E-02 
2253	 8.99115601110679E-02 
2254	 8.98749972288157E-02 
2255	 9.01314487513868E-02 
2256	 9.03763566577468E-02 
2257	 9.03221839398271E-02 
2258	 9.05104772369868E-02 
2259	 9.07987430021675E-02 
2260	 9.09213863918029E-02 
2261	 8.99954992082971E-02 
2262	 8.82824328499268E-02 
2263	 8.69447419041994E-02 
2264	 8.60155892968689E-02 
2265	 8.61803743826416E-02 
2266	 8.56779307015215E-02 
2267	 8.41806869742331E-02 
2268	 0.08542276073146 
2269	 8.64334677464169E-02 
2270	 8.67309757239916E-02 
2271	 8.91454426436686E-02 
2272	 8.92642342735972E-02 
2273	 8.86555053299802E-02 
2274	 9.15976631270609E-02 
2275	 9.43183111614132E-02 
2276	 9.49036128316245E-02 
2277	 9.43696860771685E-02 
2278	 9.01168475882202E-02 
2279	 0.085357074075319 
2280	 8.37378098135872E-02 
2281	 8.29684351788776E-02 
2282	 8.20993929011319E-02 
2283	 7.97957640247596E-02 
2284	 7.70817785135086E-02 
2285	 7.53021265172997E-02 
2286	 7.40892006387487E-02 
2287	 7.37281270007414E-02 
2288	 7.59982438910018E-02 
2289	 7.84637336050788E-02 
2290	 7.61607700658772E-02 
2291	 7.44768569699337E-02 
2292	 7.65229177002998E-02 
2293	 7.46643187932001E-02 
2294	 7.44385976482635E-02 
2295	 7.65582620945902E-02 
2296	 7.41222289242968E-02 
2297	 7.51136664087255E-02 
2298	 7.83175857921182E-02 
2299	 8.06889197495115E-02 
2300	 8.38482152359949E-02 
2301	 8.19605058521071E-02 
2302	 7.86557860897486E-02 
2303	 7.86978578236631E-02 
2304	 0.07818081578192 
2305	 7.87858958413311E-02 
2306	 0.080470429437434 
2307	 7.77635341304273E-02 
2308	 7.47509092156281E-02 
2309	 7.29105375807895E-02 
2310	 7.04642491255278E-02 
2311	 0.071738362979699 
2312	 7.20043883479777E-02 
2313	 7.02536740118435E-02 
2314	 7.16184087805062E-02 
2315	 7.23950043421889E-02 
2316	 7.17078632863978E-02 
2317	 7.28580856030316E-02 
2318	 0.074043066934915 
2319	 7.24636597774651E-02 
2320	 7.07982426063118E-02 
2321	 6.99529555127317E-02 
2322	 6.66687770824645E-02 
2323	 6.66850349049761E-02 
2324	 6.92434203758961E-02 
2325	 0.072877131081583 
2326	 7.26183177962253E-02 
2327	 7.31617275210418E-02 
2328	 6.88486538346536E-02 
2329	 6.27097593571098E-02 
2330	 6.09609112081525E-02 
2331	 6.03152349644941E-02 
2332	 6.27792476871115E-02 
2333	 6.59325637249399E-02 
2334	 6.82264331624862E-02 
2335	 6.67011924450359E-02 
2336	 6.40733972932328E-02 
2337	 6.58700211096235E-02 
2338	 6.57391605423781E-02 
2339	 0.06655956362623 
2340	 6.61638139475045E-02 
2341	 6.09182135556007E-02 
2342	 5.86294915037343E-02 
2343	 5.91231855771829E-02 
2344	 5.80967441167833E-02 
2345	 5.45368555127325E-02 
2346	 5.45050243727926E-02 
2347	 5.84547808568036E-02 
2348	 6.29268232055109E-02 
2349	 7.12391001531343E-02 
2350	 0.077085762461329 
2351	 7.30777733522766E-02 
2352	 6.63682015797963E-02 
2353	 6.42809012851932E-02 
2354	 6.59640180837466E-02 
2355	 6.85770239503657E-02 
2356	 6.78260793892403E-02 
2357	 6.23414058409682E-02 
2358	 5.10747119041072E-02 
2359	 4.18362364000872E-02 
2360	 4.86933979412581E-02 
2361	 5.64866295565338E-02 
2362	 6.24463052362769E-02 
2363	 7.13855674165181E-02 
2364	 0.065918368289238 
2365	 0.059238603119121 
2366	 5.26024360193655E-02 
2367	 4.50032667861476E-02 
2368	 4.68966927736504E-02 
2369	 4.55125716486324E-02 
2370	 5.14175798285003E-02 
2371	 5.62441641348126E-02 
2372	 5.78057842185163E-02 
2373	 5.85253432466406E-02 
2374	 6.11652956022576E-02 
2375	 5.83890353848148E-02 
2376	 5.90015893576206E-02 
2377	 6.37250675997566E-02 
2378	 6.13411622034337E-02 
2379	 5.99538022622266E-02 
2380	 5.70302028839918E-02 
2381	 4.30551645204862E-02 
2382	 4.13191120024336E-02 
2383	 4.70560103761753E-02 
2384	 4.63468002462782E-02 
2385	 5.04495235192264E-02 
2386	 4.93272289400491E-02 
2387	 3.81656003709405E-02 
2388	 3.46904053532338E-02 
2389	 3.75623662973671E-02 
2390	 3.82620736066165E-02 
2391	 4.26857350448699E-02 
2392	 4.24939051316177E-02 
2393	 3.26804905472989E-02 
2394	 3.23446327707273E-02 
2395	 3.27411187635204E-02 
2396	 3.70527366934092E-02 
2397	 6.02042962322924E-02 
2398	 6.37296322947287E-02 
2399	 5.33154398713473E-02 
2400	 4.87864533023014E-02 
2401	 0.035555250388825 
2402	 2.79708063440016E-02 
2403	 2.72436328575821E-02 
2404	 3.43427399845356E-02 
2405	 3.72120827404036E-02 
2406	 2.88532278143234E-02 
2407	 2.40157514507678E-02 
2408	 2.37559256487563E-02 
2409	 2.23718882221955E-02 
2410	 1.94468509528932E-02 
2411	 1.88484253088152E-02 
2412	 2.14520308163265E-02 
2413	 2.34800065751078E-02 
2414	 3.16854789221577E-02 
2415	 4.58633836416765E-02 
2416	 4.57127161289312E-02 
2417	 0.036387954200179 
2418	 0.035994450748824 
2419	 2.41462708599418E-02 
2420	 1.17472273016128E-02 
2421	 6.46701450963528E-03 
2422	-1.44987893487439E-02 
2423	-2.75437530147318E-02 
2424	-1.39350785130252E-02 
2425	 7.81289198741696E-05 
2426	 1.58817210551788E-02 
2427	 4.12298391862099E-02 
2428	 5.06765839116263E-02 
2429	 4.18196627060109E-02 
2430	 0.03575823770428 
2431	 2.82486852029747E-02 
2432	 1.54515314080018E-02 
2433	 2.94685054497297E-02 
2434	 2.92548215847809E-02 
2435	 2.34653161794889E-02 
2436	 0.021031051422977 
2437	 7.24058235782589E-03 
2438	 3.12668664818816E-03 
2439	 6.40803236991686E-03 
2440	 4.02986705350785E-03 
2441	 9.1282461233832E-03 
2442	 1.09331343338397E-02 
2443	 1.36423505672884E-03 
2444	 4.97755183238375E-03 
2445	 1.78183298973372E-02 
2446	 1.59697856526201E-02 
2447	 0.011974310348659 
2448	 1.50262178216369E-02 
2449	 1.74699477706762E-02 
2450	 1.65618579919169E-02 
2451	 2.93521662402097E-02 
2452	 2.49727844128732E-02 
2453	-8.49307703326103E-03 
2454	-2.62287037503321E-02 
2455	-4.42825975230983E-02 
2456	-4.87251993443733E-02 
2457	-4.51947239457879E-02 
2458	-0.03414160245134 
2459	-7.07310735455898E-03 
2460	 8.39072552702749E-03 
2461	 3.46872703573537E-02 
2462	 3.87799075053802E-02 
2463	 2.12871198697134E-02 
2464	 1.14569927538987E-02 
2465	-6.10164362951633E-03 
2466	-7.52884614903267E-03 
2467	 1.62757809137395E-02 
2468	 5.90530173195703E-03 
2469	-5.44671687609036E-02 
2470	-0.066817686378964 
2471	-7.48599736295251E-02 
2472	-5.93692850775958E-02 
2473	 5.63298044307893E-02 
2474	 8.30496776256911E-02 
2475	 5.10611666019201E-02 
2476	 2.84264401565232E-02 
2477	-0.069362796510843 
2478	-0.106123270247878 
2479	-0.099873104651062 
2480	-4.25642691930277E-02 
2481	 0.100491511857894 
2482	 0.166053832506355 
2483	 0.276248174435771 
2484	 0.302026974350979 
2485	 0.226397099337709 
2486	 0.17997565238851 
2487	 7.44729891710594E-02 
2488	 0.138043579603741 
2489	 8.32953727562137E-02 
2490	-1.93248876064943E-02 
2491	 1.22044756911033E-02 
2492	-5.20150129836624E-02 
2493	-0.14550160132328 
2494	-0.10175576281964 
2495	-4.80696185197398E-02 
2496	-8.69963144359036E-02 
2497	-3.80538836479576E-02 
2498	 0.112556154307445 
2499	-0.02627706432356 
2500	-0.418114628347021 
