Wavelength	ref00092.asd
350	 0.200432166801801 
351	 0.201396559444607 
352	 0.20109311515359 
353	 0.201950901601307 
354	 0.203897774273353 
355	 0.205744088093372 
356	 0.206747076649831 
357	 0.207409806007438 
358	 0.20868984165229 
359	 0.210576947604739 
360	 0.212527604905097 
361	 0.21338291556526 
362	 0.21475125573153 
363	 0.21649007866903 
364	 0.217430239482127 
365	 0.218879092499141 
366	 0.221070435823571 
367	 0.223568685865803 
368	 0.225234831218093 
369	 0.227498401092559 
370	 0.230423181968887 
371	 0.233718648493304 
372	 0.237141773435437 
373	 0.240647472263326 
374	 0.244300563329437 
375	 0.248229698872102 
376	 0.252767308814291 
377	 0.257363939992312 
378	 0.262256208097994 
379	 0.268620322186676 
380	 0.274916928455227 
381	 0.281758654765138 
382	 0.289696258590446 
383	 0.29783760909208 
384	 0.306904550557054 
385	 0.317031288380278 
386	 0.328081219053086 
387	 0.34027546566441 
388	 0.353246819150777 
389	 0.366781617186261 
390	 0.380896507106814 
391	 0.396851810929051 
392	 0.414149463590075 
393	 0.432433350339246 
394	 0.452378706296173 
395	 0.474127677210275 
396	 0.496763410647701 
397	 0.519146498364849 
398	 0.541327561782016 
399	 0.563194025578188 
400	 0.584551066014132 
401	 0.605297063374323 
402	 0.626010374713415 
403	 0.646699121756503 
404	 0.667612657804623 
405	 0.690000795416993 
406	 0.712818515450888 
407	 0.736053402061701 
408	 0.759567446404725 
409	 0.781519658721627 
410	 0.802449512500715 
411	 0.82243041998674 
412	 0.841006214866748 
413	 0.858020086860899 
414	 0.873641202343029 
415	 0.888087555656801 
416	 0.901549745871325 
417	 0.914153265738755 
418	 0.92557165389531 
419	 0.935579072333908 
420	 0.945274599781367 
421	 0.953899031922076 
422	 0.961412116912191 
423	 0.968491241904611 
424	 0.975042770190944 
425	 0.981271994028518 
426	 0.987204365938972 
427	 0.992320880161827 
428	 0.997661840199391 
429	 1.00294427538773 
430	 1.00762599995313 
431	 1.01253131958625 
432	 1.01704640050791 
433	 1.02096752593364 
434	 1.02454638688042 
435	 1.0281842845626 
436	 1.03167597321758 
437	 1.03491289528589 
438	 1.03822363521207 
439	 1.04132681893201 
440	 1.04433766087217 
441	 1.04741916174042 
442	 1.05022686338098 
443	 1.052916087192 
444	 1.05563545394542 
445	 1.05848086171673 
446	 1.06089021440648 
447	 1.06313938190751 
448	 1.06548725817667 
449	 1.06779513292094 
450	 1.06966454739218 
451	 1.0713629002214 
452	 1.07335666082685 
453	 1.07530357412076 
454	 1.07715800796454 
455	 1.07900122021224 
456	 1.08103050649924 
457	 1.08305705761674 
458	 1.08492712478311 
459	 1.08659780407829 
460	 1.08828102251347 
461	 1.09001834314328 
462	 1.0917696551651 
463	 1.09344079163892 
464	 1.09500484071805 
465	 1.09647723546951 
466	 1.09790418321942 
467	 1.09936346826982 
468	 1.10080135941571 
469	 1.1022536871566 
470	 1.10377366508813 
471	 1.10540678642846 
472	 1.10697022263027 
473	 1.10844085264689 
474	 1.10990866604819 
475	 1.1112924368222 
476	 1.1127009209781 
477	 1.11413055696777 
478	 1.11531961940493 
479	 1.11637847873593 
480	 1.1174332583937 
481	 1.11855253353769 
482	 1.11941940809636 
483	 1.1205158794295 
484	 1.12183010563635 
485	 1.12286023380127 
486	 1.1242788555214 
487	 1.12591246531115 
488	 1.12743012447698 
489	 1.1285710396173 
490	 1.12961045405463 
491	 1.13067600337915 
492	 1.1317885511838 
493	 1.13265743200124 
494	 1.1335710843049 
495	 1.13460718271035 
496	 1.13553370299737 
497	 1.13635977478822 
498	 1.13717518951801 
499	 1.13805981569734 
500	 1.13895612573212 
501	 1.14003807937858 
502	 1.14129362926513 
503	 1.14257610903933 
504	 1.14374641089139 
505	 1.1447694103819 
506	 1.1456856647685 
507	 1.14661783915974 
508	 1.14757184173914 
509	 1.14853401531493 
510	 1.14945904595406 
511	 1.15022622478711 
512	 1.15092976191183 
513	 1.15167887237606 
514	 1.15257647583029 
515	 1.15348132103419 
516	 1.15446655636045 
517	 1.15560097446134 
518	 1.1568851707564 
519	 1.15812196058422 
520	 1.1593036779372 
521	 1.16047816039631 
522	 1.16144092634116 
523	 1.16249343660031 
524	 1.16374365431096 
525	 1.16503627398594 
526	 1.16633283092498 
527	 1.16764443924895 
528	 1.16894219025583 
529	 1.170012702761 
530	 1.17101457565602 
531	 1.17208994882212 
532	 1.17333091463877 
533	 1.17443890986818 
534	 1.17555385826407 
535	 1.17671379604073 
536	 1.1777050547067 
537	 1.17879786652171 
538	 1.18006127645033 
539	 1.18147636721083 
540	 1.18295866839494 
541	 1.18447868943199 
542	 1.18594685751899 
543	 1.18724089861939 
544	 1.18862730287578 
545	 1.18987503957163 
546	 1.19087426831097 
547	 1.19196660977116 
548	 1.1930554673904 
549	 1.19404489885737 
550	 1.1948903929824 
551	 1.19591441264979 
552	 1.19694487491716 
553	 1.19791163752293 
554	 1.19890995199106 
555	 1.19971702632876 
556	 1.20060597640719 
557	 1.20177413846982 
558	 1.20273264062705 
559	 1.20379819553559 
560	 1.20494240429458 
561	 1.20594770194227 
562	 1.20707681815497 
563	 1.20822448793812 
564	 1.20928910704585 
565	 1.21024106451052 
566	 1.21121194589768 
567	 1.21215395208781 
568	 1.21300284696432 
569	 1.21392353983043 
570	 1.21484809254171 
571	 1.21570329608548 
572	 1.21643140924363 
573	 1.21706473899217 
574	 1.21772506713921 
575	 1.21843390785879 
576	 1.21888676703061 
577	 1.21939742499399 
578	 1.22001864789232 
579	 1.22062756847811 
580	 1.22083155742409 
581	 1.22103625460007 
582	 1.22137684908279 
583	 1.2215347927288 
584	 1.22183911389404 
585	 1.2221536287045 
586	 1.22235334512036 
587	 1.22280959207143 
588	 1.22350005930206 
589	 1.22425508885171 
590	 1.22476564291887 
591	 1.22474359108435 
592	 1.22443692766424 
593	 1.22408397506366 
594	 1.22374839757597 
595	 1.2233579698397 
596	 1.22294602540149 
597	 1.22256216958157 
598	 1.22216130611849 
599	 1.22179446126536 
600	 1.22147487216086 
601	 1.22117637440204 
602	 1.22093805153021 
603	 1.22067942269982 
604	 1.22036191233566 
605	 1.22009247396173 
606	 1.21999277915277 
607	 1.2200154781219 
608	 1.22001603609492 
609	 1.21987693809287 
610	 1.21985465014883 
611	 1.21994410510732 
612	 1.21973006097185 
613	 1.21967694571684 
614	 1.21960168927174 
615	 1.21930725703557 
616	 1.21920844910894 
617	 1.21915853559607 
618	 1.21904685618533 
619	 1.21881263656317 
620	 1.21858463961928 
621	 1.21835567029557 
622	 1.21809745558137 
623	 1.21775712755728 
624	 1.21768102009462 
625	 1.21784078008411 
626	 1.21802448284541 
627	 1.21796569127562 
628	 1.21778316163561 
629	 1.21750613286986 
630	 1.21707860484237 
631	 1.21689689832201 
632	 1.21680725283568 
633	 1.21662913170666 
634	 1.21641557072833 
635	 1.21617044853097 
636	 1.21591630745074 
637	 1.21567400031369 
638	 1.21539051469617 
639	 1.21508211928372 
640	 1.21476951000719 
641	 1.21448035612812 
642	 1.21437673994011 
643	 1.21433160540177 
644	 1.21421160156376 
645	 1.21408295400625 
646	 1.21433164458538 
647	 1.21478137192851 
648	 1.21490296250535 
649	 1.21459756536791 
650	 1.21411718342001 
651	 1.21368796867354 
652	 1.21339048754343 
653	 1.21278443842803 
654	 1.21222806793038 
655	 1.21208468964041 
656	 1.21164971539566 
657	 1.21135056903807 
658	 1.21120172761466 
659	 1.21083616574757 
660	 1.21026691843526 
661	 1.20975650167962 
662	 1.20941766173583 
663	 1.20896282651401 
664	 1.20872276677267 
665	 1.20852450362315 
666	 1.2081434921911 
667	 1.20804125680935 
668	 1.20793158138239 
669	 1.20767693300332 
670	 1.20732436088128 
671	 1.20718643572646 
672	 1.20700738660314 
673	 1.20661851124506 
674	 1.20627917148861 
675	 1.20604820173526 
676	 1.20585596474111 
677	 1.20559761878161 
678	 1.20535280605352 
679	 1.20517656733686 
680	 1.20495137392193 
681	 1.20441592112608 
682	 1.20417986013978 
683	 1.20400827691987 
684	 1.20365492462862 
685	 1.2032805591322 
686	 1.20313004131174 
687	 1.20314132734833 
688	 1.20310505410874 
689	 1.20306498308034 
690	 1.20293585664779 
691	 1.20291144982533 
692	 1.20346792777982 
693	 1.20471889568208 
694	 1.20567623587895 
695	 1.20552503889496 
696	 1.20452475441491 
697	 1.20341817979639 
698	 1.20288453882087 
699	 1.20332382112062 
700	 1.20372420451901 
701	 1.20371517324679 
702	 1.20319357042659 
703	 1.20233257176124 
704	 1.20182139230604 
705	 1.20146230190801 
706	 1.20096341299517 
707	 1.2003312117044 
708	 1.20013774662586 
709	 1.20010997151427 
710	 1.19969901137914 
711	 1.19950966873403 
712	 1.19939232750368 
713	 1.19938021248876 
714	 1.19978349929928 
715	 1.20079213470372 
716	 1.20327147056116 
717	 1.20751825987605 
718	 1.21169734780295 
719	 1.21363975205384 
720	 1.21233679453966 
721	 1.20875367936987 
722	 1.20624087945599 
723	 1.20673807982785 
724	 1.20947096301985 
725	 1.21070505663059 
726	 1.21063972781488 
727	 1.21034393323577 
728	 1.2104497018361 
729	 1.20993355819984 
730	 1.209424927809 
731	 1.20854024417271 
732	 1.20674415109241 
733	 1.20458860731966 
734	 1.20321387379248 
735	 1.20276628495475 
736	 1.20253018500277 
737	 1.20226013306722 
738	 1.20184471913177 
739	 1.20129022327646 
740	 1.20073562756215 
741	 1.20034876205956 
742	 1.19997595389188 
743	 1.19951844351673 
744	 1.19968184246895 
745	 1.19966968627999 
746	 1.19945446816179 
747	 1.19956856838954 
748	 1.1994160266269 
749	 1.19924464091412 
750	 1.19924560447504 
751	 1.19932255589862 
752	 1.19938858884718 
753	 1.19944768388644 
754	 1.19947743518619 
755	 1.19924845503535 
756	 1.19899286245388 
757	 1.19862769663888 
758	 1.19799471667408 
759	 1.19806820510948 
760	 1.19927822826252 
761	 1.2013721185623 
762	 1.20173076422702 
763	 1.20182628939621 
764	 1.20164137746121 
765	 1.20097389682213 
766	 1.19991992814499 
767	 1.19929851043597 
768	 1.19906588928681 
769	 1.19890925636962 
770	 1.19839993928471 
771	 1.19825548959585 
772	 1.19840718156268 
773	 1.19814295649178 
774	 1.19797101124921 
775	 1.19796410589251 
776	 1.19799604107681 
777	 1.19771015928621 
778	 1.1976983348267 
779	 1.19776674452137 
780	 1.19762481932315 
781	 1.19746987602655 
782	 1.19727597403306 
783	 1.19719854986256 
784	 1.19741585627421 
785	 1.19758633106546 
786	 1.19786357197342 
787	 1.1982645632664 
788	 1.19862252867441 
789	 1.19902672776645 
790	 1.19928358956882 
791	 1.19919929968343 
792	 1.19863769486906 
793	 1.19847266700067 
794	 1.19850057681922 
795	 1.19835859914554 
796	 1.19866143452122 
797	 1.19880345039332 
798	 1.19868916490808 
799	 1.19856186290715 
800	 1.19855040235006 
801	 1.19864396287318 
802	 1.19875962177408 
803	 1.1987556418287 
804	 1.19841220461092 
805	 1.19813992407551 
806	 1.19812994345447 
807	 1.19783645794477 
808	 1.19800030541459 
809	 1.19852067808679 
810	 1.19922978263565 
811	 1.20084071753911 
812	 1.20268900447443 
813	 1.2047767558913 
814	 1.20734262582551 
815	 1.20933185847012 
816	 1.21052768942298 
817	 1.21067036353292 
818	 1.20953836040706 
819	 1.20833087350425 
820	 1.20709097736096 
821	 1.20620232986654 
822	 1.20700601813799 
823	 1.20770579601324 
824	 1.20738292364563 
825	 1.20594800919395 
826	 1.20451138599901 
827	 1.20429512050037 
828	 1.20495541334313 
829	 1.20539834022361 
830	 1.20493261074061 
831	 1.20431674543015 
832	 1.20369518408757 
833	 1.20274344811977 
834	 1.20187854157848 
835	 1.20112541079633 
836	 1.20045727401456 
837	 1.1998434770279 
838	 1.1993171252392 
839	 1.19894897922465 
840	 1.19868815160745 
841	 1.19823265661712 
842	 1.19794149426121 
843	 1.19764272965491 
844	 1.1971838274455 
845	 1.19699043317263 
846	 1.19685551389894 
847	 1.19676506947665 
848	 1.19671438234561 
849	 1.19627522337643 
850	 1.19598293418896 
851	 1.19597385232356 
852	 1.19601933095289 
853	 1.19597999262995 
854	 1.19581845784863 
855	 1.19549858049736 
856	 1.19500452123766 
857	 1.19472493781329 
858	 1.19450811367392 
859	 1.19422416101756 
860	 1.19394006781047 
861	 1.19367393234302 
862	 1.19327272346783 
863	 1.19263984954152 
864	 1.19187847834369 
865	 1.19164478283862 
866	 1.19146169047074 
867	 1.19081372829135 
868	 1.19075596154475 
869	 1.1904367793774 
870	 1.18982993708769 
871	 1.18933543010249 
872	 1.18926380644508 
873	 1.18905556001579 
874	 1.1888348801325 
875	 1.18911856584086 
876	 1.18926376917084 
877	 1.18931582725801 
878	 1.18952698319828 
879	 1.19018166512427 
880	 1.19038879467308 
881	 1.1905837064672 
882	 1.19096103009148 
883	 1.1911475198761 
884	 1.19199658775028 
885	 1.19239731143589 
886	 1.19200468807686 
887	 1.19253252250406 
888	 1.19271492910895 
889	 1.19275672251207 
890	 1.19311585651061 
891	 1.19389746479605 
892	 1.19513683509564 
893	 1.19625320109053 
894	 1.19707152732134 
895	 1.19964025121325 
896	 1.20170547409745 
897	 1.2029965023167 
898	 1.20411145739124 
899	 1.20505661384476 
900	 1.20493602689152 
901	 1.20389495196039 
902	 1.2027095915517 
903	 1.20197933968661 
904	 1.20056786612918 
905	 1.19949772614957 
906	 1.20064620629897 
907	 1.20191215984142 
908	 1.20383209923654 
909	 1.20552022357687 
910	 1.20528174130215 
911	 1.20614868034223 
912	 1.20690322617592 
913	 1.20696595103822 
914	 1.20688175530674 
915	 1.20717127763669 
916	 1.20689538507706 
917	 1.20577607174679 
918	 1.20452735576965 
919	 1.20366601734772 
920	 1.20288957002048 
921	 1.20218288145283 
922	 1.20204106075853 
923	 1.20224436272714 
924	 1.20293005901646 
925	 1.20433026900013 
926	 1.20671988121761 
927	 1.21033381579544 
928	 1.21432788113365 
929	 1.21841592861865 
930	 1.22386530292101 
931	 1.23096737801525 
932	 1.23767028341978 
933	 1.24253362612765 
934	 1.24757552151748 
935	 1.24937996592154 
936	 1.24927433653354 
937	 1.24881754296152 
938	 1.24713479659232 
939	 1.24436923063828 
940	 1.24237465821918 
941	 1.24155931315414 
942	 1.23911254728059 
943	 1.23883056865123 
944	 1.2397252040109 
945	 1.24003412589864 
946	 1.23911403770151 
947	 1.24095210554809 
948	 1.24254043427537 
949	 1.24139988847464 
950	 1.24022062563824 
951	 1.23902648310232 
952	 1.23894403137595 
953	 1.23991591837085 
954	 1.23930863141098 
955	 1.23601038229642 
956	 1.23330117785541 
957	 1.23281266101433 
958	 1.23089023462979 
959	 1.22945369996081 
960	 1.22781148024378 
961	 1.22540300262885 
962	 1.22293261454796 
963	 1.22086217844619 
964	 1.2180160974954 
965	 1.21475262938153 
966	 1.21420841222109 
967	 1.21117200303376 
968	 1.20842854016308 
969	 1.2075573422294 
970	 1.205753141779 
971	 1.20365488750205 
972	 1.20317583567537 
973	 1.20390536115981 
974	 1.20220725026207 
975	 1.20298425492733 
976	 1.201960727146 
977	 1.19868695134574 
978	 1.19903914941194 
979	 1.19870946422496 
980	 1.19739570226563 
981	 1.19541284398561 
982	 1.19334240686097 
983	 1.1946789560543 
984	 1.1940174690517 
985	 1.19076290042495 
986	 1.18939924186782 
987	 1.18857901900485 
988	 1.18813055702534 
989	 1.18806212720984 
990	 1.18831295872919 
991	 1.18782448476659 
992	 1.18779987378955 
993	 1.18720571574736 
994	 1.1847273879976 
995	 1.18539781457465 
996	 1.18469495622575 
997	 1.18372083736871 
998	 1.1849498040407 
999	 1.18333142927174 
1000	 1.18130754736354 
1001	 1.17591802586573 
1002	 1.17594203119691 
1003	 1.17584699503762 
1004	 1.17567725864896 
1005	 1.17555116758263 
1006	 1.17560318059471 
1007	 1.17542625976123 
1008	 1.17509123748063 
1009	 1.17485105937411 
1010	 1.1745536933776 
1011	 1.17427908355317 
1012	 1.1740995516095 
1013	 1.17385101902469 
1014	 1.17357331381269 
1015	 1.17335047469965 
1016	 1.17315748753239 
1017	 1.17290781613138 
1018	 1.17270958888005 
1019	 1.1726109918964 
1020	 1.17236115398362 
1021	 1.17207294738749 
1022	 1.17186084930841 
1023	 1.17166115985326 
1024	 1.17130210273209 
1025	 1.17116434811753 
1026	 1.17078889246808 
1027	 1.17040813324108 
1028	 1.17010706819955 
1029	 1.16966451776804 
1030	 1.16941258042764 
1031	 1.16920422085074 
1032	 1.16903161902365 
1033	 1.16881225708942 
1034	 1.16859166298661 
1035	 1.16832483918118 
1036	 1.16797713758811 
1037	 1.16770944432102 
1038	 1.16744110596162 
1039	 1.16740860194544 
1040	 1.16710684726041 
1041	 1.16670058244624 
1042	 1.16649311667075 
1043	 1.16599582635236 
1044	 1.16574871847335 
1045	 1.1655961468628 
1046	 1.16511489449679 
1047	 1.16482525281867 
1048	 1.16458962588973 
1049	 1.1642556819732 
1050	 1.16396070667629 
1051	 1.16375287155769 
1052	 1.16352567415304 
1053	 1.16324515310687 
1054	 1.16304054724007 
1055	 1.16295471363268 
1056	 1.16269241158931 
1057	 1.16228530802415 
1058	 1.16200261877659 
1059	 1.16180107412369 
1060	 1.16171214606186 
1061	 1.16159780734479 
1062	 1.16144524717732 
1063	 1.16128338386293 
1064	 1.16088533925358 
1065	 1.16060000244756 
1066	 1.16035597871864 
1067	 1.16024316552365 
1068	 1.16003353972735 
1069	 1.15991061072311 
1070	 1.15988278747601 
1071	 1.15973247648878 
1072	 1.15949798432784 
1073	 1.15947494646289 
1074	 1.1593435083718 
1075	 1.15901528989951 
1076	 1.1588609103827 
1077	 1.15868625146526 
1078	 1.15840765758194 
1079	 1.15808876656774 
1080	 1.15791396595916 
1081	 1.15786301615229 
1082	 1.15788097981366 
1083	 1.15788617564055 
1084	 1.15796728987627 
1085	 1.15805441122572 
1086	 1.15791693000923 
1087	 1.15766229804105 
1088	 1.15773471792476 
1089	 1.15789783473264 
1090	 1.15805633860257 
1091	 1.15841494548926 
1092	 1.1587911176385 
1093	 1.15907608736112 
1094	 1.15926424514739 
1095	 1.15968127308142 
1096	 1.16014081131084 
1097	 1.16064437845486 
1098	 1.16116601727098 
1099	 1.16179725536147 
1100	 1.16248075547569 
1101	 1.16295621304562 
1102	 1.16339164827976 
1103	 1.163923053179 
1104	 1.16439588874855 
1105	 1.16495338778157 
1106	 1.16589298284841 
1107	 1.16712728108483 
1108	 1.16840531408678 
1109	 1.16989770214987 
1110	 1.17153158361599 
1111	 1.17328133667229 
1112	 1.17517801510357 
1113	 1.17725284508953 
1114	 1.17965569330371 
1115	 1.1823051053519 
1116	 1.18537920543057 
1117	 1.18835791803454 
1118	 1.19161596631224 
1119	 1.19445044361069 
1120	 1.19640262148875 
1121	 1.19760435346762 
1122	 1.19772457646929 
1123	 1.19694898522196 
1124	 1.19547909353465 
1125	 1.19346594437009 
1126	 1.19058025658941 
1127	 1.18732478796641 
1128	 1.18281479783307 
1129	 1.17709440381549 
1130	 1.17165236445534 
1131	 1.16548788326068 
1132	 1.16008013300926 
1133	 1.15473648753119 
1134	 1.14994071956988 
1135	 1.14596265481452 
1136	 1.14209820848139 
1137	 1.1389623536566 
1138	 1.13664105775604 
1139	 1.13491028828958 
1140	 1.13400074393179 
1141	 1.13372424393249 
1142	 1.13417409040692 
1143	 1.13501648987603 
1144	 1.13657388417097 
1145	 1.13791467831049 
1146	 1.13981052775577 
1147	 1.14133354104121 
1148	 1.14290380848689 
1149	 1.14409026382132 
1150	 1.14529298868662 
1151	 1.1458198117162 
1152	 1.14606889131553 
1153	 1.14558317287522 
1154	 1.14469187486245 
1155	 1.14370706029889 
1156	 1.14249151476988 
1157	 1.1412669339243 
1158	 1.13984616884708 
1159	 1.13830460328588 
1160	 1.13673199581129 
1161	 1.13502745660062 
1162	 1.13328031368051 
1163	 1.1314420924254 
1164	 1.12965395067017 
1165	 1.12769847552438 
1166	 1.12587875380945 
1167	 1.12398390464858 
1168	 1.12235631364499 
1169	 1.12084632025721 
1170	 1.1194263525217 
1171	 1.11800781453581 
1172	 1.11662580598656 
1173	 1.11510606384957 
1174	 1.11349518329767 
1175	 1.11210176552996 
1176	 1.11074828805597 
1177	 1.10955336977231 
1178	 1.10853251947251 
1179	 1.10747680959513 
1180	 1.10648672662798 
1181	 1.10558059859507 
1182	 1.10463507249134 
1183	 1.10391660388984 
1184	 1.10332038250382 
1185	 1.10288221332367 
1186	 1.10259040753778 
1187	 1.10243536215257 
1188	 1.1024267572628 
1189	 1.10256962667078 
1190	 1.1027861683196 
1191	 1.10327475158011 
1192	 1.10384794727106 
1193	 1.10447207384674 
1194	 1.10526431141076 
1195	 1.10621950321071 
1196	 1.10720392024387 
1197	 1.10839883945329 
1198	 1.10944141399558 
1199	 1.11050418224134 
1200	 1.11151703270624 
1201	 1.1124571266199 
1202	 1.11341144236205 
1203	 1.11441348060876 
1204	 1.11528856016274 
1205	 1.11607586661578 
1206	 1.11686763839619 
1207	 1.11758793052383 
1208	 1.11827957757681 
1209	 1.11908456637737 
1210	 1.11960999219149 
1211	 1.12001289909515 
1212	 1.12039643891247 
1213	 1.12084883223209 
1214	 1.12122779336241 
1215	 1.12170357579435 
1216	 1.12230040887382 
1217	 1.122828410429 
1218	 1.1234210947892 
1219	 1.12380688848477 
1220	 1.12409576528123 
1221	 1.1243810855874 
1222	 1.12448031893336 
1223	 1.1246882248621 
1224	 1.12498574989215 
1225	 1.12524958807858 
1226	 1.12548018266505 
1227	 1.12572186330012 
1228	 1.12601982506947 
1229	 1.12621994475411 
1230	 1.1264807375412 
1231	 1.12673479806235 
1232	 1.12678141123435 
1233	 1.12666686049122 
1234	 1.12670423533103 
1235	 1.1266092624146 
1236	 1.12668758876384 
1237	 1.12695924263218 
1238	 1.12714286859285 
1239	 1.12738668142047 
1240	 1.12747370697638 
1241	 1.12747680991694 
1242	 1.12752001634228 
1243	 1.12749311781328 
1244	 1.12744958461868 
1245	 1.12742916443944 
1246	 1.12740273366968 
1247	 1.12729914111716 
1248	 1.12721360555337 
1249	 1.12722068309971 
1250	 1.12714305571427 
1251	 1.12701682968578 
1252	 1.12683577682679 
1253	 1.12662723837547 
1254	 1.12634017553311 
1255	 1.12611776253104 
1256	 1.12589269185269 
1257	 1.12564441376935 
1258	 1.12542926110574 
1259	 1.12515806565298 
1260	 1.12482415024625 
1261	 1.12449358896497 
1262	 1.12413030557611 
1263	 1.12378981774073 
1264	 1.12338059612096 
1265	 1.12310642939017 
1266	 1.12293565512838 
1267	 1.12274752390304 
1268	 1.12269643424842 
1269	 1.12254083300262 
1270	 1.12229484867114 
1271	 1.12209929156828 
1272	 1.12182248018574 
1273	 1.12167482337192 
1274	 1.12155216828436 
1275	 1.12148108928912 
1276	 1.12145590541495 
1277	 1.12146882355983 
1278	 1.12154981786255 
1279	 1.12174881212417 
1280	 1.12183410085506 
1281	 1.12196980149765 
1282	 1.12199549828551 
1283	 1.1218641812334 
1284	 1.12185620549778 
1285	 1.12190075103032 
1286	 1.12187381868947 
1287	 1.12185029666627 
1288	 1.12182475950804 
1289	 1.12167441568792 
1290	 1.12165703776411 
1291	 1.12185320039246 
1292	 1.12184838672972 
1293	 1.12166924776626 
1294	 1.12166790535322 
1295	 1.12160232115609 
1296	 1.12164344574185 
1297	 1.12172124962592 
1298	 1.12203490180602 
1299	 1.12211791043705 
1300	 1.12204563274624 
1301	 1.12214879865509 
1302	 1.12225379031925 
1303	 1.12245854112358 
1304	 1.12277180319293 
1305	 1.12310047654999 
1306	 1.12346657079055 
1307	 1.12389514415543 
1308	 1.12448293101529 
1309	 1.12491818663329 
1310	 1.12531549224005 
1311	 1.12573097978457 
1312	 1.12607234534594 
1313	 1.12642415763024 
1314	 1.12686219775322 
1315	 1.12720371163913 
1316	 1.12733192982175 
1317	 1.12766125917013 
1318	 1.12804971420486 
1319	 1.12848376296353 
1320	 1.12901791341789 
1321	 1.12965485199969 
1322	 1.13035659989858 
1323	 1.13105093285428 
1324	 1.13199721463391 
1325	 1.1331907178034 
1326	 1.13436201252943 
1327	 1.13578371584304 
1328	 1.13700211565537 
1329	 1.13831601517706 
1330	 1.13931235021326 
1331	 1.14014478090123 
1332	 1.14079872441079 
1333	 1.14118593848685 
1334	 1.141437884305 
1335	 1.14142031274166 
1336	 1.14141042376389 
1337	 1.14081844362534 
1338	 1.14094598874671 
1339	 1.14123146744322 
1340	 1.14198166271028 
1341	 1.14364588194933 
1342	 1.14533930616324 
1343	 1.14758482582667 
1344	 1.15022560404694 
1345	 1.15370391896584 
1346	 1.15787354063832 
1347	 1.16330599403482 
1348	 1.16971753037375 
1349	 1.17628934213522 
1350	 1.18418551913535 
1351	 1.19299074135797 
1352	 1.20205670437719 
1353	 1.21395222510908 
1354	 1.22767636151633 
1355	 1.24522440447692 
1356	 1.26076365382909 
1357	 1.28548925215682 
1358	 1.30378626114256 
1359	 1.33914080801164 
1360	 1.36395430225404 
1361	 1.40842393241381 
1362	 1.42226248641293 
1363	 1.45810810578083 
1364	 1.45321149306822 
1365	 1.45614452260017 
1366	 1.43481946385423 
1367	 1.43602018753362 
1368	 1.44729954703482 
1369	 1.44341718526357 
1370	 1.44222360250508 
1371	 1.44073075672553 
1372	 1.42389909555688 
1373	 1.42181703561874 
1374	 1.42901890886582 
1375	 1.44031085370471 
1376	 1.43746749991139 
1377	 1.43030454958986 
1378	 1.42439823443487 
1379	 1.40679540329418 
1380	 1.40035651012819 
1381	 1.40264643177642 
1382	 1.39937875015613 
1383	 1.39663969793205 
1384	 1.38976370085161 
1385	 1.38266864143187 
1386	 1.37461570875165 
1387	 1.36487544375444 
1388	 1.35642523896901 
1389	 1.35254178464902 
1390	 1.34058847599065 
1391	 1.3257635823668 
1392	 1.31127633219638 
1393	 1.29217203201749 
1394	 1.27663424157237 
1395	 1.26139723370345 
1396	 1.24941906697329 
1397	 1.23902528205509 
1398	 1.22955642171612 
1399	 1.22179149048146 
1400	 1.21466334530849 
1401	 1.21115449987657 
1402	 1.2029472400812 
1403	 1.19603168753613 
1404	 1.18551509798003 
1405	 1.17260540491017 
1406	 1.1586154044547 
1407	 1.14500772610824 
1408	 1.13110881566366 
1409	 1.11799456418162 
1410	 1.10492685834539 
1411	 1.09305270544425 
1412	 1.082245026403 
1413	 1.07179363562002 
1414	 1.06105105238306 
1415	 1.0536052207837 
1416	 1.04711648089646 
1417	 1.04160953361357 
1418	 1.03817471626576 
1419	 1.03345171028957 
1420	 1.02850431451502 
1421	 1.02407176918347 
1422	 1.01959487925339 
1423	 1.01555738626385 
1424	 1.01181962261911 
1425	 1.00807335052277 
1426	 1.00446642097806 
1427	 1.00064932805615 
1428	 0.996395783484274 
1429	 0.992635599024359 
1430	 0.98842081177307 
1431	 0.985039631600808 
1432	 0.982086362928085 
1433	 0.979447040995866 
1434	 0.977562239023379 
1435	 0.975342338392509 
1436	 0.973517903919646 
1437	 0.971212409974222 
1438	 0.968600377216335 
1439	 0.965957186056461 
1440	 0.963522594267675 
1441	 0.960544816591295 
1442	 0.95709755952858 
1443	 0.954010536977031 
1444	 0.950810021689965 
1445	 0.94725897894867 
1446	 0.944439978822911 
1447	 0.942106631496388 
1448	 0.939975027043677 
1449	 0.938112321819958 
1450	 0.936544785743015 
1451	 0.935088891163546 
1452	 0.934211747985415 
1453	 0.933646684277292 
1454	 0.933277631052342 
1455	 0.933168875583494 
1456	 0.933352998070235 
1457	 0.933419303818962 
1458	 0.934390120905951 
1459	 0.935881481254476 
1460	 0.93786084085323 
1461	 0.940444451413819 
1462	 0.943798751458674 
1463	 0.947807126187011 
1464	 0.952842956862846 
1465	 0.959639614875185 
1466	 0.966073334605706 
1467	 0.97373346643999 
1468	 0.980333628145291 
1469	 0.986458703683277 
1470	 0.992009213826339 
1471	 0.99682592043391 
1472	 1.00074018924288 
1473	 1.0036357576919 
1474	 1.00595512628899 
1475	 1.00713584667935 
1476	 1.00819962113313 
1477	 1.00882011233959 
1478	 1.00916404292951 
1479	 1.00910093886829 
1480	 1.00894294041526 
1481	 1.00858215435298 
1482	 1.00807918909997 
1483	 1.00751061620021 
1484	 1.00673937459537 
1485	 1.00585493320738 
1486	 1.00475618054305 
1487	 1.0034895957601 
1488	 1.00217098444738 
1489	 1.00053071712316 
1490	 0.998879563147753 
1491	 0.997111896246665 
1492	 0.995294288648406 
1493	 0.993876464836418 
1494	 0.992532217662158 
1495	 0.991212206554456 
1496	 0.990084239830932 
1497	 0.988785624415349 
1498	 0.987405071738646 
1499	 0.985979130105002 
1500	 0.984491671325267 
1501	 0.983045914838115 
1502	 0.981553996647172 
1503	 0.979964192588597 
1504	 0.978425247073762 
1505	 0.976686812438101 
1506	 0.974864289949557 
1507	 0.972840313136713 
1508	 0.970582894075082 
1509	 0.968506978142107 
1510	 0.966240081442271 
1511	 0.964233381445159 
1512	 0.962338303536558 
1513	 0.960666334468131 
1514	 0.959023020151131 
1515	 0.957708028721699 
1516	 0.956617053217791 
1517	 0.95579845740418 
1518	 0.955231967515686 
1519	 0.95482119418063 
1520	 0.95469700679568 
1521	 0.954657636081329 
1522	 0.954824456024304 
1523	 0.954976409487052 
1524	 0.955351287454903 
1525	 0.95552723677027 
1526	 0.955696149425391 
1527	 0.955717633227839 
1528	 0.955603476724029 
1529	 0.95546760073855 
1530	 0.955319235367928 
1531	 0.954962792250465 
1532	 0.954593846617277 
1533	 0.953922700108921 
1534	 0.95292097775181 
1535	 0.951899905677142 
1536	 0.950582748967563 
1537	 0.949407634362525 
1538	 0.948285992631675 
1539	 0.947069782545764 
1540	 0.945872639555179 
1541	 0.944605933062439 
1542	 0.943060091702243 
1543	 0.941799581430296 
1544	 0.940581386125073 
1545	 0.939546713398038 
1546	 0.938543883134749 
1547	 0.937968309719662 
1548	 0.937682781365367 
1549	 0.937593982654619 
1550	 0.937891265085228 
1551	 0.938369345670632 
1552	 0.938986149994904 
1553	 0.93985161575532 
1554	 0.941164756881415 
1555	 0.942423853285735 
1556	 0.943870422843353 
1557	 0.945274240513353 
1558	 0.946673010283439 
1559	 0.948087962150098 
1560	 0.949560588969383 
1561	 0.950982400435386 
1562	 0.952568713234262 
1563	 0.953857228186132 
1564	 0.954943129425453 
1565	 0.955926291164455 
1566	 0.956790694985882 
1567	 0.957756310465923 
1568	 0.958589669205814 
1569	 0.959535802244722 
1570	 0.960153105784759 
1571	 0.960482448030869 
1572	 0.960976071260798 
1573	 0.961392470957483 
1574	 0.961847744692825 
1575	 0.962427060024772 
1576	 0.962638752833278 
1577	 0.962648831074184 
1578	 0.962755743961935 
1579	 0.962637971971322 
1580	 0.962790339388751 
1581	 0.963194597962217 
1582	 0.963245744197263 
1583	 0.963204102192103 
1584	 0.963172110529804 
1585	 0.962943135930626 
1586	 0.962911675753495 
1587	 0.963004103311261 
1588	 0.963022719808703 
1589	 0.963016778199324 
1590	 0.963087351765607 
1591	 0.963260163542632 
1592	 0.963199250586642 
1593	 0.963086158358917 
1594	 0.962964905912983 
1595	 0.96268410009718 
1596	 0.962459642685406 
1597	 0.962368353570437 
1598	 0.962000061490385 
1599	 0.961422049887434 
1600	 0.960935319865584 
1601	 0.960346180682194 
1602	 0.959840011665202 
1603	 0.959469292750568 
1604	 0.958835547067809 
1605	 0.958178921908594 
1606	 0.957256092611881 
1607	 0.956053872197194 
1608	 0.954933809659637 
1609	 0.953865504362839 
1610	 0.952292400921554 
1611	 0.950617199715158 
1612	 0.948527805388444 
1613	 0.94586794808087 
1614	 0.94336382432804 
1615	 0.940828752375183 
1616	 0.937942634938778 
1617	 0.934910152146186 
1618	 0.931592976476409 
1619	 0.927856834950212 
1620	 0.92426494311691 
1621	 0.92049998725479 
1622	 0.916844110070015 
1623	 0.913199756483083 
1624	 0.90955934217842 
1625	 0.905893350236764 
1626	 0.902345176255888 
1627	 0.898688189510391 
1628	 0.895474378717794 
1629	 0.892387252445114 
1630	 0.889631954359792 
1631	 0.887379955075953 
1632	 0.884767484208778 
1633	 0.882176751582006 
1634	 0.879669216007628 
1635	 0.87699422959567 
1636	 0.874628692729505 
1637	 0.872606913633243 
1638	 0.870303588726144 
1639	 0.868060478506804 
1640	 0.865563529577123 
1641	 0.862923364541115 
1642	 0.860208442934342 
1643	 0.857516124802491 
1644	 0.854278086259342 
1645	 0.850964886505518 
1646	 0.846877362705743 
1647	 0.842321109262085 
1648	 0.837021698968034 
1649	 0.831145620443765 
1650	 0.824583304934585 
1651	 0.817295114060256 
1652	 0.809443900544405 
1653	 0.800861508890895 
1654	 0.792102470941248 
1655	 0.782669557317698 
1656	 0.773304072586888 
1657	 0.763660134664971 
1658	 0.753816590536266 
1659	 0.743998372021677 
1660	 0.734213428910173 
1661	 0.724616661372961 
1662	 0.715593111871029 
1663	 0.706872318465708 
1664	 0.698521261334534 
1665	 0.690512307050572 
1666	 0.682775352162115 
1667	 0.675287602607034 
1668	 0.668218606721762 
1669	 0.661642508844827 
1670	 0.655533945631477 
1671	 0.649862125492893 
1672	 0.644729527712733 
1673	 0.640277430862091 
1674	 0.63626926678677 
1675	 0.632901808554934 
1676	 0.630286231937652 
1677	 0.628173623352186 
1678	 0.626704741320413 
1679	 0.625819385312943 
1680	 0.625547207369631 
1681	 0.625792303284593 
1682	 0.626516792986275 
1683	 0.627897910297821 
1684	 0.629763674756597 
1685	 0.631957430205001 
1686	 0.63452420986611 
1687	 0.637344413088499 
1688	 0.640484375371598 
1689	 0.643898679686948 
1690	 0.647671344624763 
1691	 0.65154298939886 
1692	 0.655532958822481 
1693	 0.659711566986607 
1694	 0.664185706293608 
1695	 0.668684954348301 
1696	 0.673341157285328 
1697	 0.678059719949088 
1698	 0.682939934298355 
1699	 0.687646669319049 
1700	 0.692510157107411 
1701	 0.69711222386858 
1702	 0.701633992788132 
1703	 0.705811664687239 
1704	 0.709981485757955 
1705	 0.713384868035923 
1706	 0.716184529748878 
1707	 0.718700409462767 
1708	 0.720656997520044 
1709	 0.722244286070365 
1710	 0.723468900840023 
1711	 0.724343668983454 
1712	 0.724708871878247 
1713	 0.724780057065599 
1714	 0.724462960947786 
1715	 0.723978948015373 
1716	 0.723144424122821 
1717	 0.722152718589828 
1718	 0.720742650599822 
1719	 0.719629373079614 
1720	 0.718329938601352 
1721	 0.717298378033414 
1722	 0.716535904792013 
1723	 0.715792679225849 
1724	 0.715007005600881 
1725	 0.714634035130015 
1726	 0.714456089979092 
1727	 0.71470259467748 
1728	 0.715312225682468 
1729	 0.716124117087908 
1730	 0.717239081087857 
1731	 0.718664692040824 
1732	 0.720484931836996 
1733	 0.722603497333459 
1734	 0.724863904255955 
1735	 0.727244193419316 
1736	 0.7296346313292 
1737	 0.732000004356961 
1738	 0.734523852707396 
1739	 0.736958988810324 
1740	 0.739102604779259 
1741	 0.740818419206681 
1742	 0.742155513760844 
1743	 0.743516585051916 
1744	 0.744889446174745 
1745	 0.746170932583219 
1746	 0.747528605216706 
1747	 0.748382353358842 
1748	 0.748790735713257 
1749	 0.749206976222352 
1750	 0.749513895945899 
1751	 0.749559267054933 
1752	 0.749744853910385 
1753	 0.750155300510799 
1754	 0.75017975009422 
1755	 0.750309077823644 
1756	 0.75057384870145 
1757	 0.750815356621048 
1758	 0.751368077344629 
1759	 0.752348987490847 
1760	 0.753163449092049 
1761	 0.753865022568791 
1762	 0.754894281782153 
1763	 0.755966345269082 
1764	 0.75745287503167 
1765	 0.759382532109749 
1766	 0.761303664975808 
1767	 0.763582934844732 
1768	 0.765688394957844 
1769	 0.767872067016352 
1770	 0.770069738235045 
1771	 0.772240069744926 
1772	 0.77454794804263 
1773	 0.77704101107539 
1774	 0.779270002595391 
1775	 0.781350799836655 
1776	 0.782867846911372 
1777	 0.784351250146566 
1778	 0.785750986034918 
1779	 0.786656128248609 
1780	 0.787524310630366 
1781	 0.788337343220812 
1782	 0.788763149464967 
1783	 0.789433426918751 
1784	 0.79052110399197 
1785	 0.791204160724931 
1786	 0.791754919837424 
1787	 0.792871509419888 
1788	 0.79396474245509 
1789	 0.794970716603679 
1790	 0.796545835095739 
1791	 0.798006977045683 
1792	 0.799133818506322 
1793	 0.800831803977553 
1794	 0.803110339003176 
1795	 0.805958057298114 
1796	 0.808710195975026 
1797	 0.811502395571152 
1798	 0.815399343315956 
1799	 0.818627267323269 
1800	 0.823277704087549 
1801	 0.811872244827046 
1802	 0.817128943143888 
1803	 0.821408268444677 
1804	 0.825995305222846 
1805	 0.830888318508159 
1806	 0.835879177141499 
1807	 0.841067317448054 
1808	 0.848224950070067 
1809	 0.852873583954958 
1810	 0.856743612313215 
1811	 0.85851507892023 
1812	 0.861791445014854 
1813	 0.86207312434783 
1814	 0.866149778763024 
1815	 0.874514071369418 
1816	 0.881137500593791 
1817	 0.889944960377227 
1818	 0.89749689171679 
1819	 0.904186676623756 
1820	 0.908508037487975 
1821	 0.913540659858266 
1822	 0.917262094404304 
1823	 0.920717582943363 
1824	 0.919871965848449 
1825	 0.924282167371612 
1826	 0.932379495997082 
1827	 0.940733796005955 
1828	 0.952333780820249 
1829	 0.976365333367713 
1830	 0.99455929368168 
1831	 1.00757729916925 
1832	 1.02780429893902 
1833	 1.0576072759784 
1834	 1.0784469144356 
1835	 1.0711809410233 
1836	 1.0730499876958 
1837	 1.01955745486009 
1838	 0.998388862128634 
1839	 0.994564455263258 
1840	 1.03381311042354 
1841	 1.0311953426874 
1842	 1.02572727693396 
1843	 1.02679787731525 
1844	 1.0093662267194 
1845	 1.00674456074383 
1846	 1.02900582395165 
1847	 1.03719537075569 
1848	 1.04137704183761 
1849	 1.02082093105638 
1850	 1.06464597821458 
1851	 1.1617493779131 
1852	 1.19997849712758 
1853	 1.28602189464163 
1854	 1.3093085202755 
1855	 1.24731966280266 
1856	 1.19877788540235 
1857	 1.13348212942654 
1858	 1.10343913372361 
1859	 1.07658445219707 
1860	 1.04422098095099 
1861	 1.02204249294276 
1862	 0.987202917620484 
1863	 1.00057402137112 
1864	 1.04977944693183 
1865	 1.07909441711368 
1866	 1.14479787549089 
1867	 1.24111678891596 
1868	 1.2693637348528 
1869	 1.23835263909447 
1870	 1.22095827451172 
1871	 1.18923931965463 
1872	 1.15752174467157 
1873	 1.10695432714678 
1874	 1.08729880451137 
1875	 1.09063113824641 
1876	 1.07361684829108 
1877	 1.05765199850962 
1878	 1.04709765055531 
1879	 1.04079492931688 
1880	 1.02436179208471 
1881	 1.02703538641779 
1882	 1.05414323546865 
1883	 1.05156359210136 
1884	 1.03922509820592 
1885	 1.03436859311423 
1886	 1.02970026051702 
1887	 1.00602133065374 
1888	 0.998595962295375 
1889	 1.00134564385058 
1890	 0.989049048076867 
1891	 0.964836716154076 
1892	 0.950290842404117 
1893	 0.925220549145046 
1894	 0.914347259021223 
1895	 0.918016115742643 
1896	 0.915976727555313 
1897	 0.916565509058059 
1898	 0.922145870666731 
1899	 0.940965178476638 
1900	 0.958562221807771 
1901	 0.964261251379264 
1902	 0.971806527070239 
1903	 0.978015986885977 
1904	 0.953613151230605 
1905	 0.943713414031732 
1906	 0.95828631671481 
1907	 0.951654650582107 
1908	 0.934533991967257 
1909	 0.915880138385312 
1910	 0.903179754104748 
1911	 0.895659801034053 
1912	 0.883331044756909 
1913	 0.873393694059051 
1914	 0.860166529099865 
1915	 0.847123358162351 
1916	 0.835024436041995 
1917	 0.823184608157056 
1918	 0.812705323776876 
1919	 0.797220975582715 
1920	 0.792182536055886 
1921	 0.791510502000475 
1922	 0.790325597343806 
1923	 0.78821006993997 
1924	 0.789029712670176 
1925	 0.784901616282424 
1926	 0.776646153734088 
1927	 0.772419147757754 
1928	 0.768439611180913 
1929	 0.766874968184919 
1930	 0.765649323877989 
1931	 0.757182862029247 
1932	 0.751824816029111 
1933	 0.74945777900931 
1934	 0.744404861420357 
1935	 0.740524954800764 
1936	 0.736715680825589 
1937	 0.729940623431818 
1938	 0.72617694673563 
1939	 0.724403167645281 
1940	 0.721901631647731 
1941	 0.72109355377336 
1942	 0.718972698595407 
1943	 0.717442054261241 
1944	 0.717375562530109 
1945	 0.714866255957331 
1946	 0.713813577304164 
1947	 0.711925955875685 
1948	 0.708091499632268 
1949	 0.7058312801329 
1950	 0.703900897986907 
1951	 0.702663924019633 
1952	 0.702470052335108 
1953	 0.704096678945525 
1954	 0.703632741421319 
1955	 0.703238504104343 
1956	 0.702196941216861 
1957	 0.700216894600654 
1958	 0.699092657499552 
1959	 0.698371741007009 
1960	 0.697554402087975 
1961	 0.697377349715677 
1962	 0.696381204533398 
1963	 0.694036391102926 
1964	 0.692946958038492 
1965	 0.692009955712103 
1966	 0.691855709480554 
1967	 0.692226124583054 
1968	 0.692063253254319 
1969	 0.691613680141545 
1970	 0.690092551827941 
1971	 0.689677992619727 
1972	 0.689474288285572 
1973	 0.689659018754187 
1974	 0.690399232673148 
1975	 0.690946337389142 
1976	 0.691272179539235 
1977	 0.691677421039734 
1978	 0.69194388236114 
1979	 0.692217148174103 
1980	 0.692471542545419 
1981	 0.692638291599072 
1982	 0.692700291321582 
1983	 0.692674832165235 
1984	 0.6923817025705 
1985	 0.692279876579814 
1986	 0.692594526898631 
1987	 0.692981949130553 
1988	 0.693286526213434 
1989	 0.693658232525263 
1990	 0.693980607870948 
1991	 0.693549359061479 
1992	 0.69373430414402 
1993	 0.69392341531439 
1994	 0.69314240219947 
1995	 0.69286609804341 
1996	 0.693138682173344 
1997	 0.692773587966307 
1998	 0.691828383123929 
1999	 0.691461988469387 
2000	 0.690202450584654 
2001	 0.689056851563285 
2002	 0.68939459422947 
2003	 0.689144686259035 
2004	 0.688585202810982 
2005	 0.689059244915296 
2006	 0.688566862300488 
2007	 0.686947290547063 
2008	 0.685600841574919 
2009	 0.685855362857107 
2010	 0.684516212728461 
2011	 0.683218305016063 
2012	 0.683724389932445 
2013	 0.682887784569629 
2014	 0.681144658264777 
2015	 0.68042028594999 
2016	 0.679211842334008 
2017	 0.677137312474369 
2018	 0.675760601699162 
2019	 0.674281455578958 
2020	 0.672703242911715 
2021	 0.670671414608199 
2022	 0.669150813989573 
2023	 0.667867508165304 
2024	 0.666810165371599 
2025	 0.665531663638825 
2026	 0.664199292586519 
2027	 0.663009017984891 
2028	 0.661460002164782 
2029	 0.660015607365761 
2030	 0.658656886726105 
2031	 0.657337243549774 
2032	 0.656254824373291 
2033	 0.655264753733404 
2034	 0.65431762729344 
2035	 0.653599619676924 
2036	 0.652785070233203 
2037	 0.651729433857965 
2038	 0.651076476964323 
2039	 0.650406195109684 
2040	 0.649617677823556 
2041	 0.648858979550525 
2042	 0.647872099818801 
2043	 0.647131629754141 
2044	 0.646231469529464 
2045	 0.645415620086973 
2046	 0.644801421442888 
2047	 0.64413290437559 
2048	 0.643114099137532 
2049	 0.642445198399988 
2050	 0.642216752964433 
2051	 0.642313955071285 
2052	 0.641786545574878 
2053	 0.641686942193349 
2054	 0.641609680925105 
2055	 0.640414094676563 
2056	 0.639645377452265 
2057	 0.638794225023622 
2058	 0.637400040796582 
2059	 0.636140458276288 
2060	 0.634960259089375 
2061	 0.633834605453984 
2062	 0.632331875437172 
2063	 0.630880596267061 
2064	 0.630070745926279 
2065	 0.629037067363221 
2066	 0.627690033890461 
2067	 0.626212778888148 
2068	 0.624136228121907 
2069	 0.622527071703331 
2070	 0.621405153456548 
2071	 0.62007231443919 
2072	 0.618734038046545 
2073	 0.61750651959431 
2074	 0.616032287098308 
2075	 0.614535422961434 
2076	 0.613262264882075 
2077	 0.612184837882561 
2078	 0.610443650637113 
2079	 0.608534176170532 
2080	 0.607330706595159 
2081	 0.606167410910466 
2082	 0.605684473128959 
2083	 0.605547892990807 
2084	 0.604868087340317 
2085	 0.603841075902108 
2086	 0.602577309668616 
2087	 0.601399923026808 
2088	 0.599919885771733 
2089	 0.598814326161817 
2090	 0.598482132954096 
2091	 0.597899317439024 
2092	 0.596898741774454 
2093	 0.596094181583513 
2094	 0.59505562089871 
2095	 0.594535535203696 
2096	 0.594644284401452 
2097	 0.594701054829362 
2098	 0.5943793528835 
2099	 0.593098939676174 
2100	 0.591854425511557 
2101	 0.59063005254958 
2102	 0.589329179583336 
2103	 0.587874695953008 
2104	 0.586918801979831 
2105	 0.585608991538754 
2106	 0.584207623266523 
2107	 0.582930476508197 
2108	 0.581001058297299 
2109	 0.578984823489153 
2110	 0.576422052573468 
2111	 0.573526193567747 
2112	 0.571232076251002 
2113	 0.568559504984341 
2114	 0.56582836639743 
2115	 0.562588675042735 
2116	 0.559017812325113 
2117	 0.555570881421233 
2118	 0.552028170920772 
2119	 0.548070977879388 
2120	 0.544042650660915 
2121	 0.539943112125621 
2122	 0.535578344620212 
2123	 0.53155682578782 
2124	 0.527950724647163 
2125	 0.523618599012761 
2126	 0.51807516575817 
2127	 0.511873391024587 
2128	 0.504868878044829 
2129	 0.49782164482877 
2130	 0.491247688112299 
2131	 0.48403038295458 
2132	 0.476767491441692 
2133	 0.469227399146585 
2134	 0.461778606901501 
2135	 0.453758078281989 
2136	 0.446798883384007 
2137	 0.440357311208359 
2138	 0.43440109104559 
2139	 0.429410169551719 
2140	 0.425217817511631 
2141	 0.421778971935836 
2142	 0.419660383237112 
2143	 0.418903701482907 
2144	 0.419082872312404 
2145	 0.419962133612009 
2146	 0.421884449798093 
2147	 0.424119284317053 
2148	 0.425704290484815 
2149	 0.427354908162649 
2150	 0.428593495911285 
2151	 0.428914433027127 
2152	 0.427887824589335 
2153	 0.427715199249927 
2154	 0.427609606948579 
2155	 0.426484752987595 
2156	 0.425753276325601 
2157	 0.424188850911104 
2158	 0.421483890280295 
2159	 0.418973526624598 
2160	 0.416751228563609 
2161	 0.414963227721977 
2162	 0.413182551273328 
2163	 0.411370448344391 
2164	 0.40968893420002 
2165	 0.408469547499589 
2166	 0.408032867053734 
2167	 0.408609495779441 
2168	 0.409524822666034 
2169	 0.411002914419115 
2170	 0.413093009089911 
2171	 0.415859422741531 
2172	 0.418771144266736 
2173	 0.422123618707048 
2174	 0.425372432071356 
2175	 0.427210939506966 
2176	 0.428578055021411 
2177	 0.429875198857469 
2178	 0.430093979193408 
2179	 0.430667663448834 
2180	 0.431496469380547 
2181	 0.431891232047748 
2182	 0.431953846821025 
2183	 0.431605763676373 
2184	 0.431459140284855 
2185	 0.430646006660551 
2186	 0.429874887567053 
2187	 0.430138194859806 
2188	 0.431068852271529 
2189	 0.432126863842914 
2190	 0.433700918434288 
2191	 0.436244073648846 
2192	 0.438181281890774 
2193	 0.439913800958753 
2194	 0.441907259197266 
2195	 0.442999876775167 
2196	 0.443792208958791 
2197	 0.444388455160276 
2198	 0.444411040150534 
2199	 0.444333311692422 
2200	 0.443855809987555 
2201	 0.443216506726966 
2202	 0.442450958239961 
2203	 0.441872997016039 
2204	 0.44138136514638 
2205	 0.440769414487981 
2206	 0.439768913980595 
2207	 0.43804311631877 
2208	 0.436753516418352 
2209	 0.435346596989397 
2210	 0.43418500129574 
2211	 0.433263861091006 
2212	 0.43277302555866 
2213	 0.431477000494159 
2214	 0.43020719022821 
2215	 0.429629086119569 
2216	 0.428964791682621 
2217	 0.428597540996085 
2218	 0.428881287919699 
2219	 0.428119467134348 
2220	 0.427070728062096 
2221	 0.426379769142207 
2222	 0.425123444582073 
2223	 0.424233167543065 
2224	 0.423121178277031 
2225	 0.42173115093405 
2226	 0.419929256929408 
2227	 0.417434335170364 
2228	 0.414776476034754 
2229	 0.411290898314654 
2230	 0.407337383001336 
2231	 0.403791947484477 
2232	 0.400583341454695 
2233	 0.396662801060218 
2234	 0.39240616727476 
2235	 0.38879330872574 
2236	 0.384428424238908 
2237	 0.3790910188686 
2238	 0.374836028859181 
2239	 0.36916550774258 
2240	 0.362280408907965 
2241	 0.356121730151381 
2242	 0.349645741194777 
2243	 0.343288282552774 
2244	 0.337972178127899 
2245	 0.332183346500109 
2246	 0.325928453866149 
2247	 0.320781391730442 
2248	 0.315835545924334 
2249	 0.311039241358707 
2250	 0.306492651816835 
2251	 0.301206259394995 
2252	 0.295530537353469 
2253	 0.290284780851006 
2254	 0.285217793357397 
2255	 0.280331400830387 
2256	 0.276400284643527 
2257	 0.273311642225414 
2258	 0.270541287496299 
2259	 0.268111347552237 
2260	 0.26599229245295 
2261	 0.263339305834652 
2262	 0.260397363359967 
2263	 0.257808533684573 
2264	 0.256148410864252 
2265	 0.254808412326028 
2266	 0.253719932046594 
2267	 0.252688200354119 
2268	 0.251468702947718 
2269	 0.251156575056439 
2270	 0.251492289450894 
2271	 0.252202291186267 
2272	 0.253701154151254 
2273	 0.254798319589166 
2274	 0.255372170578223 
2275	 0.256789384530115 
2276	 0.258393156761668 
2277	 0.259592327842601 
2278	 0.261278421506066 
2279	 0.262785733282636 
2280	 0.263182638214163 
2281	 0.263874321142417 
2282	 0.265288049883635 
2283	 0.266590396973437 
2284	 0.267938519069317 
2285	 0.268027369559027 
2286	 0.268025941925054 
2287	 0.267152568230291 
2288	 0.266989186707856 
2289	 0.266473000294279 
2290	 0.267007932664233 
2291	 0.268336823882896 
2292	 0.268233346612356 
2293	 0.26751566955534 
2294	 0.266807387475235 
2295	 0.265332062720503 
2296	 0.263110609538292 
2297	 0.261850584870186 
2298	 0.261253456225639 
2299	 0.260878439657844 
2300	 0.261448071724296 
2301	 0.261285810266561 
2302	 0.261931733265198 
2303	 0.262893986132566 
2304	 0.261610816158339 
2305	 0.261548894189515 
2306	 0.261239507405123 
2307	 0.260418862865915 
2308	 0.261922967079309 
2309	 0.262821865501733 
2310	 0.262806124871104 
2311	 0.263855841925549 
2312	 0.265132565802984 
2313	 0.265982828673599 
2314	 0.267970301109115 
2315	 0.269670838317122 
2316	 0.269323374406189 
2317	 0.26932864916697 
2318	 0.270149503226377 
2319	 0.27011386535823 
2320	 0.269984527389449 
2321	 0.270243706717158 
2322	 0.270979946101459 
2323	 0.271343945441635 
2324	 0.271792501020802 
2325	 0.271397464292173 
2326	 0.271427992957799 
2327	 0.271358306845958 
2328	 0.270532441944192 
2329	 0.271744224403998 
2330	 0.272939138123408 
2331	 0.271219397692082 
2332	 0.270391646874471 
2333	 0.269259871411069 
2334	 0.266545846249909 
2335	 0.266071752685109 
2336	 0.265665866791627 
2337	 0.264363571524706 
2338	 0.265073372175322 
2339	 0.264791211768554 
2340	 0.262632020699415 
2341	 0.260877994942601 
2342	 0.258451188975978 
2343	 0.256451273587593 
2344	 0.25573192546014 
2345	 0.255787716626402 
2346	 0.256240622341419 
2347	 0.255793672526913 
2348	 0.254435452983189 
2349	 0.253848918460615 
2350	 0.25297991600428 
2351	 0.252955671634362 
2352	 0.254020645102801 
2353	 0.253150898771112 
2354	 0.2529047408138 
2355	 0.252440502360867 
2356	 0.25186806451187 
2357	 0.253165914247109 
2358	 0.254961660238534 
2359	 0.25596618215294 
2360	 0.256208739484546 
2361	 0.256920723759093 
2362	 0.255977932323929 
2363	 0.254516092819921 
2364	 0.254945206184416 
2365	 0.254742216821352 
2366	 0.254889699415761 
2367	 0.255931315644643 
2368	 0.256099806952008 
2369	 0.257506102145109 
2370	 0.258464060915119 
2371	 0.258952390547196 
2372	 0.259991471989041 
2373	 0.260560900834237 
2374	 0.261876616582587 
2375	 0.265205845853677 
2376	 0.265322860962047 
2377	 0.264236019387924 
2378	 0.26451978052294 
2379	 0.261749238596607 
2380	 0.262425421403565 
2381	 0.266971125608215 
2382	 0.267488462932438 
2383	 0.268516527528753 
2384	 0.2692122398964 
2385	 0.266983835114693 
2386	 0.266602835644866 
2387	 0.267121816415805 
2388	 0.265273048826859 
2389	 0.262717861217946 
2390	 0.262544270193511 
2391	 0.261481434213721 
2392	 0.261955951986731 
2393	 0.265426186394255 
2394	 0.265661372229964 
2395	 0.265525533820443 
2396	 0.264356324430745 
2397	 0.260124391515498 
2398	 0.260327133201735 
2399	 0.262424739983332 
2400	 0.263251325524862 
2401	 0.267783049544691 
2402	 0.266108682269786 
2403	 0.261931819000336 
2404	 0.261014043232431 
2405	 0.258978146635526 
2406	 0.260351296154117 
2407	 0.263046348165966 
2408	 0.26142336926322 
2409	 0.259814420233419 
2410	 0.260838232521366 
2411	 0.2642810400182 
2412	 0.268722171842649 
2413	 0.270967743416236 
2414	 0.272754554159775 
2415	 0.272553255921421 
2416	 0.271336147319027 
2417	 0.275627019712017 
2418	 0.274581301854294 
2419	 0.266814539143284 
2420	 0.26254799739033 
2421	 0.259960726477977 
2422	 0.26000500661062 
2423	 0.263927749606246 
2424	 0.266155504765694 
2425	 0.264652561938219 
2426	 0.264203946086739 
2427	 0.264990985231552 
2428	 0.263096529854307 
2429	 0.257958434088454 
2430	 0.252809312682426 
2431	 0.248756252805281 
2432	 0.246383116095397 
2433	 0.254047824467399 
2434	 0.25701233471521 
2435	 0.25889970243945 
2436	 0.26194095622389 
2437	 0.26237688041441 
2438	 0.26471779430468 
2439	 0.272324637347574 
2440	 0.273001340123369 
2441	 0.271739179652466 
2442	 0.268593554871773 
2443	 0.25661555256886 
2444	 0.250866594754429 
2445	 0.24705262278698 
2446	 0.241676734432364 
2447	 0.236948719902003 
2448	 0.234221596848758 
2449	 0.232695729736466 
2450	 0.231062537810138 
2451	 0.232556699172362 
2452	 0.234566280551226 
2453	 0.239407140164421 
2454	 0.237191205188477 
2455	 0.231351789419303 
2456	 0.227894843266604 
2457	 0.21773685098166 
2458	 0.215016927900752 
2459	 0.218812575663855 
2460	 0.220945163114228 
2461	 0.228614597786264 
2462	 0.230906137657959 
2463	 0.229542045676147 
2464	 0.228416313008394 
2465	 0.220295005337449 
2466	 0.217356798952196 
2467	 0.219563247375898 
2468	 0.221101699715217 
2469	 0.226176269950872 
2470	 0.230261275655924 
2471	 0.232956626802849 
2472	 0.230801214421939 
2473	 0.224359778269071 
2474	 0.226596674968084 
2475	 0.232264218714524 
2476	 0.237570966733535 
2477	 0.250616878246817 
2478	 0.259675827974642 
2479	 0.261319825296467 
2480	 0.264346117856495 
2481	 0.270653643317565 
2482	 0.275990268803275 
2483	 0.270636789004123 
2484	 0.285657588058941 
2485	 0.3331356603325 
2486	 0.353170905426657 
2487	 0.356830746001379 
2488	 0.356654974643593 
2489	 0.349820506729431 
2490	 0.3786296276851 
2491	 0.438351929626196 
2492	 0.402637384019231 
2493	 0.336328828938021 
2494	 0.294769361118435 
2495	 0.258640060966161 
2496	 0.280206069635303 
2497	 0.335988614962858 
2498	 0.375821774782717 
2499	 0.356855143050447 
2500	 0.313737539736367 
