Wavelength	ref00049.asd
350	 7.11524612651157E-02 
351	 7.15368958000016E-02 
352	 7.13990651187331E-02 
353	 7.15111009526859E-02 
354	 7.18469534717014E-02 
355	 7.15611296788471E-02 
356	 7.07585881934182E-02 
357	 7.18439692651532E-02 
358	 7.24073324356193E-02 
359	 7.22340122488377E-02 
360	 0.071946705071562 
361	 7.25200289477322E-02 
362	 7.23381198688386E-02 
363	 7.16316874824376E-02 
364	 7.17686806689594E-02 
365	 7.21480111115334E-02 
366	 7.20584705564509E-02 
367	 7.15562521372858E-02 
368	 7.17390173316358E-02 
369	 7.19273717227519E-02 
370	 7.20622825496063E-02 
371	 7.22371800152134E-02 
372	 7.26390978266968E-02 
373	 7.23604989745489E-02 
374	 7.17742886115451E-02 
375	 0.071814618325609 
376	 0.072150945745057 
377	 0.072417413454858 
378	 7.25066173721562E-02 
379	 7.26209950419606E-02 
380	 7.23421627356117E-02 
381	 7.26362777602123E-02 
382	 0.073846935288837 
383	 7.38908340379828E-02 
384	 7.40978430631795E-02 
385	 7.44404337930287E-02 
386	 7.44164429320554E-02 
387	 0.074530827621499 
388	 7.47284176645947E-02 
389	 0.074816751015935 
390	 7.45695688281346E-02 
391	 7.52410755168375E-02 
392	 0.076005268346058 
393	 7.62230071367232E-02 
394	 7.65443335346406E-02 
395	 7.67839184136007E-02 
396	 7.70096062184118E-02 
397	 7.72477843812913E-02 
398	 7.69183810958442E-02 
399	 7.65815163356579E-02 
400	 7.66437252890866E-02 
401	 7.72302482032608E-02 
402	 7.71053439587018E-02 
403	 7.71307321490026E-02 
404	 7.77831939079388E-02 
405	 7.81535841858262E-02 
406	 7.84288415656616E-02 
407	 7.86983827729774E-02 
408	 7.90178449733782E-02 
409	 0.079337411120678 
410	 7.94831406379648E-02 
411	 7.95332395108825E-02 
412	 7.97588837238673E-02 
413	 7.97918684807303E-02 
414	 8.00410257392761E-02 
415	 8.06119863015645E-02 
416	 8.07396345486308E-02 
417	 8.08983053548917E-02 
418	 8.10656355260057E-02 
419	 8.11347164710205E-02 
420	 8.14062022089429E-02 
421	 8.17278445677933E-02 
422	 8.19837451813206E-02 
423	 8.21192135817837E-02 
424	 8.21282745869196E-02 
425	 8.23572605282321E-02 
426	 8.28918154841977E-02 
427	 8.31393800621871E-02 
428	 8.35332902857716E-02 
429	 8.38239326904856E-02 
430	 8.37310928794322E-02 
431	 8.40532862287058E-02 
432	 8.42759387656165E-02 
433	 8.42911588518986E-02 
434	 8.43950852298049E-02 
435	 8.45593864517266E-02 
436	 8.47216129680682E-02 
437	 8.48554607685591E-02 
438	 8.50132460803334E-02 
439	 8.53251879912915E-02 
440	 8.55364142117179E-02 
441	 8.54011676423475E-02 
442	 8.54790103454088E-02 
443	 0.0856722626213 
444	 8.58769106280965E-02 
445	 8.60306809398706E-02 
446	 8.62241770596948E-02 
447	 8.64111635729611E-02 
448	 8.65395270732144E-02 
449	 8.65846286558612E-02 
450	 8.67108737672911E-02 
451	 8.69176702908329E-02 
452	 8.71305546825184E-02 
453	 8.73349659812575E-02 
454	 8.75324349135758E-02 
455	 8.76881187308459E-02 
456	 0.087726819007493 
457	 8.78719598628244E-02 
458	 8.80162393739626E-02 
459	 8.80601894553795E-02 
460	 8.81593682721666E-02 
461	 8.82975529544168E-02 
462	 0.088406131955648 
463	 8.84257107204838E-02 
464	 8.86449834526863E-02 
465	 8.89105271772306E-02 
466	 8.91087625983633E-02 
467	 8.92574897069361E-02 
468	 8.94496532157044E-02 
469	 8.95469708802421E-02 
470	 8.94741230388007E-02 
471	 8.96458325176804E-02 
472	 8.97765615044524E-02 
473	 8.98636119438976E-02 
474	 9.00894784869523E-02 
475	 0.090238447608658 
476	 9.03288435066432E-02 
477	 9.04150268473595E-02 
478	 9.05539547945694E-02 
479	 0.090714375641001 
480	 9.08389558806263E-02 
481	 9.08888710679822E-02 
482	 9.09501187895198E-02 
483	 9.10966392673484E-02 
484	 9.14005652528897E-02 
485	 9.19031915424755E-02 
486	 9.21314439853147E-02 
487	 9.22336467957752E-02 
488	 9.23706496548376E-02 
489	 9.23662153773617E-02 
490	 9.23903949979523E-02 
491	 9.25411819954186E-02 
492	 9.28356904966962E-02 
493	 9.30163963492451E-02 
494	 9.31965323359158E-02 
495	 9.34111450950867E-02 
496	 9.35647250235126E-02 
497	 9.38143076683735E-02 
498	 9.41211362510478E-02 
499	 9.44162512822951E-02 
500	 0.094704988761215 
501	 9.50114480339078E-02 
502	 9.52907637981451E-02 
503	 9.54650501424077E-02 
504	 9.55581203516772E-02 
505	 9.57237401090935E-02 
506	 9.59871795292133E-02 
507	 9.61371492652059E-02 
508	 9.64655862003269E-02 
509	 9.68095113716727E-02 
510	 9.69784404168696E-02 
511	 9.73271075465679E-02 
512	 0.0976111943391 
513	 0.097838617194755 
514	 9.82334624314129E-02 
515	 9.85811379838273E-02 
516	 9.89686229014808E-02 
517	 9.94218944483986E-02 
518	 9.97029079669975E-02 
519	 9.99236612980788E-02 
520	 0.10010823648939 
521	 0.100273709700775 
522	 0.100573899426903 
523	 0.100832989160953 
524	 0.101037205483754 
525	 0.101372674238669 
526	 0.101933071031823 
527	 0.102418145057094 
528	 0.102588717647219 
529	 0.10263750958677 
530	 0.102867366281707 
531	 0.103238064462641 
532	 0.10353449686675 
533	 0.103933590005618 
534	 0.104331044416006 
535	 0.104612302384223 
536	 0.104681679424396 
537	 0.105017907980511 
538	 0.105462163283124 
539	 0.105749219009483 
540	 0.106134273043949 
541	 0.10657137037349 
542	 0.106945919748274 
543	 0.107119929553062 
544	 0.107385858419895 
545	 0.107692315032706 
546	 0.107986232800312 
547	 0.10835408137101 
548	 0.108752920487182 
549	 0.109118942345546 
550	 0.109405250809539 
551	 0.109744214625316 
552	 0.110024477100994 
553	 0.110226102426321 
554	 0.110457396327202 
555	 0.110618730996094 
556	 0.110814719743728 
557	 0.111104241616468 
558	 0.111203813989502 
559	 0.111484898833442 
560	 0.111836878008548 
561	 0.111891278258693 
562	 0.112094461787623 
563	 0.112392649367717 
564	 0.112722758028374 
565	 0.113131759987429 
566	 0.113423577030406 
567	 0.113639284688551 
568	 0.11389550586552 
569	 0.114236777109728 
570	 0.114524355324283 
571	 0.114673905582885 
572	 0.114675443890735 
573	 0.114687526293097 
574	 0.114748324696384 
575	 0.114820221722229 
576	 0.114744463918269 
577	 0.114578261904908 
578	 0.11449674808687 
579	 0.114669972489659 
580	 0.114777651177112 
581	 0.114877185387955 
582	 0.115019115519214 
583	 0.115197751778014 
584	 0.115413366931594 
585	 0.115623535495113 
586	 0.115772949367828 
587	 0.115771717963112 
588	 0.116004152015288 
589	 0.116363357139318 
590	 0.116389755993726 
591	 0.116252201867358 
592	 0.116232804605536 
593	 0.116424555944398 
594	 0.1165731542694 
595	 0.116746097992743 
596	 0.116859323830386 
597	 0.116819957190372 
598	 0.116699246579718 
599	 0.116610442724156 
600	 0.116604992839096 
601	 0.116664711652855 
602	 0.116671827946073 
603	 0.116628830035717 
604	 0.116589965445557 
605	 0.116679198302311 
606	 0.11669580893533 
607	 0.116663368524432 
608	 0.116709559111907 
609	 0.116814123083482 
610	 0.116928846492285 
611	 0.117038337880616 
612	 0.117179545197586 
613	 0.117304339974085 
614	 0.117372329909052 
615	 0.11738531068504 
616	 0.117495808961414 
617	 0.117517433475418 
618	 0.117451520380553 
619	 0.117436122368767 
620	 0.117499223629136 
621	 0.117540092935884 
622	 0.117549848799324 
623	 0.117750056562308 
624	 0.117781994136516 
625	 0.117736029609219 
626	 0.117810285894534 
627	 0.117832032247113 
628	 0.117878995055999 
629	 0.117971804408585 
630	 0.11806366834825 
631	 0.118116351383536 
632	 0.118158619222644 
633	 0.118201307733133 
634	 0.118159792160072 
635	 0.118178620032574 
636	 0.118251427568003 
637	 0.118306186248777 
638	 0.118356276387852 
639	 0.118414337541773 
640	 0.118468336546995 
641	 0.118473618156657 
642	 0.118504035861001 
643	 0.118513293769913 
644	 0.118461722399123 
645	 0.118426181980387 
646	 0.118403176944113 
647	 0.118375069810348 
648	 0.118323333778828 
649	 0.118312710148777 
650	 0.11835455593211 
651	 0.118426422973183 
652	 0.118469376950427 
653	 0.118488571507503 
654	 0.118507185164049 
655	 0.118565479462499 
656	 0.118750115552416 
657	 0.118887036286616 
658	 0.118870651999985 
659	 0.118717777447761 
660	 0.118612124583206 
661	 0.118467324337518 
662	 0.118307783565775 
663	 0.118467948408252 
664	 0.11834179153086 
665	 0.118102379571447 
666	 0.118097309812085 
667	 0.118058359450944 
668	 0.117939083160913 
669	 0.117788857777274 
670	 0.117730856041365 
671	 0.117747843624666 
672	 0.117786962765678 
673	 0.117804310693246 
674	 0.117798347041567 
675	 0.117757058027218 
676	 0.117793722370017 
677	 0.117984406970788 
678	 0.117889934759208 
679	 0.117908419988851 
680	 0.118136054791279 
681	 0.118306052079847 
682	 0.118496451183954 
683	 0.118784565765433 
684	 0.119157376300359 
685	 0.119339349410185 
686	 0.11962585227924 
687	 0.12017365847238 
688	 0.120944532826584 
689	 0.121423100465419 
690	 0.121783258770501 
691	 0.122225404253643 
692	 0.122851314834349 
693	 0.123457821459881 
694	 0.124031064309208 
695	 0.124606078531035 
696	 0.125267647796444 
697	 0.12583849934786 
698	 0.126297853761212 
699	 0.126714714296245 
700	 0.127251104347547 
701	 0.127751245355676 
702	 0.128173730238512 
703	 0.128642450018439 
704	 0.129066165638029 
705	 0.129399787232838 
706	 0.129670379731109 
707	 0.130050457682952 
708	 0.130534713290467 
709	 0.130905482719561 
710	 0.130966801282105 
711	 0.131407464661499 
712	 0.131829370610826 
713	 0.13202617609521 
714	 0.132124961919532 
715	 0.132304257040664 
716	 0.132441703406805 
717	 0.132464904543993 
718	 0.132669172681833 
719	 0.132877908863461 
720	 0.133171904384505 
721	 0.133639825117157 
722	 0.13374559180931 
723	 0.133884559615545 
724	 0.134142646154539 
725	 0.134213936074466 
726	 0.134337568647221 
727	 0.134442411649607 
728	 0.134517087149608 
729	 0.134859481622996 
730	 0.135061790613066 
731	 0.135208015687048 
732	 0.135493085746906 
733	 0.135579230682115 
734	 0.135739031703727 
735	 0.135999780742932 
736	 0.136145373025908 
737	 0.13615306028841 
738	 0.13627242615722 
739	 0.136587870215749 
740	 0.13673793211665 
741	 0.136914174128094 
742	 0.137074131845115 
743	 0.137158314051696 
744	 0.137379885527152 
745	 0.13756307797274 
746	 0.137685806073865 
747	 0.137837884741432 
748	 0.137849790393438 
749	 0.137909968597878 
750	 0.138118535531478 
751	 0.138352330670614 
752	 0.138458500117793 
753	 0.138578852575385 
754	 0.138815488284718 
755	 0.138800171683447 
756	 0.13883972644409 
757	 0.138895113018266 
758	 0.13880387628471 
759	 0.139304677958865 
760	 0.140173526326454 
761	 0.140862607990206 
762	 0.140546710432139 
763	 0.140772482165406 
764	 0.140936644178852 
765	 0.140625501932651 
766	 0.140564206588726 
767	 0.140462930183766 
768	 0.140459332466721 
769	 0.140696206160522 
770	 0.140785679063019 
771	 0.140831156033135 
772	 0.140903065033108 
773	 0.141023620333155 
774	 0.141180128245604 
775	 0.141335933433361 
776	 0.141466966341142 
777	 0.14157540169073 
778	 0.141764705250094 
779	 0.141908386873904 
780	 0.141919823392384 
781	 0.142083723149736 
782	 0.142246592644377 
783	 0.142398444701707 
784	 0.142585504750165 
785	 0.142675114843265 
786	 0.142698152109549 
787	 0.14271395946098 
788	 0.142795706102179 
789	 0.143069383407865 
790	 0.143247881258081 
791	 0.143235607098543 
792	 0.143498986671899 
793	 0.143776609503684 
794	 0.143987784325732 
795	 0.144120515639734 
796	 0.144204022452594 
797	 0.144296690442132 
798	 0.144384289394426 
799	 0.144431463346626 
800	 0.14460925233244 
801	 0.144740198259977 
802	 0.144807738772573 
803	 0.145010416993881 
804	 0.145318636641748 
805	 0.14557321615582 
806	 0.145643805197652 
807	 0.145490438277687 
808	 0.145658729118101 
809	 0.145887994694161 
810	 0.145835276589184 
811	 0.145971898251382 
812	 0.145983091624442 
813	 0.14594728079028 
814	 0.146114590414471 
815	 0.146072116906458 
816	 0.146255347672399 
817	 0.146628182356242 
818	 0.146617763179007 
819	 0.146675591705158 
820	 0.146736258724867 
821	 0.146818334624513 
822	 0.147224726569219 
823	 0.14751856965063 
824	 0.147422858508989 
825	 0.147049807195173 
826	 0.147393138349089 
827	 0.147838223556448 
828	 0.148070961557258 
829	 0.148007422020738 
830	 0.14814289266416 
831	 0.148287172367985 
832	 0.148392541106901 
833	 0.148542911363664 
834	 0.148776553154757 
835	 0.148917450341381 
836	 0.14893786960797 
837	 0.149010720928145 
838	 0.149196044890076 
839	 0.149402621464017 
840	 0.149575517606982 
841	 0.149805976934094 
842	 0.149916411664894 
843	 0.149932847347306 
844	 0.149970203743427 
845	 0.150239613802862 
846	 0.1501983166529 
847	 0.150094264582077 
848	 0.150369901047675 
849	 0.150405327484584 
850	 0.150593357100889 
851	 0.150858948219839 
852	 0.150837656289246 
853	 0.151122243108438 
854	 0.151533219371873 
855	 0.151704067786241 
856	 0.151265480351355 
857	 0.15111315094808 
858	 0.151275711462565 
859	 0.151575656571736 
860	 0.151782535022501 
861	 0.151840055087754 
862	 0.15175626240018 
863	 0.151688891867775 
864	 0.152122656162526 
865	 0.152332458518602 
866	 0.152438364612315 
867	 0.15265560813395 
868	 0.152314017351892 
869	 0.152224487262777 
870	 0.15236476438496 
871	 0.152403871679436 
872	 0.152772762627266 
873	 0.152972095234845 
874	 0.152979412225374 
875	 0.153104222735718 
876	 0.153132381431683 
877	 0.153099365023502 
878	 0.15313423845476 
879	 0.153379277465439 
880	 0.153329145003668 
881	 0.153414729734793 
882	 0.153760744153571 
883	 0.153905184224287 
884	 0.153962119796768 
885	 0.154048105322478 
886	 0.154161387601017 
887	 0.15408175224794 
888	 0.153903690970208 
889	 0.15377061104351 
890	 0.15384303684044 
891	 0.15432276939806 
892	 0.154434234695174 
893	 0.154282674023404 
894	 0.154199359728595 
895	 0.154082989280399 
896	 0.154449941731649 
897	 0.154942446225892 
898	 0.154982903900227 
899	 0.154977622754782 
900	 0.155367435785452 
901	 0.155464199099948 
902	 0.154493255651497 
903	 0.154271960513971 
904	 0.154466769411178 
905	 0.154665902766838 
906	 0.154628101250819 
907	 0.155114901938823 
908	 0.155327774920678 
909	 0.155229446394524 
910	 0.155406207643698 
911	 0.154988668953736 
912	 0.154949920990956 
913	 0.155372846653359 
914	 0.155398073934215 
915	 0.155696540142287 
916	 0.155666345370669 
917	 0.155361215504175 
918	 0.155602047087401 
919	 0.155268173524963 
920	 0.155067326874014 
921	 0.155299781243876 
922	 0.15542306939985 
923	 0.155725347891437 
924	 0.155919608220456 
925	 0.155681266736846 
926	 0.154850284796057 
927	 0.154973320734042 
928	 0.155337809344641 
929	 0.155139485253963 
930	 0.154518986879268 
931	 0.15503266447536 
932	 0.155876733527146 
933	 0.15603847452107 
934	 0.155878508269454 
935	 0.156178718893595 
936	 0.155416249658756 
937	 0.153441465320735 
938	 0.153569390332824 
939	 0.153439970933857 
940	 0.153085130816143 
941	 0.153045292875182 
942	 0.153756006319665 
943	 0.154497149730129 
944	 0.154639145629629 
945	 0.154133636373646 
946	 0.154074793898433 
947	 0.153439075128325 
948	 0.152568129109159 
949	 0.152142172045201 
950	 0.152695203429809 
951	 0.15211684419137 
952	 0.151804757120684 
953	 0.152586533802368 
954	 0.152307201045912 
955	 0.153004723785127 
956	 0.152877528122018 
957	 0.15164673255457 
958	 0.153609537327338 
959	 0.152186918870167 
960	 0.151025599046254 
961	 0.152671294531881 
962	 0.15327558673787 
963	 0.153262684343085 
964	 0.15319486775875 
965	 0.153395439971309 
966	 0.153620680282482 
967	 0.15419747030021 
968	 0.153492336242067 
969	 0.151820143848519 
970	 0.15274525107771 
971	 0.153229570051723 
972	 0.154236947079671 
973	 0.155515091081012 
974	 0.154303940387981 
975	 0.153063346031265 
976	 0.153695174052233 
977	 0.154917206000499 
978	 0.152429547685842 
979	 0.152725895875963 
980	 0.153734093548323 
981	 0.15365223228332 
982	 0.152865206589443 
983	 0.154259902448676 
984	 0.153941438755576 
985	 0.152538969922507 
986	 0.15465787846479 
987	 0.156078638555703 
988	 0.155744070115356 
989	 0.15508556704834 
990	 0.156440162014777 
991	 0.157072158604917 
992	 0.156122426951858 
993	 0.155454643782432 
994	 0.157131117135526 
995	 0.155640101039347 
996	 0.156346418100347 
997	 0.1579141293626 
998	 0.156945616397406 
999	 0.157527422338519 
1000	 0.157546970321064 
1001	 0.163360618707384 
1002	 0.163585006477903 
1003	 0.163751792932995 
1004	 0.163908133140996 
1005	 0.164108781752623 
1006	 0.164385100113153 
1007	 0.164495318083675 
1008	 0.16452700034669 
1009	 0.164647331844797 
1010	 0.164742809558406 
1011	 0.164710598034859 
1012	 0.164869290831606 
1013	 0.165079260828998 
1014	 0.165121884728106 
1015	 0.165313553353666 
1016	 0.165582102521357 
1017	 0.165859702014778 
1018	 0.166109571789563 
1019	 0.166495866129658 
1020	 0.166579787362427 
1021	 0.166369141149851 
1022	 0.166398431974233 
1023	 0.166346957015694 
1024	 0.166460618448915 
1025	 0.166745774910343 
1026	 0.167138958592231 
1027	 0.167411130008109 
1028	 0.167518823161907 
1029	 0.167556481576967 
1030	 0.167559587921842 
1031	 0.167594366936239 
1032	 0.167690080938804 
1033	 0.167774565355703 
1034	 0.167915631764327 
1035	 0.16801440210559 
1036	 0.168067313042407 
1037	 0.168141653175335 
1038	 0.168229411553697 
1039	 0.168361030023337 
1040	 0.168384871151554 
1041	 0.16846421047389 
1042	 0.16855848760194 
1043	 0.168682336648142 
1044	 0.168985284509819 
1045	 0.169095189642437 
1046	 0.169032519156591 
1047	 0.168999599784721 
1048	 0.169023057009975 
1049	 0.169145453131208 
1050	 0.169178826779874 
1051	 0.169294892027594 
1052	 0.169335752514604 
1053	 0.169232324724809 
1054	 0.169214681462325 
1055	 0.169426170443164 
1056	 0.169695026580748 
1057	 0.169985545408581 
1058	 0.170219300038099 
1059	 0.170397199542951 
1060	 0.170644464588662 
1061	 0.170872354887233 
1062	 0.170903748954282 
1063	 0.170946501122294 
1064	 0.171102356339802 
1065	 0.171229631959326 
1066	 0.171323174866764 
1067	 0.171578406647767 
1068	 0.171801139276446 
1069	 0.171791736018572 
1070	 0.17193975243853 
1071	 0.172226348500028 
1072	 0.17238892110783 
1073	 0.172591139530802 
1074	 0.17281725401537 
1075	 0.172899169933597 
1076	 0.173034959675868 
1077	 0.173258243948218 
1078	 0.173460229939086 
1079	 0.17358002501883 
1080	 0.173648772337088 
1081	 0.173790149403766 
1082	 0.1739871182246 
1083	 0.174054552830299 
1084	 0.174177589350921 
1085	 0.174453550381499 
1086	 0.174467918131318 
1087	 0.174465828334095 
1088	 0.174546564797955 
1089	 0.174489267389477 
1090	 0.17450337003516 
1091	 0.174604435813958 
1092	 0.17464942952618 
1093	 0.174734149746397 
1094	 0.174840598566811 
1095	 0.174898993357999 
1096	 0.174959313704409 
1097	 0.175039021659524 
1098	 0.175013876589369 
1099	 0.174905542813013 
1100	 0.174884655027565 
1101	 0.174796685079926 
1102	 0.174671971395323 
1103	 0.174615383001171 
1104	 0.174604084861582 
1105	 0.17458612365785 
1106	 0.174642424313617 
1107	 0.174671420136836 
1108	 0.174572585541827 
1109	 0.17446881044954 
1110	 0.174263786513467 
1111	 0.17412760247568 
1112	 0.174097829990645 
1113	 0.173951756203604 
1114	 0.173735995131667 
1115	 0.173533717075587 
1116	 0.173305461785614 
1117	 0.172868372355627 
1118	 0.172595881534888 
1119	 0.172469615328345 
1120	 0.172224518031527 
1121	 0.172009348939568 
1122	 0.171763321651983 
1123	 0.171477940323508 
1124	 0.171265023145423 
1125	 0.171075392179208 
1126	 0.170865159701201 
1127	 0.170592092277596 
1128	 0.170484425605998 
1129	 0.170520325744946 
1130	 0.170453363151533 
1131	 0.170489523262132 
1132	 0.170431070285462 
1133	 0.170277537375462 
1134	 0.170133441813174 
1135	 0.169896999694894 
1136	 0.169487698931651 
1137	 0.169142003586451 
1138	 0.168771580202601 
1139	 0.168477691442378 
1140	 0.168211947188875 
1141	 0.16781651320605 
1142	 0.167415595046996 
1143	 0.166995745904935 
1144	 0.166479415713974 
1145	 0.166067835416618 
1146	 0.16570717443684 
1147	 0.165332644687457 
1148	 0.164974233968171 
1149	 0.164700505717997 
1150	 0.164385862794737 
1151	 0.164246580157074 
1152	 0.164269720393352 
1153	 0.164256681140947 
1154	 0.164314759993141 
1155	 0.164350240587448 
1156	 0.164318579044047 
1157	 0.164392144647246 
1158	 0.164454613194894 
1159	 0.16452875904265 
1160	 0.164608675888112 
1161	 0.16468935319439 
1162	 0.164766540491199 
1163	 0.164869651711049 
1164	 0.164921917010415 
1165	 0.164934363610692 
1166	 0.164970012446587 
1167	 0.164959417535463 
1168	 0.165044785007401 
1169	 0.1652272201006 
1170	 0.165338389198946 
1171	 0.165431637480434 
1172	 0.165490419651466 
1173	 0.165437525782147 
1174	 0.165411938681672 
1175	 0.165406087523708 
1176	 0.165428985332521 
1177	 0.165475824843337 
1178	 0.16557423107162 
1179	 0.165590389878898 
1180	 0.165604016825149 
1181	 0.165588334861765 
1182	 0.165455893871546 
1183	 0.165473009605207 
1184	 0.165599099962774 
1185	 0.165641012500414 
1186	 0.165701835260873 
1187	 0.16575167984727 
1188	 0.165711678450766 
1189	 0.165754775779795 
1190	 0.16586546423425 
1191	 0.165950090929099 
1192	 0.166064572352435 
1193	 0.166110027378962 
1194	 0.166144636187483 
1195	 0.166123053654351 
1196	 0.166217716559896 
1197	 0.166344684262293 
1198	 0.166438513922965 
1199	 0.166611581796622 
1200	 0.1667058091777 
1201	 0.16671720382646 
1202	 0.166773896290741 
1203	 0.166804542014359 
1204	 0.166898751702155 
1205	 0.167024809044052 
1206	 0.167152054849702 
1207	 0.16738458749154 
1208	 0.167519454111949 
1209	 0.167581185003275 
1210	 0.167632311211626 
1211	 0.167746257791968 
1212	 0.167890953680685 
1213	 0.168026310316131 
1214	 0.168239868400291 
1215	 0.168383475162686 
1216	 0.168461701731037 
1217	 0.168584830751783 
1218	 0.168721608354981 
1219	 0.168861359083417 
1220	 0.169039710396342 
1221	 0.169148979857971 
1222	 0.169266532734912 
1223	 0.169327882020525 
1224	 0.169230684835103 
1225	 0.169279959045846 
1226	 0.169398267510141 
1227	 0.169481714215572 
1228	 0.169618641826284 
1229	 0.169780659461516 
1230	 0.169843946911293 
1231	 0.169840941782314 
1232	 0.169930462679788 
1233	 0.170048879564189 
1234	 0.170156698260445 
1235	 0.170313581510866 
1236	 0.170423559467904 
1237	 0.170497960174435 
1238	 0.170577558685103 
1239	 0.170640660411338 
1240	 0.170728123030476 
1241	 0.170811523306048 
1242	 0.170916311628172 
1243	 0.171065294886772 
1244	 0.171179772200805 
1245	 0.171305281567788 
1246	 0.17139440970593 
1247	 0.171467782651086 
1248	 0.171507815380487 
1249	 0.171464002167721 
1250	 0.171479327866191 
1251	 0.171506889839075 
1252	 0.171528438879711 
1253	 0.171574822293452 
1254	 0.17167225447379 
1255	 0.171741348680547 
1256	 0.171813771597223 
1257	 0.171852934875713 
1258	 0.171877655067988 
1259	 0.171915222826397 
1260	 0.171935360534302 
1261	 0.171948175966507 
1262	 0.171975233559423 
1263	 0.171986246369316 
1264	 0.171955913373459 
1265	 0.171951021329572 
1266	 0.171950565053294 
1267	 0.171969796973483 
1268	 0.172028113666537 
1269	 0.172043171268782 
1270	 0.172063359565626 
1271	 0.172063738659878 
1272	 0.172025404584065 
1273	 0.171943625330037 
1274	 0.171982914007078 
1275	 0.172049070389952 
1276	 0.17216638938037 
1277	 0.172407604254329 
1278	 0.172519537476269 
1279	 0.172625268124345 
1280	 0.17267912090735 
1281	 0.172610498113054 
1282	 0.172677952126763 
1283	 0.172808921998851 
1284	 0.172883466462656 
1285	 0.173026557484883 
1286	 0.173085479436742 
1287	 0.173021184216756 
1288	 0.173039283594954 
1289	 0.173085318219226 
1290	 0.173117248324314 
1291	 0.173135030477977 
1292	 0.173206609001243 
1293	 0.173378916975717 
1294	 0.173428246472479 
1295	 0.173469367242536 
1296	 0.173456466492237 
1297	 0.173443730776262 
1298	 0.173323916851636 
1299	 0.173257556574619 
1300	 0.173246626920993 
1301	 0.173175624975961 
1302	 0.173043568790589 
1303	 0.172934204056203 
1304	 0.172843035265799 
1305	 0.172715537472712 
1306	 0.172519436613817 
1307	 0.172408896449749 
1308	 0.172385242068863 
1309	 0.172239214830433 
1310	 0.172082569813291 
1311	 0.171897690850269 
1312	 0.171626367985754 
1313	 0.171338468961496 
1314	 0.171019121868474 
1315	 0.170737512940254 
1316	 0.170390700221635 
1317	 0.170101211148811 
1318	 0.169962703849065 
1319	 0.1697042449878 
1320	 0.169378676679584 
1321	 0.169058832389573 
1322	 0.168685845008612 
1323	 0.168235832998437 
1324	 0.167780555398691 
1325	 0.167291654599278 
1326	 0.16679587366889 
1327	 0.166194169513106 
1328	 0.165720993885382 
1329	 0.165336066103931 
1330	 0.164874647471363 
1331	 0.16442304598445 
1332	 0.164001506676081 
1333	 0.163621538751215 
1334	 0.163123565126053 
1335	 0.162557335433817 
1336	 0.162091912259172 
1337	 0.161533582597432 
1338	 0.161046335979895 
1339	 0.16072691113769 
1340	 0.160324948280031 
1341	 0.159781581262466 
1342	 0.159303359596851 
1343	 0.158812182115679 
1344	 0.158308310953101 
1345	 0.157669754725724 
1346	 0.157180908741864 
1347	 0.156541384777746 
1348	 0.156097049425679 
1349	 0.155647311046967 
1350	 0.155444750078231 
1351	 0.154981391297759 
1352	 0.154531190432558 
1353	 0.154194384443972 
1354	 0.154086309297376 
1355	 0.153803205813832 
1356	 0.154706157873598 
1357	 0.154486655682387 
1358	 0.151248122795565 
1359	 0.150021789002914 
1360	 0.151595094864292 
1361	 0.152364432108917 
1362	 0.162479474050847 
1363	 0.167359090478214 
1364	 0.162761954146024 
1365	 0.155036334190676 
1366	 0.129547405387462 
1367	 0.127561978301081 
1368	 0.141660340874525 
1369	 0.142616652032182 
1370	 0.148232877340851 
1371	 0.149322888848111 
1372	 0.143264027293355 
1373	 0.138171261038239 
1374	 0.132947597708548 
1375	 0.130986922798531 
1376	 0.126853134497646 
1377	 0.119360815144423 
1378	 0.117035706556132 
1379	 0.116951785142629 
1380	 0.117034320927488 
1381	 0.120379434323659 
1382	 0.119724255901808 
1383	 0.117357478056891 
1384	 0.116299503065954 
1385	 0.114040100244624 
1386	 0.11294002372895 
1387	 0.115025092801092 
1388	 0.112801545081262 
1389	 0.108195992100913 
1390	 0.105703446968386 
1391	 0.100469726915405 
1392	 0.10014917595933 
1393	 0.103990597362535 
1394	 0.105046953558541 
1395	 0.107161864251002 
1396	 0.107799962976856 
1397	 0.107177881176176 
1398	 0.105926234881711 
1399	 0.103512833203805 
1400	 0.102387580015659 
1401	 0.100725172134148 
1402	 9.97104073183853E-02 
1403	 0.100741852697046 
1404	 0.100367069211078 
1405	 9.90285035643755E-02 
1406	 9.80815931736325E-02 
1407	 9.77124631160914E-02 
1408	 9.75549507439761E-02 
1409	 9.77628835409966E-02 
1410	 9.72377337526509E-02 
1411	 9.71829664871946E-02 
1412	 9.66793902393185E-02 
1413	 9.71172577108175E-02 
1414	 9.83551262241325E-02 
1415	 9.85085074923852E-02 
1416	 9.84306950589571E-02 
1417	 0.0984928885674 
1418	 9.82570441130343E-02 
1419	 9.81207516046733E-02 
1420	 9.82553027770039E-02 
1421	 9.81555173238157E-02 
1422	 9.75951550941605E-02 
1423	 9.76876505819701E-02 
1424	 9.81584214156864E-02 
1425	 9.83523546974144E-02 
1426	 9.86885344750169E-02 
1427	 9.88851998607958E-02 
1428	 9.88867032576908E-02 
1429	 9.89397230538034E-02 
1430	 0.099016828736768 
1431	 9.91798897844605E-02 
1432	 9.94798217600991E-02 
1433	 9.95314330735244E-02 
1434	 0.099437686221262 
1435	 9.94510501695741E-02 
1436	 9.92977100360322E-02 
1437	 9.92613152832469E-02 
1438	 9.95540060954982E-02 
1439	 9.96096217548947E-02 
1440	 9.93173960912704E-02 
1441	 9.93319556071825E-02 
1442	 0.099582223316422 
1443	 9.95725105936929E-02 
1444	 9.95613492332566E-02 
1445	 9.97571789329049E-02 
1446	 0.099839005626198 
1447	 0.100100316864417 
1448	 0.100381200264858 
1449	 0.100898277625324 
1450	 0.101140742957573 
1451	 0.101290937645789 
1452	 0.101388475614888 
1453	 0.101397930883809 
1454	 0.10148769555282 
1455	 0.101532091886235 
1456	 0.101663080993036 
1457	 0.101880986797277 
1458	 0.102053878400522 
1459	 0.102355520693302 
1460	 0.102381900705034 
1461	 0.102182397712728 
1462	 0.102199095494764 
1463	 0.102072512945656 
1464	 0.102168684164996 
1465	 0.102659659046279 
1466	 0.102871434488193 
1467	 0.102966558941071 
1468	 0.103143632727186 
1469	 0.103226127420184 
1470	 0.103395188635912 
1471	 0.103682371093133 
1472	 0.103891679015783 
1473	 0.104089966230445 
1474	 0.104238766414132 
1475	 0.104187725359537 
1476	 0.104419767681287 
1477	 0.104871269458812 
1478	 0.105128505043828 
1479	 0.105348012744028 
1480	 0.105704488158113 
1481	 0.106056772282258 
1482	 0.106317195254403 
1483	 0.106670546847528 
1484	 0.107018513008753 
1485	 0.107165315112123 
1486	 0.10742978955253 
1487	 0.107774150886353 
1488	 0.108205120395707 
1489	 0.108705758992333 
1490	 0.109077177697418 
1491	 0.109298419768053 
1492	 0.10955568678244 
1493	 0.10971535530846 
1494	 0.10984092597634 
1495	 0.110107889077027 
1496	 0.110497548974157 
1497	 0.110842930059873 
1498	 0.111261705161149 
1499	 0.111535084943325 
1500	 0.111757280604073 
1501	 0.112021088680845 
1502	 0.112212233705952 
1503	 0.112464762248705 
1504	 0.112785984416589 
1505	 0.113090934037185 
1506	 0.113361507520182 
1507	 0.113670294544899 
1508	 0.114054376531545 
1509	 0.114352397720592 
1510	 0.114602715049659 
1511	 0.114897589588502 
1512	 0.115150491215101 
1513	 0.115473222814883 
1514	 0.115886464487749 
1515	 0.11620676652024 
1516	 0.116536753542406 
1517	 0.116823255364289 
1518	 0.11702112614192 
1519	 0.117294313018439 
1520	 0.117578064112746 
1521	 0.117875091244625 
1522	 0.118191532101673 
1523	 0.118529590015521 
1524	 0.118942267114411 
1525	 0.119256723657139 
1526	 0.119523764949375 
1527	 0.119828213228639 
1528	 0.120051462762635 
1529	 0.120351741792863 
1530	 0.120767082696741 
1531	 0.121110444394641 
1532	 0.121422340221057 
1533	 0.121761866015179 
1534	 0.12209375932922 
1535	 0.122428042504923 
1536	 0.12282707801316 
1537	 0.123139741609964 
1538	 0.123388853894389 
1539	 0.123647958461675 
1540	 0.123814338362342 
1541	 0.1240742896623 
1542	 0.124413474179026 
1543	 0.124717487565454 
1544	 0.12508218890572 
1545	 0.125383587214372 
1546	 0.125604475156571 
1547	 0.125863165973091 
1548	 0.126082628207662 
1549	 0.126362525604402 
1550	 0.126714696148799 
1551	 0.127042553881414 
1552	 0.127406110115885 
1553	 0.12774353134101 
1554	 0.128059661669668 
1555	 0.128363945426144 
1556	 0.128648511125648 
1557	 0.128940190691372 
1558	 0.129239825870042 
1559	 0.129507622293696 
1560	 0.129697013935817 
1561	 0.129987999173325 
1562	 0.130380649292051 
1563	 0.13068259896561 
1564	 0.130995226656301 
1565	 0.131334076993596 
1566	 0.131510497509778 
1567	 0.131687765737978 
1568	 0.131965626176438 
1569	 0.132306856564286 
1570	 0.132624898645907 
1571	 0.133014220537382 
1572	 0.133281433199265 
1573	 0.13347042810028 
1574	 0.133750868726685 
1575	 0.133995126781654 
1576	 0.134321650850789 
1577	 0.134741464459256 
1578	 0.135092233724149 
1579	 0.135470786816993 
1580	 0.135711041389508 
1581	 0.135865394834106 
1582	 0.136090673311168 
1583	 0.136240651802384 
1584	 0.136474032870722 
1585	 0.136786062922187 
1586	 0.137087221286525 
1587	 0.137420696127869 
1588	 0.13764535761123 
1589	 0.137853520169586 
1590	 0.138071127619639 
1591	 0.138204329392316 
1592	 0.138379273881616 
1593	 0.138605467545737 
1594	 0.138828093617563 
1595	 0.139015369942284 
1596	 0.139227212450511 
1597	 0.139506542924463 
1598	 0.139712725684482 
1599	 0.139858936853894 
1600	 0.140052312391762 
1601	 0.140252227530407 
1602	 0.14046083001662 
1603	 0.140682412266635 
1604	 0.140900842377729 
1605	 0.141131040613516 
1606	 0.141336979709417 
1607	 0.14152627503848 
1608	 0.141729457384757 
1609	 0.141930057815675 
1610	 0.142116335618788 
1611	 0.14231632892989 
1612	 0.142480923986844 
1613	 0.142609833426161 
1614	 0.142756876163525 
1615	 0.14286491967818 
1616	 0.143065047873049 
1617	 0.143332537624202 
1618	 0.143522122465907 
1619	 0.143756082848067 
1620	 0.143895351204024 
1621	 0.143921786274105 
1622	 0.14403773437339 
1623	 0.144164779215224 
1624	 0.144293366178259 
1625	 0.144435971898029 
1626	 0.144596161723427 
1627	 0.144785805186201 
1628	 0.144903611261784 
1629	 0.144983074012095 
1630	 0.145149758736054 
1631	 0.145340707580275 
1632	 0.145436562258249 
1633	 0.145542807011526 
1634	 0.145703232463614 
1635	 0.145789896159585 
1636	 0.1459064229103 
1637	 0.146143695314982 
1638	 0.146297495439911 
1639	 0.146303456658898 
1640	 0.146469974007572 
1641	 0.146782692849266 
1642	 0.146952187836961 
1643	 0.147105149283419 
1644	 0.147244102216752 
1645	 0.147305504835107 
1646	 0.147404097756881 
1647	 0.147514936229198 
1648	 0.147648093930335 
1649	 0.147793459106962 
1650	 0.147911189132668 
1651	 0.148041750735799 
1652	 0.148166179800863 
1653	 0.148225655553208 
1654	 0.148395327374084 
1655	 0.148706535557197 
1656	 0.148733072554942 
1657	 0.14865431053715 
1658	 0.148629179141826 
1659	 0.148573478253158 
1660	 0.14875512399298 
1661	 0.148986463886927 
1662	 0.149070318592013 
1663	 0.149078218633295 
1664	 0.149126354824187 
1665	 0.149212824141943 
1666	 0.149297701742325 
1667	 0.149337426846716 
1668	 0.149340128128904 
1669	 0.149255228919165 
1670	 0.149209932437049 
1671	 0.149292430274221 
1672	 0.149313977539717 
1673	 0.149391293417944 
1674	 0.149468954864339 
1675	 0.149508956228362 
1676	 0.149612662568944 
1677	 0.149584046046474 
1678	 0.149543102003454 
1679	 0.149519702793249 
1680	 0.149466819363808 
1681	 0.149544225276926 
1682	 0.149649167550982 
1683	 0.149719663629111 
1684	 0.14975270401061 
1685	 0.149755878640951 
1686	 0.14964364407345 
1687	 0.149509227395219 
1688	 0.149452386850885 
1689	 0.149288149302495 
1690	 0.149323698774881 
1691	 0.149330296008374 
1692	 0.149389387962437 
1693	 0.149380331480408 
1694	 0.149284204969051 
1695	 0.149256343551031 
1696	 0.149272305079799 
1697	 0.149212336379595 
1698	 0.1490891982103 
1699	 0.149028216595391 
1700	 0.148965766111627 
1701	 0.148899772848555 
1702	 0.148846064177507 
1703	 0.148897894987942 
1704	 0.14910100257481 
1705	 0.149024140426328 
1706	 0.148842507728323 
1707	 0.148782763868839 
1708	 0.148512387650541 
1709	 0.148354246573561 
1710	 0.148503301928298 
1711	 0.148426208864681 
1712	 0.148158106296602 
1713	 0.147999545954837 
1714	 0.147831425205581 
1715	 0.147671003208349 
1716	 0.147484955627523 
1717	 0.147388149040927 
1718	 0.147436140180137 
1719	 0.14729010509392 
1720	 0.147090498545926 
1721	 0.146915143361061 
1722	 0.146609528622764 
1723	 0.14637172888753 
1724	 0.146254134724598 
1725	 0.146032722959625 
1726	 0.145652847438268 
1727	 0.145433560963502 
1728	 0.145338146671739 
1729	 0.145086693047568 
1730	 0.144776334471487 
1731	 0.144724992829475 
1732	 0.144587656822347 
1733	 0.144350365006169 
1734	 0.144124011336471 
1735	 0.143963007649665 
1736	 0.14383299959425 
1737	 0.143636248157739 
1738	 0.143566398360258 
1739	 0.143443993757014 
1740	 0.142892126466494 
1741	 0.142420531507844 
1742	 0.142142176110827 
1743	 0.141582676375799 
1744	 0.141186256629789 
1745	 0.141156428020696 
1746	 0.140973322411733 
1747	 0.140671909802885 
1748	 0.140503838204753 
1749	 0.140296438996121 
1750	 0.139834969743562 
1751	 0.139508226227132 
1752	 0.139318293471588 
1753	 0.138939292497369 
1754	 0.138774362892135 
1755	 0.138551925528445 
1756	 0.137912024973309 
1757	 0.137348997518159 
1758	 0.136772669072764 
1759	 0.13605426684146 
1760	 0.13570246288707 
1761	 0.135570940043466 
1762	 0.135257286701723 
1763	 0.135105840755217 
1764	 0.134931986379505 
1765	 0.134505999792642 
1766	 0.134238057713961 
1767	 0.134316897181695 
1768	 0.134078020298428 
1769	 0.133591704373795 
1770	 0.13332151846116 
1771	 0.133065587756988 
1772	 0.132703846740851 
1773	 0.132248347136583 
1774	 0.131986274294996 
1775	 0.131908907275603 
1776	 0.132042059570355 
1777	 0.132117772111134 
1778	 0.131914098508737 
1779	 0.131635492871273 
1780	 0.131177743500942 
1781	 0.130912910678073 
1782	 0.130894674359506 
1783	 0.130765869096304 
1784	 0.130452393433241 
1785	 0.130307907434834 
1786	 0.13036182110009 
1787	 0.130078336987326 
1788	 0.12998128497221 
1789	 0.129822002470159 
1790	 0.128811003668516 
1791	 0.127999286709929 
1792	 0.127703041148144 
1793	 0.127391601718816 
1794	 0.127351883984533 
1795	 0.127160292366803 
1796	 0.126430504344714 
1797	 0.126026068229246 
1798	 0.125830924632436 
1799	 0.12584825095946 
1800	 0.125474868540253 
1801	 0.131224688474962 
1802	 0.129907611213739 
1803	 0.129604075463064 
1804	 0.128692123248843 
1805	 0.128152416614509 
1806	 0.129611413392231 
1807	 0.129848581241637 
1808	 0.128412557848904 
1809	 0.127170446769374 
1810	 0.127724505304892 
1811	 0.129869698660992 
1812	 0.131290652952752 
1813	 0.135393898846679 
1814	 0.136361498719283 
1815	 0.133978732131801 
1816	 0.133582333480406 
1817	 0.132537744161558 
1818	 0.131205728657301 
1819	 0.129943023666837 
1820	 0.130381699696493 
1821	 0.128967353128648 
1822	 0.12335594039005 
1823	 0.12292326272832 
1824	 0.127284130404877 
1825	 0.128938867978505 
1826	 0.135115086331682 
1827	 0.138689773812953 
1828	 0.140471351470443 
1829	 0.133349291720321 
1830	 0.136161196058887 
1831	 0.148981874227349 
1832	 0.151877544235415 
1833	 0.148562684022788 
1834	 0.155578265329141 
1835	 0.155671284433482 
1836	 0.15609132157305 
1837	 0.178163175257752 
1838	 0.199130469762186 
1839	 0.214305346061901 
1840	 0.190434617396232 
1841	 0.203937454878123 
1842	 0.260632296009902 
1843	 0.25104147400338 
1844	 0.193043699747866 
1845	 0.179475353214746 
1846	 0.168502908415746 
1847	 0.13769360431706 
1848	 0.106496217702027 
1849	 9.61832967030339E-02 
1850	 9.03890862628047E-02 
1851	 5.33435310617351E-02 
1852	 4.34446049766707E-02 
1853	 7.45235071521689E-02 
1854	 0.094806238499754 
1855	 0.117212956326901 
1856	 0.12278021343997 
1857	 0.128600265994972 
1858	 0.137798607060218 
1859	 0.140324865985187 
1860	 0.114767980253915 
1861	 0.121023662953791 
1862	 0.161352462765045 
1863	 0.164994488283287 
1864	 0.169784679049031 
1865	 0.162171084249333 
1866	 0.124117438782117 
1867	 6.85314208919287E-02 
1868	 8.06224641091426E-02 
1869	 8.42532926792856E-02 
1870	 7.59846155003684E-02 
1871	 0.101720023719347 
1872	 8.54229729864235E-02 
1873	-1.61039773615276E-02 
1874	-1.61983726924481E-02 
1875	 2.74222449971392E-02 
1876	 4.76214640688206E-02 
1877	 7.72444719867358E-02 
1878	 0.110612094842994 
1879	 0.108602253790128 
1880	 0.10832338797347 
1881	 0.107209264937986 
1882	 0.101236786318346 
1883	 9.96141892025973E-02 
1884	 0.101296428600596 
1885	 0.098392745245849 
1886	 9.08565987662488E-02 
1887	 9.15935666429021E-02 
1888	 9.06538147931914E-02 
1889	 9.21481349229761E-02 
1890	 9.69144421069745E-02 
1891	 0.113779361393872 
1892	 0.114431720854989 
1893	 0.104091847050776 
1894	 0.103479655281861 
1895	 0.102149915481621 
1896	 9.93944622441515E-02 
1897	 0.10623755487151 
1898	 0.103845833336715 
1899	 9.45094908376828E-02 
1900	 7.77272469647638E-02 
1901	 6.93428565551081E-02 
1902	 6.61398995809567E-02 
1903	 7.77159269769413E-02 
1904	 0.115873426409757 
1905	 0.129210623051797 
1906	 0.145572176249895 
1907	 0.153490259008108 
1908	 0.128780629133082 
1909	 0.10117234310019 
1910	 8.03225937425097E-02 
1911	 7.19846990169849E-02 
1912	 7.04791986992903E-02 
1913	 7.22439215165754E-02 
1914	 7.38370831046472E-02 
1915	 8.19952698577137E-02 
1916	 8.15968727297837E-02 
1917	 7.83363489352276E-02 
1918	 7.78208926604197E-02 
1919	 7.04653161227485E-02 
1920	 6.97945811095704E-02 
1921	 7.28405207445124E-02 
1922	 7.21493218642199E-02 
1923	 7.29541052616174E-02 
1924	 0.076294792497425 
1925	 7.66988544895428E-02 
1926	 7.45769820883062E-02 
1927	 7.53078046780075E-02 
1928	 7.70674616514792E-02 
1929	 7.81251354193218E-02 
1930	 8.03786408812439E-02 
1931	 8.53301789620091E-02 
1932	 8.68853812676091E-02 
1933	 8.74800499915833E-02 
1934	 8.68276248302253E-02 
1935	 8.31061202575078E-02 
1936	 8.17088857996945E-02 
1937	 8.03261039900577E-02 
1938	 8.01665305805337E-02 
1939	 8.09373256758332E-02 
1940	 8.18868577563292E-02 
1941	 8.26003269528644E-02 
1942	 8.29344671478314E-02 
1943	 8.34645010626215E-02 
1944	 8.57620580533862E-02 
1945	 8.72561429751729E-02 
1946	 8.86048384397272E-02 
1947	 8.93163302477281E-02 
1948	 8.86945770790253E-02 
1949	 8.83594579103142E-02 
1950	 8.78592693987394E-02 
1951	 8.82594811196286E-02 
1952	 8.73381269224548E-02 
1953	 8.68355587097573E-02 
1954	 8.65022417353443E-02 
1955	 8.59632319896957E-02 
1956	 8.47073975943382E-02 
1957	 8.45498335478796E-02 
1958	 0.084930747314121 
1959	 8.56721620241203E-02 
1960	 8.59779578698409E-02 
1961	 8.68973653988904E-02 
1962	 8.71296542721285E-02 
1963	 8.70380044978433E-02 
1964	 8.63663125145343E-02 
1965	 8.58176423784493E-02 
1966	 0.086383330107917 
1967	 8.72546499614619E-02 
1968	 8.82396782680264E-02 
1969	 8.90248690319828E-02 
1970	 9.01231229446205E-02 
1971	 9.06561582085797E-02 
1972	 9.09817438690939E-02 
1973	 9.11422664027663E-02 
1974	 9.06353084206176E-02 
1975	 9.06793640881612E-02 
1976	 0.090750903809232 
1977	 9.06494109153157E-02 
1978	 9.12554723170607E-02 
1979	 9.17202645992244E-02 
1980	 9.17686915198325E-02 
1981	 9.16659309626225E-02 
1982	 9.16455857404514E-02 
1983	 9.14511742014334E-02 
1984	 9.14438549093621E-02 
1985	 9.16165873576906E-02 
1986	 9.19662516717457E-02 
1987	 9.22051779427716E-02 
1988	 0.092200984318218 
1989	 9.24340992968061E-02 
1990	 9.25479487332684E-02 
1991	 9.25708350235048E-02 
1992	 9.33034984630901E-02 
1993	 9.38700919457785E-02 
1994	 9.38637879354529E-02 
1995	 9.41730746936445E-02 
1996	 9.47410622344808E-02 
1997	 9.50358371045209E-02 
1998	 9.49778482227144E-02 
1999	 9.55403183577142E-02 
2000	 9.60034426555149E-02 
2001	 9.59089695163543E-02 
2002	 9.59146194122394E-02 
2003	 0.095975702711807 
2004	 9.54539066756951E-02 
2005	 9.52139461703993E-02 
2006	 9.52669271433793E-02 
2007	 9.55222129552754E-02 
2008	 9.57005294046636E-02 
2009	 9.63608772488391E-02 
2010	 0.096550488968522 
2011	 9.66344148631912E-02 
2012	 9.70085995582852E-02 
2013	 9.70274034150069E-02 
2014	 9.71900423516225E-02 
2015	 9.72007425815672E-02 
2016	 9.72690318877996E-02 
2017	 9.72791781671892E-02 
2018	 9.67967672907142E-02 
2019	 9.66607825850553E-02 
2020	 9.64445849737323E-02 
2021	 9.64397274593291E-02 
2022	 9.69899296888947E-02 
2023	 9.80056307194774E-02 
2024	 9.86592932395069E-02 
2025	 9.87679358144904E-02 
2026	 9.89209444907024E-02 
2027	 9.87206625930813E-02 
2028	 9.84180744490476E-02 
2029	 9.87764764677274E-02 
2030	 9.89033037291291E-02 
2031	 9.87085236601798E-02 
2032	 9.86923440304143E-02 
2033	 9.88017265553406E-02 
2034	 9.88465034021545E-02 
2035	 9.89300058290104E-02 
2036	 9.91618283123842E-02 
2037	 0.099811902947091 
2038	 0.100331260539257 
2039	 0.100430644339795 
2040	 0.100830597363765 
2041	 0.101062001921737 
2042	 0.101050889003268 
2043	 0.101152775237324 
2044	 0.100948592522058 
2045	 0.100864335452996 
2046	 0.100631299952224 
2047	 0.100675139341956 
2048	 0.100984740954247 
2049	 0.101308281911055 
2050	 0.101331659331082 
2051	 0.101302916696458 
2052	 0.101172611445845 
2053	 0.101027440603343 
2054	 0.101291023984138 
2055	 0.101686495557479 
2056	 0.101678755103412 
2057	 0.101460380484384 
2058	 0.101163419968284 
2059	 0.101168007018074 
2060	 0.101037647528499 
2061	 0.101359003828176 
2062	 0.101859955187549 
2063	 0.102487772961388 
2064	 0.102831335213545 
2065	 0.102657009020113 
2066	 0.103005018595088 
2067	 0.103272248130352 
2068	 0.103200726217335 
2069	 0.103509132638462 
2070	 0.103460220990548 
2071	 0.103086944259905 
2072	 0.103016328922269 
2073	 0.103163279807836 
2074	 0.103157391876413 
2075	 0.102924850593007 
2076	 0.103318653330801 
2077	 0.103803596551194 
2078	 0.103956501951195 
2079	 0.104382410006304 
2080	 0.104598674298184 
2081	 0.104518128824685 
2082	 0.104472584273001 
2083	 0.104620493281379 
2084	 0.10483771767997 
2085	 0.105092011927032 
2086	 0.105576095886787 
2087	 0.105897833013893 
2088	 0.10617594158809 
2089	 0.106427478358534 
2090	 0.106543193538353 
2091	 0.106350168529294 
2092	 0.106109796541412 
2093	 0.105995205396986 
2094	 0.106186304953369 
2095	 0.106372550204401 
2096	 0.106850126282951 
2097	 0.107283442550012 
2098	 0.106997287541449 
2099	 0.107107444424057 
2100	 0.107540902550953 
2101	 0.10761510489244 
2102	 0.10777813211127 
2103	 0.108241962886425 
2104	 0.108473123790098 
2105	 0.108242392838956 
2106	 0.108112729100554 
2107	 0.108003043525135 
2108	 0.108118175135225 
2109	 0.108079646049869 
2110	 0.108283843947699 
2111	 0.109091288048344 
2112	 0.109557556553179 
2113	 0.109980127294949 
2114	 0.110379920510075 
2115	 0.110239960314724 
2116	 0.10963679784452 
2117	 0.109455064109004 
2118	 0.109505189254383 
2119	 0.10958210105449 
2120	 0.10970570639168 
2121	 0.11007182817437 
2122	 0.110669522386954 
2123	 0.110726142829988 
2124	 0.110845890815584 
2125	 0.111082544817153 
2126	 0.11084163453615 
2127	 0.110965923101794 
2128	 0.11125680728464 
2129	 0.111373239892265 
2130	 0.111848785668879 
2131	 0.112307762453074 
2132	 0.112465099512426 
2133	 0.112972267076455 
2134	 0.113063150781733 
2135	 0.112985018764822 
2136	 0.112408686091473 
2137	 0.112219413367857 
2138	 0.111966867230486 
2139	 0.111986722157753 
2140	 0.112534557608938 
2141	 0.11307918659047 
2142	 0.113161277585179 
2143	 0.112928374733045 
2144	 0.112720631883936 
2145	 0.112245064821883 
2146	 0.112143337775546 
2147	 0.112491092085868 
2148	 0.112671513985852 
2149	 0.112462214290625 
2150	 0.11211136208189 
2151	 0.11209997474568 
2152	 0.111982739347262 
2153	 0.11225909171812 
2154	 0.113205067638428 
2155	 0.113750296203308 
2156	 0.113645982262891 
2157	 0.113653407339347 
2158	 0.113017498033953 
2159	 0.112746167226377 
2160	 0.112981851040602 
2161	 0.112976880849884 
2162	 0.112915327694631 
2163	 0.112829589308778 
2164	 0.113078681325627 
2165	 0.113331901612103 
2166	 0.113246288767993 
2167	 0.113040561960649 
2168	 0.112758831773199 
2169	 0.111745606798993 
2170	 0.111470244469592 
2171	 0.111656032796724 
2172	 0.111692780031586 
2173	 0.111395675354163 
2174	 0.111565483208738 
2175	 0.111579546688345 
2176	 0.111599512068166 
2177	 0.112034866548905 
2178	 0.112128723770776 
2179	 0.112076399701628 
2180	 0.112014984365385 
2181	 0.112097266416031 
2182	 0.11215561273672 
2183	 0.111769081858633 
2184	 0.111222659401531 
2185	 0.110609675756434 
2186	 0.110032805690278 
2187	 0.110057766792999 
2188	 0.111058835907137 
2189	 0.111400608130629 
2190	 0.111866405431926 
2191	 0.111992502195817 
2192	 0.111622841184465 
2193	 0.111064074056654 
2194	 0.111234985531062 
2195	 0.111279944693725 
2196	 0.111609768235848 
2197	 0.111645885466795 
2198	 0.110688093269371 
2199	 0.110740492985705 
2200	 0.111040143399476 
2201	 0.110913382951095 
2202	 0.111518253138998 
2203	 0.111704787252514 
2204	 0.11128693096674 
2205	 0.111113857673427 
2206	 0.110566205959433 
2207	 0.110168898852222 
2208	 0.109931261221031 
2209	 0.109515455370878 
2210	 0.109624666955883 
2211	 0.110250798969032 
2212	 0.110735494352507 
2213	 0.110827834751398 
2214	 0.110842322448751 
2215	 0.110696127891315 
2216	 0.110417948441003 
2217	 0.11073638441577 
2218	 0.111801535206659 
2219	 0.112524389756521 
2220	 0.112746667405735 
2221	 0.112384191456545 
2222	 0.111389520370175 
2223	 0.110609685286072 
2224	 0.110303214561234 
2225	 0.11087010042802 
2226	 0.111998752971033 
2227	 0.112351515510312 
2228	 0.112031850344562 
2229	 0.11111401876866 
2230	 0.110123873354542 
2231	 0.109563370200428 
2232	 0.109072601830801 
2233	 0.109106955785883 
2234	 0.109750217243947 
2235	 0.110540864507721 
2236	 0.110715068542031 
2237	 0.110751477676053 
2238	 0.110568501362619 
2239	 0.10945760647592 
2240	 0.108924229213064 
2241	 0.10896528474222 
2242	 0.108759199923966 
2243	 0.109443719094636 
2244	 0.109840474415365 
2245	 0.109809871928406 
2246	 0.110279615589669 
2247	 0.109898349102475 
2248	 0.108979165679922 
2249	 0.108438936333751 
2250	 0.10736989147346 
2251	 0.106500289233406 
2252	 0.106918527704576 
2253	 0.107596066852381 
2254	 0.108394278183747 
2255	 0.10911634859828 
2256	 0.109339329888643 
2257	 0.108882604721058 
2258	 0.108335761922134 
2259	 0.108468130448832 
2260	 0.108531719796 
2261	 0.108159436136379 
2262	 0.108230989889034 
2263	 0.107918111548103 
2264	 0.106919707184369 
2265	 0.106253274306668 
2266	 0.105485845772722 
2267	 0.104964587705929 
2268	 0.105093000826554 
2269	 0.106244123261772 
2270	 0.107962683140449 
2271	 0.108573031699064 
2272	 0.108930457206652 
2273	 0.108578975146409 
2274	 0.107149807281665 
2275	 0.106520656180788 
2276	 0.10661473839449 
2277	 0.106667505945752 
2278	 0.107130099307311 
2279	 0.107845802643049 
2280	 0.10771532774283 
2281	 0.106956642959486 
2282	 0.106570096846628 
2283	 0.105813542976678 
2284	 0.105268854405585 
2285	 0.105863874234615 
2286	 0.105889690238139 
2287	 0.105906009673265 
2288	 0.105649293623675 
2289	 0.105203560884878 
2290	 0.104865126863306 
2291	 0.105141003771153 
2292	 0.105312135710417 
2293	 0.105550528880766 
2294	 0.105352879959315 
2295	 0.105198294417564 
2296	 0.105298350709353 
2297	 0.104482905254691 
2298	 0.103636436811537 
2299	 0.102229076735505 
2300	 0.101615070718542 
2301	 0.102700392552912 
2302	 0.102541546803832 
2303	 0.102729750804116 
2304	 0.102849153487577 
2305	 0.101696792858286 
2306	 0.101877689783648 
2307	 0.102658133529748 
2308	 0.102198943755015 
2309	 0.101611078729855 
2310	 0.102437736099069 
2311	 0.102711091156306 
2312	 0.102355174757557 
2313	 0.102352483128357 
2314	 0.100434860421981 
2315	 9.92859615408687E-02 
2316	 9.94066910144244E-02 
2317	 0.100086124629667 
2318	 0.102289312252485 
2319	 0.102708564747828 
2320	 0.102598380934606 
2321	 0.102232191793133 
2322	 0.100243516532756 
2323	 0.099549507578868 
2324	 9.94103494328143E-02 
2325	 9.92184145177908E-02 
2326	 9.97347585290858E-02 
2327	 0.100006491363868 
2328	 9.95157290258455E-02 
2329	 0.099174247150211 
2330	 9.92729411926864E-02 
2331	 9.97201118870659E-02 
2332	 0.100727397281126 
2333	 0.101785085376869 
2334	 0.101517985617799 
2335	 0.101464900145617 
2336	 0.101256363577736 
2337	 0.101134434805678 
2338	 0.101374668986291 
2339	 9.97838537069386E-02 
2340	 9.87744719170556E-02 
2341	 9.80226593108276E-02 
2342	 9.69693838387683E-02 
2343	 9.84896015623254E-02 
2344	 0.100118907222496 
2345	 0.100347384924293 
2346	 9.99605155590188E-02 
2347	 9.84992756370951E-02 
2348	 9.61353353432099E-02 
2349	 9.51020450060005E-02 
2350	 0.096769629836307 
2351	 9.83987196802847E-02 
2352	 0.100093275838878 
2353	 9.99046711734209E-02 
2354	 9.79103589198701E-02 
2355	 9.77057545842905E-02 
2356	 9.65794647772101E-02 
2357	 9.62566718987675E-02 
2358	 9.77876428005141E-02 
2359	 9.69598694421749E-02 
2360	 9.57290844895781E-02 
2361	 9.62732248804636E-02 
2362	 0.09604375934388 
2363	 9.58414744736428E-02 
2364	 9.62331472275382E-02 
2365	 9.59243067978479E-02 
2366	 9.63731117443208E-02 
2367	 9.72058606927797E-02 
2368	 9.73976864824588E-02 
2369	 9.64346992538698E-02 
2370	 9.42969787174437E-02 
2371	 9.29360941183779E-02 
2372	 9.26008676215487E-02 
2373	 9.44981467463728E-02 
2374	 9.49341123849301E-02 
2375	 9.55022397815519E-02 
2376	 0.094496525021651 
2377	 9.12790461698042E-02 
2378	 9.00666048466449E-02 
2379	 8.94050432846028E-02 
2380	 8.88382161707831E-02 
2381	 9.02898625442724E-02 
2382	 0.089592526947603 
2383	 8.60116214276938E-02 
2384	 8.54758349819155E-02 
2385	 8.55923874736106E-02 
2386	 0.086058620844128 
2387	 0.08942395804733 
2388	 9.10893363198475E-02 
2389	 9.09281433783293E-02 
2390	 9.18462227364976E-02 
2391	 9.38130228980888E-02 
2392	 9.39897058819902E-02 
2393	 9.36871359953868E-02 
2394	 9.40273363932877E-02 
2395	 9.40379747546457E-02 
2396	 9.33392625230024E-02 
2397	 0.092956437596971 
2398	 9.17270752315514E-02 
2399	 8.67655447013921E-02 
2400	 8.55304951355921E-02 
2401	 8.66233108930519E-02 
2402	 8.76376714842735E-02 
2403	 8.97556757153179E-02 
2404	 9.04543660546484E-02 
2405	 8.44929218905838E-02 
2406	 8.02164334777441E-02 
2407	 7.92071084824816E-02 
2408	 7.98727433588884E-02 
2409	 8.56121461295962E-02 
2410	 8.87968106760657E-02 
2411	 8.77211872665186E-02 
2412	 8.75974025510435E-02 
2413	 0.085369900075009 
2414	 8.81437410806821E-02 
2415	 9.06533642675137E-02 
2416	 8.40167905610175E-02 
2417	 8.37058925297703E-02 
2418	 8.27338871574553E-02 
2419	 7.72621521136411E-02 
2420	 8.04138215986277E-02 
2421	 0.081022454844274 
2422	 7.80874550027408E-02 
2423	 8.17623216650637E-02 
2424	 8.52644067747126E-02 
2425	 0.085585357819601 
2426	 8.74566941018607E-02 
2427	 0.087839521026734 
2428	 8.54609747359687E-02 
2429	 0.08546609896385 
2430	 8.53530802702807E-02 
2431	 8.42558185540457E-02 
2432	 8.69781538072659E-02 
2433	 9.20549620103258E-02 
2434	 9.34054150445595E-02 
2435	 9.44012733608045E-02 
2436	 9.44831821201844E-02 
2437	 9.06385140060507E-02 
2438	 8.75320489144514E-02 
2439	 8.31549348154896E-02 
2440	 0.081374201321432 
2441	 8.01662061438688E-02 
2442	 8.12002015761034E-02 
2443	 8.97778420360645E-02 
2444	 8.97342600437315E-02 
2445	 8.17706779047981E-02 
2446	 8.10994905595457E-02 
2447	 7.86695646502522E-02 
2448	 0.079833112230815 
2449	 9.40180249395003E-02 
2450	 9.65725074530061E-02 
2451	 8.92151578093218E-02 
2452	 8.82449339715877E-02 
2453	 8.80835495268871E-02 
2454	 8.38864810697402E-02 
2455	 7.93634062961014E-02 
2456	 7.58154489474804E-02 
2457	 6.97952354509673E-02 
2458	 6.58091540636775E-02 
2459	 6.15492684492802E-02 
2460	 6.43938640431769E-02 
2461	 7.17919338523583E-02 
2462	 7.03301304418523E-02 
2463	 7.36876572848637E-02 
2464	 7.49817017307224E-02 
2465	 6.34489458224763E-02 
2466	 6.43731323671437E-02 
2467	 7.56249379413478E-02 
2468	 7.82145557890239E-02 
2469	 7.97998288738782E-02 
2470	 8.58603290459753E-02 
2471	 9.39246982082293E-02 
2472	 9.72872992116409E-02 
2473	 0.100285914044208 
2474	 0.100728659873551 
2475	 9.15446128764777E-02 
2476	 9.40665817922896E-02 
2477	 0.111294739548676 
2478	 0.116053510024331 
2479	 0.113930466423932 
2480	 0.11300995976487 
2481	 0.102866103932287 
2482	 9.25402153180884E-02 
2483	 8.56832837894434E-02 
2484	 8.79733593770974E-02 
2485	 8.92363730504783E-02 
2486	 0.104379764398479 
2487	 0.117872941560524 
2488	 0.145521322361509 
2489	 0.153680614950589 
2490	 0.159727615780607 
2491	 0.165768336008666 
2492	 0.136884581357858 
2493	 8.60433046635163E-02 
2494	 5.75511011510682E-02 
2495	 6.44081782897507E-02 
2496	 7.15135843881504E-02 
2497	 0.109197783077431 
2498	 0.106533096688863 
2499	 5.31645093360744E-02 
2500	 4.26761425545441E-02 
