Wavelength	ref00016.asd
350	 8.61250078153603E-02 
351	 8.62333000131476E-02 
352	 8.59379108588607E-02 
353	 8.68300469297277E-02 
354	 8.68441488300631E-02 
355	 8.69779011940841E-02 
356	 8.79483674923894E-02 
357	 8.88384526271846E-02 
358	 8.92089056137938E-02 
359	 8.94689385487946E-02 
360	 0.090044708352384 
361	 9.00863996042172E-02 
362	 9.01540458551892E-02 
363	 9.06159996599981E-02 
364	 9.15548586392172E-02 
365	 9.21015233808954E-02 
366	 9.24275924032899E-02 
367	 9.26703745923069E-02 
368	 9.27112503223956E-02 
369	 9.29451180856865E-02 
370	 9.32792954752927E-02 
371	 9.36430613122699E-02 
372	 0.094502367034915 
373	 0.094950328276297 
374	 9.53031256551247E-02 
375	 9.63110328396234E-02 
376	 9.68171453824255E-02 
377	 9.73218304318079E-02 
378	 9.80609300968497E-02 
379	 9.87714456524109E-02 
380	 9.96962744989137E-02 
381	 0.100575438817285 
382	 0.101245243744904 
383	 0.10207443625547 
384	 0.102999708171071 
385	 0.104080691965159 
386	 0.10537639778791 
387	 0.106645110026392 
388	 0.108281516213831 
389	 0.10999419465543 
390	 0.110826168275297 
391	 0.112141282825063 
392	 0.113553970710218 
393	 0.114735664703645 
394	 0.116186428892658 
395	 0.118052111852526 
396	 0.119860017894152 
397	 0.121172622789308 
398	 0.122950281511373 
399	 0.124554056859142 
400	 0.125847968260973 
401	 0.127166498016008 
402	 0.128344209044288 
403	 0.129410911541624 
404	 0.130375620401624 
405	 0.131109544484666 
406	 0.132200131684888 
407	 0.133388250878911 
408	 0.134267888331089 
409	 0.13535573455232 
410	 0.136548374263448 
411	 0.137724145954591 
412	 0.138767677479156 
413	 0.139419961252834 
414	 0.140112228686806 
415	 0.141051466819008 
416	 0.141754389539536 
417	 0.14249555050898 
418	 0.143205669139733 
419	 0.143772892482004 
420	 0.144442945252288 
421	 0.145072092452278 
422	 0.145617794273882 
423	 0.14615564264539 
424	 0.146913391471426 
425	 0.147513909410871 
426	 0.147803760294672 
427	 0.14834025305887 
428	 0.148725977587522 
429	 0.149003878414342 
430	 0.149383020789566 
431	 0.150053280692232 
432	 0.150790270740576 
433	 0.151477108935893 
434	 0.152115892689176 
435	 0.152644687040702 
436	 0.153056053787808 
437	 0.153417396516264 
438	 0.153930715475326 
439	 0.154429801740745 
440	 0.154864203047946 
441	 0.155253467547204 
442	 0.155772951809822 
443	 0.156198755536973 
444	 0.156456632529351 
445	 0.156643416246054 
446	 0.156932984502934 
447	 0.157203030224119 
448	 0.157397982475802 
449	 0.15777757285813 
450	 0.15812612141989 
451	 0.158351122942218 
452	 0.158451631456327 
453	 0.158621165733325 
454	 0.158830200318872 
455	 0.159079781540475 
456	 0.159426770206938 
457	 0.159711288939522 
458	 0.159960544252958 
459	 0.160222472710274 
460	 0.160461660699563 
461	 0.160689832408901 
462	 0.160947592241624 
463	 0.161263045032628 
464	 0.161423472611246 
465	 0.161601278609244 
466	 0.161867815554654 
467	 0.162081872988485 
468	 0.162310487492425 
469	 0.162549963043224 
470	 0.1627773231818 
471	 0.162957084849061 
472	 0.163230343986764 
473	 0.163517745378614 
474	 0.163612826600167 
475	 0.163778978879943 
476	 0.163964588009597 
477	 0.164125883972046 
478	 0.164316087896749 
479	 0.164546430676636 
480	 0.164777722513355 
481	 0.164963782205452 
482	 0.165130295067223 
483	 0.165268689521452 
484	 0.165367498090011 
485	 0.165416551284476 
486	 0.165454776322242 
487	 0.165528852072219 
488	 0.165701454311863 
489	 0.166107418237787 
490	 0.166372009709864 
491	 0.166444485823155 
492	 0.166447641149243 
493	 0.166528755453451 
494	 0.166679930553953 
495	 0.166861818925508 
496	 0.167017023415319 
497	 0.167164905320615 
498	 0.167289384831992 
499	 0.167363598790743 
500	 0.167329609968337 
501	 0.167421388164945 
502	 0.167556596189745 
503	 0.167502237137077 
504	 0.167666187946061 
505	 0.167745490946321 
506	 0.167647455917202 
507	 0.167764084551823 
508	 0.167681665140547 
509	 0.167588759474979 
510	 0.167727245654909 
511	 0.167718474783782 
512	 0.167704896143579 
513	 0.167727659745669 
514	 0.167725944614211 
515	 0.167678242502142 
516	 0.167533647162334 
517	 0.167317797822804 
518	 0.167235121143304 
519	 0.167226661281746 
520	 0.167201621699639 
521	 0.167078534665381 
522	 0.166938055666363 
523	 0.166778264043236 
524	 0.166594302475878 
525	 0.166385972531337 
526	 0.166126295825049 
527	 0.165896207188866 
528	 0.165751152240362 
529	 0.165611045190588 
530	 0.165400314376581 
531	 0.165115796541735 
532	 0.164806347089313 
533	 0.164561400566327 
534	 0.164410996079273 
535	 0.164289859270843 
536	 0.163993232061797 
537	 0.163697372965204 
538	 0.163371451709631 
539	 0.162966555005869 
540	 0.162632458377316 
541	 0.162361433640919 
542	 0.162074700751141 
543	 0.161654704872459 
544	 0.161243488837879 
545	 0.160864422375253 
546	 0.160501536929632 
547	 0.160098109504557 
548	 0.159748364930181 
549	 0.159387381153285 
550	 0.158913700138426 
551	 0.158447866083017 
552	 0.157998534952943 
553	 0.157556711115914 
554	 0.157105082002978 
555	 0.15671133928035 
556	 0.156333636546716 
557	 0.15593017312214 
558	 0.155560589470321 
559	 0.155179405094846 
560	 0.154761758329476 
561	 0.154305211939138 
562	 0.153887814044109 
563	 0.153551797178811 
564	 0.153272991348973 
565	 0.152923140492985 
566	 0.152628722284168 
567	 0.152388898176339 
568	 0.152158354337131 
569	 0.151901392829495 
570	 0.151640672575037 
571	 0.151403165585154 
572	 0.151210583950228 
573	 0.150981970984722 
574	 0.150770578644309 
575	 0.150632417912998 
576	 0.150582018189043 
577	 0.150510893678303 
578	 0.150409421616268 
579	 0.150311771220998 
580	 0.15017057613737 
581	 0.150054612958569 
582	 0.149962771652234 
583	 0.149789623817422 
584	 0.149653052306497 
585	 0.149519092128523 
586	 0.14934676342422 
587	 0.149213251664124 
588	 0.149160779962374 
589	 0.149095942958243 
590	 0.148860623206751 
591	 0.148775110776582 
592	 0.148754284740867 
593	 0.148716901726599 
594	 0.148707443072602 
595	 0.148684848134308 
596	 0.148646090553657 
597	 0.14859206065323 
598	 0.148471531428324 
599	 0.148340644032588 
600	 0.148224458204441 
601	 0.148111375856566 
602	 0.147984417487539 
603	 0.147862580916073 
604	 0.147763893391462 
605	 0.147678786758682 
606	 0.147653181135553 
607	 0.147635950524797 
608	 0.147542965847307 
609	 0.14743487695825 
610	 0.147426987861931 
611	 0.147505607787609 
612	 0.147476180025724 
613	 0.147401662848494 
614	 0.147353742177915 
615	 0.147371865156774 
616	 0.147350339444463 
617	 0.147365248806065 
618	 0.147406420804398 
619	 0.147411550122842 
620	 0.147477552812535 
621	 0.147511564674852 
622	 0.147489742553595 
623	 0.14757653477452 
624	 0.147588891450348 
625	 0.147559897533177 
626	 0.147584599791145 
627	 0.147638371459981 
628	 0.14771348704355 
629	 0.14778359982383 
630	 0.147807088966147 
631	 0.147817124513364 
632	 0.147857775074247 
633	 0.147928006475395 
634	 0.1479044313815 
635	 0.147900264748157 
636	 0.14794973170517 
637	 0.148040286270902 
638	 0.148111602711565 
639	 0.148184204424023 
640	 0.14827281541915 
641	 0.148372786471362 
642	 0.148410936663413 
643	 0.148465737257365 
644	 0.148607726766696 
645	 0.14875794929098 
646	 0.148876995642483 
647	 0.148973872049306 
648	 0.149091158685274 
649	 0.149249916934219 
650	 0.149389157309278 
651	 0.149496595650037 
652	 0.149658943374692 
653	 0.149859493813371 
654	 0.150025289944777 
655	 0.150136448497537 
656	 0.150480392874597 
657	 0.15078343478898 
658	 0.150907767086781 
659	 0.150934968633705 
660	 0.151124832378767 
661	 0.151307357436835 
662	 0.151378698114529 
663	 0.151491976789718 
664	 0.151559013212904 
665	 0.15161217792196 
666	 0.151695828951849 
667	 0.15170244333059 
668	 0.151695239345057 
669	 0.151725423826533 
670	 0.151815775644273 
671	 0.151818414478621 
672	 0.151866606358663 
673	 0.152008531068238 
674	 0.151966008117004 
675	 0.151972625858453 
676	 0.152043576623444 
677	 0.152104160389618 
678	 0.152080276670768 
679	 0.152131814069734 
680	 0.152240496178794 
681	 0.1522011829895 
682	 0.152250101223705 
683	 0.152337444019354 
684	 0.152401079502298 
685	 0.152488732089284 
686	 0.152725093364053 
687	 0.152980127176845 
688	 0.15300339533498 
689	 0.153005913627354 
690	 0.153055581008931 
691	 0.153100452114681 
692	 0.152989027325175 
693	 0.153071596945157 
694	 0.153233557549671 
695	 0.153322190224271 
696	 0.153356701603119 
697	 0.153441742923046 
698	 0.153521921751199 
699	 0.153491852187904 
700	 0.153471289098347 
701	 0.153477833790446 
702	 0.153505417700391 
703	 0.153529498081969 
704	 0.153522394053917 
705	 0.153473579023462 
706	 0.153422843055581 
707	 0.153539552480647 
708	 0.153635532921705 
709	 0.153740572740759 
710	 0.153945461944594 
711	 0.154016753879319 
712	 0.154084577723767 
713	 0.154204661955751 
714	 0.15431221820044 
715	 0.154418174672811 
716	 0.154536770808806 
717	 0.154665357701291 
718	 0.154722925408562 
719	 0.154799598976374 
720	 0.155069385886033 
721	 0.155590966576958 
722	 0.155752722915369 
723	 0.15593048107077 
724	 0.156260033705478 
725	 0.156541317687424 
726	 0.156851643036822 
727	 0.157162173548687 
728	 0.157481119207388 
729	 0.157933930841231 
730	 0.158351106803788 
731	 0.158743807174236 
732	 0.159193369797894 
733	 0.159706776309205 
734	 0.160317053529163 
735	 0.160971079276142 
736	 0.16153493975865 
737	 0.162097898968112 
738	 0.162702588271317 
739	 0.163364558437013 
740	 0.1640266460108 
741	 0.164805465261932 
742	 0.165683172915323 
743	 0.166607331158355 
744	 0.167658488167206 
745	 0.168659012672572 
746	 0.16967192649521 
747	 0.170913494919153 
748	 0.172112362157714 
749	 0.173395982254875 
750	 0.174828796246992 
751	 0.176276714130643 
752	 0.177785082058456 
753	 0.179249777328999 
754	 0.180640228121094 
755	 0.182319686269259 
756	 0.183952856515054 
757	 0.185517802986756 
758	 0.187185268038456 
759	 0.188728844581214 
760	 0.190441994800583 
761	 0.192394069283133 
762	 0.193769153665714 
763	 0.195178418865888 
764	 0.196513096958713 
765	 0.197550187815626 
766	 0.198417000229518 
767	 0.199336753048618 
768	 0.200323013442934 
769	 0.201291335121144 
770	 0.202057744564532 
771	 0.202807882365148 
772	 0.203606227857897 
773	 0.204393654418648 
774	 0.204988079268643 
775	 0.205553766039613 
776	 0.206186543162636 
777	 0.206780704897368 
778	 0.207260474424351 
779	 0.207671922055722 
780	 0.208084127614212 
781	 0.208511172048109 
782	 0.208928980128705 
783	 0.209294874052199 
784	 0.209583883372639 
785	 0.209951578538015 
786	 0.210264929060398 
787	 0.210489414427468 
788	 0.21072289276433 
789	 0.21106720230017 
790	 0.211374584424031 
791	 0.211568857327027 
792	 0.211827410981548 
793	 0.21207762003372 
794	 0.21232882264714 
795	 0.212582568358085 
796	 0.212703994137108 
797	 0.212976243826362 
798	 0.213324026800967 
799	 0.213492107664607 
800	 0.213662177112359 
801	 0.213818865810542 
802	 0.213957403252688 
803	 0.214108465653494 
804	 0.214344210983669 
805	 0.214645122936605 
806	 0.214929013652142 
807	 0.215027830275244 
808	 0.215200441353508 
809	 0.215372221650704 
810	 0.215421170542857 
811	 0.215492660335371 
812	 0.215515875400021 
813	 0.215535398471225 
814	 0.215615454595961 
815	 0.215398586568361 
816	 0.215420547449019 
817	 0.215782046889479 
818	 0.216028122579369 
819	 0.216237274713842 
820	 0.216476894340866 
821	 0.216691642969773 
822	 0.216610498253051 
823	 0.216599736290839 
824	 0.216779232378602 
825	 0.217091239561662 
826	 0.217244750519447 
827	 0.217351783178658 
828	 0.217408609346099 
829	 0.217409796562357 
830	 0.217592556326904 
831	 0.217756071364509 
832	 0.217847581824188 
833	 0.21794951240578 
834	 0.218125601772142 
835	 0.218289782682647 
836	 0.21843086862425 
837	 0.218639712835944 
838	 0.218744769506249 
839	 0.218878012007236 
840	 0.219091556014111 
841	 0.219169502533618 
842	 0.219156384769434 
843	 0.219189962623368 
844	 0.219370942875156 
845	 0.21957774278363 
846	 0.219868692754623 
847	 0.220031375536519 
848	 0.219882178061865 
849	 0.219989779629288 
850	 0.220274400430595 
851	 0.220448876351197 
852	 0.220204767823765 
853	 0.220132193448707 
854	 0.220215457268106 
855	 0.220395845878082 
856	 0.220631347941292 
857	 0.220754424450888 
858	 0.220849622357327 
859	 0.22096903647259 
860	 0.221038936812411 
861	 0.221058292141037 
862	 0.221189425212946 
863	 0.221428143672579 
864	 0.221225290187587 
865	 0.221242493839809 
866	 0.221434280437369 
867	 0.221558744494029 
868	 0.221680887568748 
869	 0.221802848876788 
870	 0.221830021150992 
871	 0.221733964402036 
872	 0.222045350258534 
873	 0.222211902281492 
874	 0.222125857245004 
875	 0.22205368435461 
876	 0.222158902303848 
877	 0.22210808354304 
878	 0.22198785362121 
879	 0.222268461347984 
880	 0.222268866174571 
881	 0.222416358088502 
882	 0.222740695038639 
883	 0.222569997919483 
884	 0.222591273156981 
885	 0.222656068408573 
886	 0.22261665413619 
887	 0.222635708095949 
888	 0.222696802813996 
889	 0.222694208230842 
890	 0.222572013056894 
891	 0.222437169712011 
892	 0.222589024793107 
893	 0.222719348409502 
894	 0.222493012175518 
895	 0.222254867534977 
896	 0.222057638093359 
897	 0.221935606498757 
898	 0.221890688662801 
899	 0.221878109218986 
900	 0.222016504116208 
901	 0.222097317787849 
902	 0.221916682676557 
903	 0.22218317038759 
904	 0.222347182581421 
905	 0.222346961440971 
906	 0.222380846871185 
907	 0.221934484707326 
908	 0.221288885980866 
909	 0.221004492518404 
910	 0.221576042501035 
911	 0.221682034487843 
912	 0.221566962441489 
913	 0.221508695663528 
914	 0.221594226693311 
915	 0.221556501360639 
916	 0.221582597205198 
917	 0.221764348326555 
918	 0.22198572653296 
919	 0.221767256678808 
920	 0.221802735485455 
921	 0.22230235815123 
922	 0.222626785059362 
923	 0.222186812975059 
924	 0.221975299806464 
925	 0.222385609715074 
926	 0.222424493921722 
927	 0.221956517312261 
928	 0.221298763836765 
929	 0.220599250288008 
930	 0.219457199342089 
931	 0.219116125555776 
932	 0.219140241010548 
933	 0.2186795001356 
934	 0.217297836431828 
935	 0.21696559993838 
936	 0.217695360912448 
937	 0.21878731076536 
938	 0.219589116711744 
939	 0.219451230595177 
940	 0.219387540444127 
941	 0.219797772029546 
942	 0.219254629038618 
943	 0.218511563868298 
944	 0.218005672011168 
945	 0.217878046946806 
946	 0.217772582515305 
947	 0.218278650115496 
948	 0.218259707418163 
949	 0.21748963529473 
950	 0.218426726526742 
951	 0.218127859922773 
952	 0.217164353413053 
953	 0.21683218570236 
954	 0.217894046545903 
955	 0.217411789027803 
956	 0.216850862738369 
957	 0.217393176560808 
958	 0.217418502256678 
959	 0.216324077472041 
960	 0.215932705607009 
961	 0.217091200741168 
962	 0.217853471088289 
963	 0.217904111770151 
964	 0.217883392836435 
965	 0.218140808135643 
966	 0.218131366675646 
967	 0.21889035734323 
968	 0.218843843452823 
969	 0.2177237663809 
970	 0.217962090710466 
971	 0.21908163026438 
972	 0.219179553816939 
973	 0.218304358048174 
974	 0.219377494859413 
975	 0.218465414759987 
976	 0.218454543238296 
977	 0.220020492992307 
978	 0.219665677976865 
979	 0.218646493651414 
980	 0.219002271545427 
981	 0.220265715847414 
982	 0.219614400532179 
983	 0.219600579472236 
984	 0.220221190351389 
985	 0.22092388043683 
986	 0.221097680491328 
987	 0.221356800945906 
988	 0.220532479197543 
989	 0.219691234866226 
990	 0.220976316108206 
991	 0.221517599092913 
992	 0.221659121825652 
993	 0.221612921125056 
994	 0.221527494613437 
995	 0.222359674509942 
996	 0.222484703675712 
997	 0.221752041324823 
998	 0.221108726191442 
999	 0.2220609314785 
1000	 0.222954397218582 
1001	 0.218550126193725 
1002	 0.218758314260383 
1003	 0.218903015750182 
1004	 0.21900126295938 
1005	 0.219118347613138 
1006	 0.219230233400606 
1007	 0.21937618009904 
1008	 0.219528173263503 
1009	 0.219671465853774 
1010	 0.219837713934356 
1011	 0.220031179303055 
1012	 0.220141194127079 
1013	 0.220267793268928 
1014	 0.220415851083193 
1015	 0.220502777437718 
1016	 0.220669444713197 
1017	 0.220997892949367 
1018	 0.221204063892358 
1019	 0.221393274231641 
1020	 0.22157293136059 
1021	 0.221722549854305 
1022	 0.221799930173558 
1023	 0.221784105711349 
1024	 0.221951377244488 
1025	 0.22207127879965 
1026	 0.222204189431403 
1027	 0.222515119573506 
1028	 0.222742450348565 
1029	 0.222852455933756 
1030	 0.223041070124158 
1031	 0.223285976933782 
1032	 0.223420689301876 
1033	 0.223577741604266 
1034	 0.223810824214069 
1035	 0.223968360716035 
1036	 0.224030565131029 
1037	 0.224186726273903 
1038	 0.224387821237336 
1039	 0.224527534876405 
1040	 0.22480515865583 
1041	 0.225005933019679 
1042	 0.225145226860252 
1043	 0.225350029072376 
1044	 0.225452123021185 
1045	 0.225626189149522 
1046	 0.225779899776834 
1047	 0.22584301863163 
1048	 0.226053129962145 
1049	 0.22612379153056 
1050	 0.22621754389426 
1051	 0.226339364661204 
1052	 0.226596446174235 
1053	 0.226698211360083 
1054	 0.226822999586483 
1055	 0.227032293135113 
1056	 0.227204225850525 
1057	 0.22729446028301 
1058	 0.227370112924851 
1059	 0.227421715468704 
1060	 0.227423682934835 
1061	 0.227461606968549 
1062	 0.227516743111238 
1063	 0.227576062681606 
1064	 0.227654204263103 
1065	 0.227699042856389 
1066	 0.227711900437077 
1067	 0.22770410241722 
1068	 0.227689672112577 
1069	 0.227636158137491 
1070	 0.227609608740167 
1071	 0.227610272867997 
1072	 0.22756514897427 
1073	 0.227491275306157 
1074	 0.227394342449531 
1075	 0.227295918794897 
1076	 0.22722283294597 
1077	 0.227112295766202 
1078	 0.226926348010603 
1079	 0.226799503598711 
1080	 0.22675651462063 
1081	 0.226709098710268 
1082	 0.226723670948037 
1083	 0.22678805123299 
1084	 0.226767680029141 
1085	 0.226654044110139 
1086	 0.226512265558623 
1087	 0.226374044925622 
1088	 0.226286732997676 
1089	 0.226254571802333 
1090	 0.226185942426963 
1091	 0.226097195911587 
1092	 0.226093807335827 
1093	 0.226055506655546 
1094	 0.226024376424198 
1095	 0.226061142436317 
1096	 0.226036101882962 
1097	 0.225914945383717 
1098	 0.225824533882266 
1099	 0.225720150168415 
1100	 0.225670387398497 
1101	 0.225626127641773 
1102	 0.225587423870262 
1103	 0.225543900368119 
1104	 0.225426712650347 
1105	 0.225242036899455 
1106	 0.225000301239943 
1107	 0.224842838144187 
1108	 0.224745264344683 
1109	 0.224578193852822 
1110	 0.224400338548129 
1111	 0.224171520270237 
1112	 0.223812043532663 
1113	 0.223483236961413 
1114	 0.223101945406994 
1115	 0.222747594554072 
1116	 0.222387715704693 
1117	 0.222045486392139 
1118	 0.221671008980882 
1119	 0.221240481392452 
1120	 0.220736683339267 
1121	 0.220298301804017 
1122	 0.219961716845751 
1123	 0.219759099486287 
1124	 0.219652044134356 
1125	 0.219507734485897 
1126	 0.219344585310007 
1127	 0.219089451327845 
1128	 0.218995938299268 
1129	 0.219122314149727 
1130	 0.218983338774502 
1131	 0.218747184453912 
1132	 0.218575611362098 
1133	 0.218333041680119 
1134	 0.21805664685155 
1135	 0.217906523779081 
1136	 0.21780819524133 
1137	 0.217416442404021 
1138	 0.216892300139704 
1139	 0.216430416765529 
1140	 0.215921945831834 
1141	 0.215503116376716 
1142	 0.215077319345735 
1143	 0.214557871434867 
1144	 0.213882040235814 
1145	 0.213346619988468 
1146	 0.212804412700764 
1147	 0.212335640320807 
1148	 0.211922299950917 
1149	 0.211591811448738 
1150	 0.21129550191677 
1151	 0.21110944052822 
1152	 0.211035033942544 
1153	 0.211036610812558 
1154	 0.21098279836174 
1155	 0.210932694846871 
1156	 0.210945340703132 
1157	 0.210913221515386 
1158	 0.210965032329376 
1159	 0.211098242079419 
1160	 0.21113357703963 
1161	 0.211150702564233 
1162	 0.211128896320941 
1163	 0.211051207252086 
1164	 0.21098578025316 
1165	 0.210905408832566 
1166	 0.210819871146323 
1167	 0.210749783374887 
1168	 0.210635381781962 
1169	 0.210470261608487 
1170	 0.210341160829638 
1171	 0.210200634333371 
1172	 0.210000989952966 
1173	 0.209874820617098 
1174	 0.209748857978751 
1175	 0.209574242499049 
1176	 0.209426543330746 
1177	 0.209212529126789 
1178	 0.208959615137628 
1179	 0.208656456803528 
1180	 0.208284303470217 
1181	 0.207929268168701 
1182	 0.207512725186419 
1183	 0.20716648228301 
1184	 0.20687816540569 
1185	 0.206555146707761 
1186	 0.206200825564724 
1187	 0.205911050719709 
1188	 0.205615515857282 
1189	 0.205357613714404 
1190	 0.205235649838967 
1191	 0.205128896082073 
1192	 0.205026986111615 
1193	 0.204953535102089 
1194	 0.204880767834456 
1195	 0.204795311311857 
1196	 0.204765067531684 
1197	 0.204772513492146 
1198	 0.204789473665236 
1199	 0.204869459321177 
1200	 0.204885115519109 
1201	 0.204882769595355 
1202	 0.20487421010833 
1203	 0.204830423622643 
1204	 0.204799306140334 
1205	 0.20478257875336 
1206	 0.204753350818404 
1207	 0.204696068111424 
1208	 0.204662530015836 
1209	 0.204621690079618 
1210	 0.204581256768366 
1211	 0.204649688904023 
1212	 0.204802813328346 
1213	 0.204919259592204 
1214	 0.205085216780935 
1215	 0.205264557683919 
1216	 0.205393814541331 
1217	 0.205635778000758 
1218	 0.20597294285568 
1219	 0.206309279748238 
1220	 0.206677014213609 
1221	 0.207081301644663 
1222	 0.207568982588238 
1223	 0.207988523869845 
1224	 0.20836965463647 
1225	 0.208822080935874 
1226	 0.209312885572566 
1227	 0.209751687724298 
1228	 0.210209778928108 
1229	 0.210683797932226 
1230	 0.211099398216877 
1231	 0.21148867237639 
1232	 0.211891894845138 
1233	 0.212350814676098 
1234	 0.212713180596212 
1235	 0.213005214105045 
1236	 0.213329081145851 
1237	 0.213628859659285 
1238	 0.213941579751351 
1239	 0.214300396456386 
1240	 0.214573908405557 
1241	 0.214781926540715 
1242	 0.215035908550527 
1243	 0.215284768966368 
1244	 0.215494836723685 
1245	 0.215716429769658 
1246	 0.215918364061784 
1247	 0.216051682267396 
1248	 0.216209620498389 
1249	 0.216363943726668 
1250	 0.216557436063334 
1251	 0.216796810982914 
1252	 0.217000364937849 
1253	 0.217189494175863 
1254	 0.217413561169078 
1255	 0.217576263492629 
1256	 0.217651912392305 
1257	 0.217806974029636 
1258	 0.217996053270752 
1259	 0.218161652513666 
1260	 0.218360711786627 
1261	 0.218506997509598 
1262	 0.218613708448319 
1263	 0.21871977826324 
1264	 0.21878662159529 
1265	 0.218878829821785 
1266	 0.218949300827516 
1267	 0.219062400236013 
1268	 0.219231080333371 
1269	 0.219358223136714 
1270	 0.219536160725584 
1271	 0.219629068111248 
1272	 0.219643444114556 
1273	 0.219632752546355 
1274	 0.219662576808874 
1275	 0.21966078526589 
1276	 0.21969062304679 
1277	 0.21977835516695 
1278	 0.219799451246262 
1279	 0.219797695574716 
1280	 0.219773420789201 
1281	 0.219707699151947 
1282	 0.219673058997132 
1283	 0.219655953088083 
1284	 0.219584031730538 
1285	 0.219482477125632 
1286	 0.219409234227429 
1287	 0.219312156100604 
1288	 0.21921182562442 
1289	 0.219150472910767 
1290	 0.219058933945037 
1291	 0.2189672376938 
1292	 0.2188066586647 
1293	 0.21854103088201 
1294	 0.218370089383203 
1295	 0.218218330040175 
1296	 0.218029860082671 
1297	 0.21786480771162 
1298	 0.217792553470896 
1299	 0.217622105483229 
1300	 0.217377087520834 
1301	 0.217153458365573 
1302	 0.21692577781781 
1303	 0.21670146377688 
1304	 0.216460525770139 
1305	 0.216214914102816 
1306	 0.216002291161785 
1307	 0.215724588243263 
1308	 0.215353336448511 
1309	 0.215072188388841 
1310	 0.21483065984115 
1311	 0.214544177556203 
1312	 0.214248734545688 
1313	 0.214004277454134 
1314	 0.213774101386907 
1315	 0.213509570913235 
1316	 0.213329085431484 
1317	 0.21306806054757 
1318	 0.212667316209316 
1319	 0.212328487787293 
1320	 0.212007264701642 
1321	 0.211684850656879 
1322	 0.211326440280952 
1323	 0.21098259127496 
1324	 0.210579520939879 
1325	 0.21008950837213 
1326	 0.209655474880006 
1327	 0.209176959572873 
1328	 0.208794171354679 
1329	 0.20850095136718 
1330	 0.208123813429598 
1331	 0.207753121079056 
1332	 0.20740458485807 
1333	 0.207012339568828 
1334	 0.206662220017631 
1335	 0.206388522284314 
1336	 0.206097221606011 
1337	 0.205804945376921 
1338	 0.205480293889988 
1339	 0.205157462215105 
1340	 0.204802530263879 
1341	 0.204383538195247 
1342	 0.203910165359802 
1343	 0.203262113741655 
1344	 0.202671521007721 
1345	 0.201992593767497 
1346	 0.201194812857315 
1347	 0.200468173794387 
1348	 0.199761276215921 
1349	 0.198982586845673 
1350	 0.198132026142468 
1351	 0.197191855879615 
1352	 0.196375669939348 
1353	 0.195158131181056 
1354	 0.193630063646847 
1355	 0.191873884139105 
1356	 0.190236073657249 
1357	 0.187885252648255 
1358	 0.187339473915006 
1359	 0.184208078968627 
1360	 0.179059618923276 
1361	 0.174904466231647 
1362	 0.176449928617827 
1363	 0.174014744077096 
1364	 0.180487179635919 
1365	 0.179601106733026 
1366	 0.165845112826531 
1367	 0.16343800898884 
1368	 0.168196601092023 
1369	 0.169009762822366 
1370	 0.172522503330405 
1371	 0.1725370178323 
1372	 0.168970806375251 
1373	 0.167399124609725 
1374	 0.164489009906451 
1375	 0.165082171635067 
1376	 0.166635249705693 
1377	 0.16517040649358 
1378	 0.165042769662598 
1379	 0.165064615721635 
1380	 0.164962021843875 
1381	 0.164661412034091 
1382	 0.165107671958204 
1383	 0.166627280365838 
1384	 0.166019144201743 
1385	 0.165291508091214 
1386	 0.163430029614228 
1387	 0.15955604963805 
1388	 0.158145227990632 
1389	 0.15740309934167 
1390	 0.156862778762003 
1391	 0.157244978542581 
1392	 0.157055492564634 
1393	 0.157213716775168 
1394	 0.156166485902451 
1395	 0.153455025692696 
1396	 0.153056880479523 
1397	 0.152961367895199 
1398	 0.153152025057613 
1399	 0.155256042921739 
1400	 0.156140566413653 
1401	 0.156073614015179 
1402	 0.156335427603569 
1403	 0.15691300177691 
1404	 0.15696089838732 
1405	 0.156579407022944 
1406	 0.15628948620534 
1407	 0.156966404562661 
1408	 0.15655561572335 
1409	 0.156513747872045 
1410	 0.157034487194537 
1411	 0.157466983585226 
1412	 0.157846923504803 
1413	 0.158135034366759 
1414	 0.158650503265962 
1415	 0.15878947167931 
1416	 0.158546968670402 
1417	 0.158646468491667 
1418	 0.158772296025154 
1419	 0.159013492943953 
1420	 0.159351166746262 
1421	 0.159709717706108 
1422	 0.160143252423525 
1423	 0.16049685412289 
1424	 0.160880131803955 
1425	 0.161195311326421 
1426	 0.161639170369513 
1427	 0.161720878769975 
1428	 0.161442199527734 
1429	 0.161516332149011 
1430	 0.161540396975999 
1431	 0.161629829835738 
1432	 0.162110083310593 
1433	 0.162294790421833 
1434	 0.162228398869944 
1435	 0.162265002454084 
1436	 0.162261775720326 
1437	 0.162293336605046 
1438	 0.162275598194277 
1439	 0.16236913936081 
1440	 0.162503969619216 
1441	 0.162724433305953 
1442	 0.163075210887238 
1443	 0.163401896540887 
1444	 0.163722608958575 
1445	 0.163948002829385 
1446	 0.164234684674537 
1447	 0.164666961719519 
1448	 0.164931752872621 
1449	 0.165221848689921 
1450	 0.16542747107977 
1451	 0.165467725849587 
1452	 0.165676951750985 
1453	 0.165952355990907 
1454	 0.166207023684711 
1455	 0.166544497485634 
1456	 0.166741935789375 
1457	 0.166867448872121 
1458	 0.167047570829694 
1459	 0.167280408142301 
1460	 0.167344268084596 
1461	 0.167359587172773 
1462	 0.167374782786004 
1463	 0.167179571149609 
1464	 0.167163869295706 
1465	 0.167268672665328 
1466	 0.16740274373754 
1467	 0.167651689047255 
1468	 0.167798717445947 
1469	 0.16794859262342 
1470	 0.168077707131903 
1471	 0.168035281812406 
1472	 0.168179159940618 
1473	 0.168362611021409 
1474	 0.168675822611317 
1475	 0.16920736919585 
1476	 0.169570820097527 
1477	 0.169978690079761 
1478	 0.170285015500938 
1479	 0.170414756030249 
1480	 0.170618052182725 
1481	 0.17073091073478 
1482	 0.171010231835744 
1483	 0.171436895885605 
1484	 0.171773213685478 
1485	 0.172152441543224 
1486	 0.172523490509316 
1487	 0.172776815249523 
1488	 0.173136405837218 
1489	 0.17349700366208 
1490	 0.17385509230902 
1491	 0.174270016052715 
1492	 0.174567538610017 
1493	 0.174859122359658 
1494	 0.175182445109601 
1495	 0.175499026137691 
1496	 0.175802309172977 
1497	 0.176074898839971 
1498	 0.17635087424609 
1499	 0.176657614473927 
1500	 0.176930734788275 
1501	 0.177245315526406 
1502	 0.177671940031191 
1503	 0.177942625102467 
1504	 0.178127042819655 
1505	 0.178353353130538 
1506	 0.178521702862384 
1507	 0.17874454533822 
1508	 0.179006742093479 
1509	 0.17925362840247 
1510	 0.179515060209141 
1511	 0.179754052522022 
1512	 0.179987710404157 
1513	 0.180213994179419 
1514	 0.180409246804246 
1515	 0.180635634891653 
1516	 0.180886448475905 
1517	 0.181123981630849 
1518	 0.181350137638682 
1519	 0.181616107449013 
1520	 0.181916538257844 
1521	 0.182173735958831 
1522	 0.182473532224287 
1523	 0.18269662164563 
1524	 0.182829056928459 
1525	 0.183005329722353 
1526	 0.183123034889836 
1527	 0.183346228409706 
1528	 0.183683589542037 
1529	 0.183923932883135 
1530	 0.184183893187196 
1531	 0.184411546847005 
1532	 0.184553952378981 
1533	 0.184729761571103 
1534	 0.184944886317433 
1535	 0.185120717793996 
1536	 0.185236873305199 
1537	 0.185402431467502 
1538	 0.185561914150897 
1539	 0.18576487684496 
1540	 0.18605014669201 
1541	 0.18627865897307 
1542	 0.186496862928291 
1543	 0.186719282211657 
1544	 0.186901121812859 
1545	 0.187111083083331 
1546	 0.18737255473195 
1547	 0.187588544558896 
1548	 0.187782961344645 
1549	 0.187979745918122 
1550	 0.188141020926465 
1551	 0.188323069323199 
1552	 0.188551390649429 
1553	 0.188729451503708 
1554	 0.188883277599153 
1555	 0.189036413387763 
1556	 0.189137780812682 
1557	 0.189263898196028 
1558	 0.189436329774007 
1559	 0.189561404442904 
1560	 0.189612199775143 
1561	 0.189744169078529 
1562	 0.189912983624787 
1563	 0.190065069946498 
1564	 0.190242212103413 
1565	 0.190469744619258 
1566	 0.190680490149605 
1567	 0.190917987289724 
1568	 0.191087148373041 
1569	 0.191289618370496 
1570	 0.19141572982268 
1571	 0.191425811951867 
1572	 0.19154159692115 
1573	 0.191712877827964 
1574	 0.191787074351869 
1575	 0.1918181451889 
1576	 0.191925708419083 
1577	 0.192001394174192 
1578	 0.192129734584699 
1579	 0.192342427987804 
1580	 0.192511453222628 
1581	 0.192669039070397 
1582	 0.192796908721934 
1583	 0.192925226190806 
1584	 0.193060468217926 
1585	 0.193157083178098 
1586	 0.193280714252784 
1587	 0.193465873787986 
1588	 0.193550821607855 
1589	 0.193554972325722 
1590	 0.193656870763849 
1591	 0.193767024035986 
1592	 0.19386726166392 
1593	 0.194015362340437 
1594	 0.19413619656699 
1595	 0.194230423218556 
1596	 0.194305531397409 
1597	 0.194396010483548 
1598	 0.194462862038078 
1599	 0.194459968239001 
1600	 0.19452868642162 
1601	 0.194647392031482 
1602	 0.194725916052354 
1603	 0.194811909614042 
1604	 0.194869172592169 
1605	 0.194869665950328 
1606	 0.194964147205043 
1607	 0.195083639235097 
1608	 0.195220967556781 
1609	 0.195453316939607 
1610	 0.195560743944301 
1611	 0.195626841138561 
1612	 0.195659529353657 
1613	 0.195590506854575 
1614	 0.195652896037389 
1615	 0.195780865372192 
1616	 0.19580946234952 
1617	 0.19586450194331 
1618	 0.195866566173235 
1619	 0.195727215937243 
1620	 0.195748440032215 
1621	 0.195908131453077 
1622	 0.195874533253543 
1623	 0.195796399269662 
1624	 0.195740724077328 
1625	 0.195544919545251 
1626	 0.195516234045921 
1627	 0.195627540496401 
1628	 0.195632716669473 
1629	 0.195631455989724 
1630	 0.195619209536644 
1631	 0.195583146316699 
1632	 0.195550501747983 
1633	 0.195513930554815 
1634	 0.19549330560269 
1635	 0.195440793855742 
1636	 0.195451391934454 
1637	 0.195489721137347 
1638	 0.195596642622785 
1639	 0.195815720118035 
1640	 0.195868669891056 
1641	 0.195890803239521 
1642	 0.195926672666182 
1643	 0.195845792095128 
1644	 0.19587910641492 
1645	 0.196024229028866 
1646	 0.196084600184824 
1647	 0.196100745742742 
1648	 0.196162071794934 
1649	 0.196254380356958 
1650	 0.196271559993836 
1651	 0.196299004664906 
1652	 0.196252023262521 
1653	 0.196081017372633 
1654	 0.196064317708128 
1655	 0.196098494483316 
1656	 0.19606410771218 
1657	 0.196104058820503 
1658	 0.195965219322001 
1659	 0.195759009976432 
1660	 0.195686737565475 
1661	 0.195607593852478 
1662	 0.195537986688536 
1663	 0.195487191503927 
1664	 0.195340863503236 
1665	 0.195208525322055 
1666	 0.195066838525703 
1667	 0.194927598329868 
1668	 0.194783137111777 
1669	 0.194579044479741 
1670	 0.194408670231622 
1671	 0.194205773264039 
1672	 0.193817504824272 
1673	 0.19344687899422 
1674	 0.193167413226106 
1675	 0.19275502654204 
1676	 0.192350760952525 
1677	 0.191954219472828 
1678	 0.191274740100036 
1679	 0.190436878893466 
1680	 0.189667486959691 
1681	 0.188746217557087 
1682	 0.187689004894164 
1683	 0.186722991257042 
1684	 0.185654278091842 
1685	 0.184490072107064 
1686	 0.183351575872436 
1687	 0.182208468042584 
1688	 0.180996414134266 
1689	 0.17981026635884 
1690	 0.178668543643103 
1691	 0.177664095761838 
1692	 0.17677144694196 
1693	 0.175971132052644 
1694	 0.175334253055244 
1695	 0.17468288453651 
1696	 0.174100705957688 
1697	 0.173559414140347 
1698	 0.1730594710683 
1699	 0.172563309125268 
1700	 0.172073406656323 
1701	 0.171646882354621 
1702	 0.17124040411476 
1703	 0.170879657305385 
1704	 0.170649299860141 
1705	 0.170359031361372 
1706	 0.17000664468841 
1707	 0.169727811839157 
1708	 0.169408231295861 
1709	 0.169245547124264 
1710	 0.169316752279407 
1711	 0.169229015096036 
1712	 0.169116362453438 
1713	 0.169044124592569 
1714	 0.168941205005931 
1715	 0.168789655990245 
1716	 0.168696956119293 
1717	 0.168559911716178 
1718	 0.168292158989955 
1719	 0.16803952704806 
1720	 0.167845728326237 
1721	 0.167538590777323 
1722	 0.167125038827767 
1723	 0.16679918081929 
1724	 0.166417650241579 
1725	 0.166186339426172 
1726	 0.166059823046802 
1727	 0.165882863950668 
1728	 0.165749032447895 
1729	 0.165698944187054 
1730	 0.165612979236678 
1731	 0.165602877348225 
1732	 0.165783488834037 
1733	 0.165902419337153 
1734	 0.166104373197916 
1735	 0.166403422952694 
1736	 0.166649925931974 
1737	 0.166790089710948 
1738	 0.167088781832705 
1739	 0.16760526960086 
1740	 0.16792519888552 
1741	 0.168140591628181 
1742	 0.168510625655033 
1743	 0.168794743970354 
1744	 0.169026940692897 
1745	 0.169313387393794 
1746	 0.169452660724529 
1747	 0.169467722039559 
1748	 0.169553752467015 
1749	 0.169620872454409 
1750	 0.169679062978928 
1751	 0.16981225597952 
1752	 0.169795531015012 
1753	 0.169818422887599 
1754	 0.169922836229143 
1755	 0.169783778166948 
1756	 0.169571153956268 
1757	 0.16942851922772 
1758	 0.169239749153068 
1759	 0.169049105994583 
1760	 0.168830245893451 
1761	 0.168458631656774 
1762	 0.168302098874364 
1763	 0.168203877430264 
1764	 0.168123320821972 
1765	 0.168273804847266 
1766	 0.168281594234301 
1767	 0.168196212854206 
1768	 0.168204887967521 
1769	 0.168127703832241 
1770	 0.168266560501247 
1771	 0.168577739057198 
1772	 0.168898637243948 
1773	 0.169462597178891 
1774	 0.169723548917262 
1775	 0.169908743529765 
1776	 0.169988763885298 
1777	 0.169908634807697 
1778	 0.170105933700417 
1779	 0.170415701352718 
1780	 0.170517968110899 
1781	 0.170680125642619 
1782	 0.170633938565499 
1783	 0.170447100967416 
1784	 0.170605046094576 
1785	 0.170983946081754 
1786	 0.171201262856773 
1787	 0.171114571454798 
1788	 0.170886339684475 
1789	 0.170528899349755 
1790	 0.170276092523907 
1791	 0.170385378563751 
1792	 0.170275963425298 
1793	 0.170022355512409 
1794	 0.169919248854415 
1795	 0.169657622552247 
1796	 0.169583926822058 
1797	 0.169358952668881 
1798	 0.16893250405013 
1799	 0.168647279710127 
1800	 0.168369106035669 
1801	 0.167414755940219 
1802	 0.168371811825243 
1803	 0.167920433816857 
1804	 0.165898070427536 
1805	 0.165124651410829 
1806	 0.164565364453246 
1807	 0.164083944680368 
1808	 0.16466799679118 
1809	 0.16465889850034 
1810	 0.164475205520742 
1811	 0.163643858777909 
1812	 0.163540960165933 
1813	 0.163681882547549 
1814	 0.163757219557551 
1815	 0.164094859201073 
1816	 0.16450815781624 
1817	 0.166196701098407 
1818	 0.166182429261975 
1819	 0.165346138254454 
1820	 0.163628040785692 
1821	 0.162268619062 
1822	 0.157639623170358 
1823	 0.156291643936588 
1824	 0.158019457838998 
1825	 0.158867600231838 
1826	 0.163017823752095 
1827	 0.164762573119777 
1828	 0.165613360355504 
1829	 0.165178628141881 
1830	 0.164782160968319 
1831	 0.158759309686833 
1832	 0.156445994471087 
1833	 0.157685517237886 
1834	 0.157399707742244 
1835	 0.157559219837172 
1836	 0.161302139634793 
1837	 0.163042840909429 
1838	 0.174450160673461 
1839	 0.193374510956312 
1840	 0.23068446050046 
1841	 0.235287875051289 
1842	 0.224265675303602 
1843	 0.224491762172995 
1844	 0.206897393110048 
1845	 0.202128252608418 
1846	 0.222433165040339 
1847	 0.222372384537275 
1848	 0.214996913669118 
1849	 0.195970831906385 
1850	 0.180094821537991 
1851	 0.15273941878116 
1852	 0.140036460709911 
1853	 0.135609565535994 
1854	 0.126834958273919 
1855	 0.113992968591263 
1856	 0.114560396376026 
1857	 0.114851044576196 
1858	 0.122100850715368 
1859	 0.141256415769315 
1860	 0.191131047486115 
1861	 0.19454241210132 
1862	 0.178235733300657 
1863	 0.177720847522724 
1864	 0.154615708009373 
1865	 0.152403818573871 
1866	 0.171988743389304 
1867	 0.203156433722455 
1868	 0.199178252303206 
1869	 0.186366116231171 
1870	 0.188523654742179 
1871	 0.181283471461587 
1872	 0.180739409067559 
1873	 0.214044120598927 
1874	 0.205950933297399 
1875	 0.168148909326554 
1876	 0.156143053749417 
1877	 0.146657383668946 
1878	 0.141518119872886 
1879	 0.142309523567396 
1880	 0.145216178809506 
1881	 0.145714551176837 
1882	 0.144708345606147 
1883	 0.143462338284361 
1884	 0.141751439161134 
1885	 0.142084340495563 
1886	 0.143955589795968 
1887	 0.142699021883278 
1888	 0.141805244940997 
1889	 0.143495764131807 
1890	 0.142678963951678 
1891	 0.138457814402615 
1892	 0.13647165806766 
1893	 0.134395371915258 
1894	 0.13426331649645 
1895	 0.135719348571031 
1896	 0.138390704631832 
1897	 0.148393022300254 
1898	 0.150532436855172 
1899	 0.148816428713912 
1900	 0.150260933497647 
1901	 0.152537157242763 
1902	 0.155355302083384 
1903	 0.153249575258105 
1904	 0.146998205511929 
1905	 0.145598585724325 
1906	 0.143008922960034 
1907	 0.136059322321063 
1908	 0.140212858246564 
1909	 0.148530050667447 
1910	 0.137210965972544 
1911	 0.129498476552493 
1912	 0.13124600012685 
1913	 0.134752542248156 
1914	 0.135425707736929 
1915	 0.139545081407184 
1916	 0.142768633010333 
1917	 0.14521081702315 
1918	 0.144397548790555 
1919	 0.14510747518439 
1920	 0.14650174639625 
1921	 0.143808231647188 
1922	 0.142761094609746 
1923	 0.142965326461656 
1924	 0.143929609165939 
1925	 0.144135831074221 
1926	 0.146236391306609 
1927	 0.145573457472508 
1928	 0.142866549677643 
1929	 0.141808241917418 
1930	 0.140641470290192 
1931	 0.140751331438081 
1932	 0.144022343578273 
1933	 0.146822172375539 
1934	 0.147374986251794 
1935	 0.146661850975809 
1936	 0.146259212341855 
1937	 0.144301442295876 
1938	 0.14455908999464 
1939	 0.145317725526724 
1940	 0.147279762232881 
1941	 0.149574641580947 
1942	 0.149949023238566 
1943	 0.150643013796899 
1944	 0.15073010121123 
1945	 0.149600521307889 
1946	 0.14890720899519 
1947	 0.148767705758931 
1948	 0.148278890137777 
1949	 0.148603733987777 
1950	 0.150144459227972 
1951	 0.151170514474723 
1952	 0.150712424025007 
1953	 0.151030614590041 
1954	 0.151923123323133 
1955	 0.152080639792497 
1956	 0.153161096146714 
1957	 0.154626365039207 
1958	 0.15509568501231 
1959	 0.154515534653882 
1960	 0.155002286695821 
1961	 0.155679124564948 
1962	 0.155680050537162 
1963	 0.157057727997697 
1964	 0.157625801479123 
1965	 0.157689063528885 
1966	 0.158215576990495 
1967	 0.157969283822682 
1968	 0.157881810867634 
1969	 0.15797557851259 
1970	 0.158222327613474 
1971	 0.158301531547412 
1972	 0.158424155098834 
1973	 0.158546669831308 
1974	 0.158408950292933 
1975	 0.15838313716933 
1976	 0.158670889353184 
1977	 0.158658319451309 
1978	 0.158676037490721 
1979	 0.159009911895854 
1980	 0.159244654835334 
1981	 0.159558685122048 
1982	 0.159782543539026 
1983	 0.160123743290197 
1984	 0.160199546102705 
1985	 0.160233749352248 
1986	 0.1604019435137 
1987	 0.160582008503841 
1988	 0.16081636671875 
1989	 0.161098012198036 
1990	 0.160862222345176 
1991	 0.160627912569886 
1992	 0.16078712310015 
1993	 0.16064788764375 
1994	 0.160698032631303 
1995	 0.160784227615395 
1996	 0.161030300931452 
1997	 0.16101071552707 
1998	 0.160972702139628 
1999	 0.161135443335866 
2000	 0.162118386625699 
2001	 0.162879129697525 
2002	 0.163321809197126 
2003	 0.164090908332871 
2004	 0.164086625258156 
2005	 0.16372235752058 
2006	 0.163899234476473 
2007	 0.164587473109982 
2008	 0.164976453697275 
2009	 0.165257455304966 
2010	 0.165622773998772 
2011	 0.166182854967355 
2012	 0.167137191799 
2013	 0.167636015418381 
2014	 0.168240973983043 
2015	 0.168866624157464 
2016	 0.169133690483137 
2017	 0.169561881267961 
2018	 0.169845462507373 
2019	 0.170031810268348 
2020	 0.170045119084755 
2021	 0.170082201271663 
2022	 0.16995316012919 
2023	 0.169777487760748 
2024	 0.169238943661322 
2025	 0.168528858318573 
2026	 0.168160908688649 
2027	 0.167809737871937 
2028	 0.16788349798076 
2029	 0.16816599080119 
2030	 0.168148299004674 
2031	 0.168563016333498 
2032	 0.168787599691023 
2033	 0.169007640927798 
2034	 0.168887815913097 
2035	 0.16904467772906 
2036	 0.168798286736516 
2037	 0.168419662049779 
2038	 0.168403222328526 
2039	 0.168231801233945 
2040	 0.168162345199794 
2041	 0.16843607794154 
2042	 0.168529200167876 
2043	 0.168295834707375 
2044	 0.167921527553572 
2045	 0.167729174894694 
2046	 0.167362598770475 
2047	 0.167244362336259 
2048	 0.167423697554117 
2049	 0.167837077532881 
2050	 0.168022908896205 
2051	 0.168047148543671 
2052	 0.168308450095262 
2053	 0.168287172540951 
2054	 0.168329811255738 
2055	 0.168718554237256 
2056	 0.16870317987819 
2057	 0.168790889827062 
2058	 0.169188443693109 
2059	 0.169297929285659 
2060	 0.169123634486188 
2061	 0.169120363433369 
2062	 0.168986983016165 
2063	 0.168710286758271 
2064	 0.168751693656701 
2065	 0.169026116074781 
2066	 0.169853064207663 
2067	 0.170509990342849 
2068	 0.170917166800784 
2069	 0.171197239228436 
2070	 0.171209732649332 
2071	 0.17100973783739 
2072	 0.170984091246418 
2073	 0.170962235865012 
2074	 0.171276208599617 
2075	 0.171220403136209 
2076	 0.171326937342082 
2077	 0.171525474363643 
2078	 0.171356135596756 
2079	 0.171349755974305 
2080	 0.171231234317119 
2081	 0.171264099448552 
2082	 0.171220317589571 
2083	 0.171032847132238 
2084	 0.171299966187257 
2085	 0.171534504828464 
2086	 0.171800854937634 
2087	 0.17198555483321 
2088	 0.172286554136661 
2089	 0.172175345302407 
2090	 0.172170638476556 
2091	 0.172351517603384 
2092	 0.172493367121391 
2093	 0.172826290930083 
2094	 0.172936511888271 
2095	 0.172769876665503 
2096	 0.17283620313641 
2097	 0.172987593773342 
2098	 0.173012421468933 
2099	 0.17301630173162 
2100	 0.172963596718214 
2101	 0.172897361777801 
2102	 0.172996374237461 
2103	 0.173362249720415 
2104	 0.173689510253366 
2105	 0.173638621328452 
2106	 0.173768264638245 
2107	 0.173677492577675 
2108	 0.173641689949818 
2109	 0.174184987377702 
2110	 0.174441120054559 
2111	 0.174740113081949 
2112	 0.174929223456945 
2113	 0.174878466587294 
2114	 0.174941736986291 
2115	 0.17520840045642 
2116	 0.175718614612715 
2117	 0.17591176726086 
2118	 0.175901378859714 
2119	 0.176109710427564 
2120	 0.176259182465695 
2121	 0.17632095662359 
2122	 0.176640486519215 
2123	 0.176877595892535 
2124	 0.176918967316591 
2125	 0.176764706754488 
2126	 0.176651143368966 
2127	 0.176547010642322 
2128	 0.176276120904192 
2129	 0.17621680513198 
2130	 0.176244431256214 
2131	 0.176527493671688 
2132	 0.176999290299341 
2133	 0.17701269329538 
2134	 0.17699669432043 
2135	 0.176875654210611 
2136	 0.176675766583305 
2137	 0.176423590330246 
2138	 0.176391185274758 
2139	 0.176119910482777 
2140	 0.175702234808812 
2141	 0.1754873472641 
2142	 0.175328116903906 
2143	 0.175523038350421 
2144	 0.175927951198532 
2145	 0.175911873039446 
2146	 0.175722770035939 
2147	 0.175633575449315 
2148	 0.175459147300325 
2149	 0.1749984293871 
2150	 0.17469586681689 
2151	 0.174451774381306 
2152	 0.173945175356276 
2153	 0.173818879621929 
2154	 0.174067494391867 
2155	 0.17421237852936 
2156	 0.174339248944954 
2157	 0.174422568078831 
2158	 0.174276332316979 
2159	 0.173982923426271 
2160	 0.173667571747817 
2161	 0.173608561553074 
2162	 0.173310667290228 
2163	 0.173284787431946 
2164	 0.173275246616784 
2165	 0.172898153816795 
2166	 0.17279050431321 
2167	 0.172488435140072 
2168	 0.172207425592946 
2169	 0.171848404086393 
2170	 0.171650388134094 
2171	 0.171458766056773 
2172	 0.171476222268792 
2173	 0.171460066030044 
2174	 0.171554332056342 
2175	 0.171170968868237 
2176	 0.170575235053075 
2177	 0.170319548840013 
2178	 0.169878265371108 
2179	 0.16961036491882 
2180	 0.169687767406985 
2181	 0.169483871281877 
2182	 0.169266021168434 
2183	 0.16926194404991 
2184	 0.168891472365939 
2185	 0.168477311003911 
2186	 0.168233659669042 
2187	 0.168028311695328 
2188	 0.167978100999423 
2189	 0.168053994353102 
2190	 0.168353783635456 
2191	 0.168088754077036 
2192	 0.168107099788816 
2193	 0.167744618704513 
2194	 0.166888212746937 
2195	 0.166771811228887 
2196	 0.166679679357385 
2197	 0.166341337692013 
2198	 0.166495450324594 
2199	 0.166682179356111 
2200	 0.16679951250146 
2201	 0.166919420024474 
2202	 0.167317164305009 
2203	 0.167619773949591 
2204	 0.167311790295458 
2205	 0.167036779130509 
2206	 0.16658935421191 
2207	 0.166431413464059 
2208	 0.166336246665441 
2209	 0.166491695687956 
2210	 0.166484830008123 
2211	 0.166534924019831 
2212	 0.166417735337732 
2213	 0.166479558171729 
2214	 0.166880349557776 
2215	 0.167111538691899 
2216	 0.1670224812829 
2217	 0.166410892940304 
2218	 0.166304663905793 
2219	 0.166536289039049 
2220	 0.166166075513408 
2221	 0.166015386887179 
2222	 0.165647919227997 
2223	 0.165039989514643 
2224	 0.165005554141169 
2225	 0.164899674572123 
2226	 0.165119831026427 
2227	 0.165292888730869 
2228	 0.165303493601969 
2229	 0.165543511359279 
2230	 0.165627159954956 
2231	 0.165696079519646 
2232	 0.165797796739588 
2233	 0.16546066160488 
2234	 0.164908039618637 
2235	 0.164414410006938 
2236	 0.163600188793101 
2237	 0.163429448477333 
2238	 0.16321888133527 
2239	 0.163047143948648 
2240	 0.162986226969185 
2241	 0.162538544178485 
2242	 0.162322843391333 
2243	 0.161877827521272 
2244	 0.161276128161636 
2245	 0.160950320118629 
2246	 0.160835437411062 
2247	 0.16066509394975 
2248	 0.160600009851276 
2249	 0.160691622649227 
2250	 0.159773124186509 
2251	 0.158738981589417 
2252	 0.158005584650786 
2253	 0.156869373809364 
2254	 0.156451485889869 
2255	 0.156359337349904 
2256	 0.155838719256461 
2257	 0.155081541116354 
2258	 0.154210007224183 
2259	 0.153465811018246 
2260	 0.152565637457063 
2261	 0.15152303280551 
2262	 0.150858852051749 
2263	 0.150094522606886 
2264	 0.149826068856141 
2265	 0.150463735537358 
2266	 0.150929995174341 
2267	 0.150978534694396 
2268	 0.150905995242021 
2269	 0.150434755076756 
2270	 0.149978449119907 
2271	 0.149781102384092 
2272	 0.149129508730748 
2273	 0.148221973588453 
2274	 0.147316043253361 
2275	 0.147050749486321 
2276	 0.147598695309271 
2277	 0.148535167122331 
2278	 0.149864896028282 
2279	 0.15036626893446 
2280	 0.150051401573549 
2281	 0.149771514744424 
2282	 0.149061182383885 
2283	 0.148663911063437 
2284	 0.148590394433684 
2285	 0.147793925626706 
2286	 0.147552005946105 
2287	 0.147552188259523 
2288	 0.147908994710541 
2289	 0.14768934868249 
2290	 0.148064178419223 
2291	 0.14787427812338 
2292	 0.146516341064092 
2293	 0.145834072017984 
2294	 0.145224480946296 
2295	 0.144829692836857 
2296	 0.145132062675427 
2297	 0.145569703886523 
2298	 0.146720442163909 
2299	 0.14821969831687 
2300	 0.148940820054823 
2301	 0.149082055291601 
2302	 0.149160236526022 
2303	 0.148739158458987 
2304	 0.147717940450999 
2305	 0.147012419216732 
2306	 0.146378868402784 
2307	 0.144667849146729 
2308	 0.143707874599016 
2309	 0.144066920850502 
2310	 0.143981883718896 
2311	 0.144545308012547 
2312	 0.144990333035231 
2313	 0.144732638531651 
2314	 0.145254116010455 
2315	 0.145085266736442 
2316	 0.144748070670612 
2317	 0.14506697902172 
2318	 0.144477586427252 
2319	 0.144497340948922 
2320	 0.145390772273451 
2321	 0.14595622773687 
2322	 0.146639249590686 
2323	 0.147005905593914 
2324	 0.147152828877695 
2325	 0.147393783843524 
2326	 0.147084823875155 
2327	 0.147192118627543 
2328	 0.147357453965723 
2329	 0.147048885546712 
2330	 0.146954385666812 
2331	 0.146686169921545 
2332	 0.14659003354292 
2333	 0.146550851401169 
2334	 0.146587483680652 
2335	 0.146413244473161 
2336	 0.145766045860017 
2337	 0.145600361806216 
2338	 0.14565394393773 
2339	 0.145776350358784 
2340	 0.146271002021725 
2341	 0.146658590757823 
2342	 0.14596583148128 
2343	 0.14563480351825 
2344	 0.146223597470447 
2345	 0.145352975438002 
2346	 0.14533089389342 
2347	 0.145304609582795 
2348	 0.144031327609639 
2349	 0.144643492984518 
2350	 0.145234457388857 
2351	 0.14497984222221 
2352	 0.145390969221676 
2353	 0.145222168949864 
2354	 0.14370012444781 
2355	 0.143199860499684 
2356	 0.143518812406255 
2357	 0.143659945049326 
2358	 0.144339673753417 
2359	 0.145609366948405 
2360	 0.147528309289089 
2361	 0.147513002578121 
2362	 0.14696032003722 
2363	 0.147439659243196 
2364	 0.146554835619799 
2365	 0.146591089490006 
2366	 0.147467041633781 
2367	 0.146757722612509 
2368	 0.145103001820282 
2369	 0.143041808764366 
2370	 0.142361919400981 
2371	 0.142046446089126 
2372	 0.142195547555497 
2373	 0.144606107707142 
2374	 0.145444758105104 
2375	 0.145201939558026 
2376	 0.145225768749775 
2377	 0.145267853388805 
2378	 0.144853966570788 
2379	 0.143660591493522 
2380	 0.14380971821868 
2381	 0.144004426392143 
2382	 0.144102708583041 
2383	 0.145220324328934 
2384	 0.146249608455181 
2385	 0.147884314949345 
2386	 0.148425106181052 
2387	 0.148209822810396 
2388	 0.147625977362966 
2389	 0.145777735258907 
2390	 0.144372126375053 
2391	 0.143720736955446 
2392	 0.143278458077536 
2393	 0.141940681616418 
2394	 0.141670790223195 
2395	 0.14273933908855 
2396	 0.14283680064748 
2397	 0.143088591329112 
2398	 0.143424705284798 
2399	 0.142486333314216 
2400	 0.142457245140245 
2401	 0.143903556323785 
2402	 0.143767051131878 
2403	 0.141664775884235 
2404	 0.14000608247169 
2405	 0.136125808461131 
2406	 0.133369031136476 
2407	 0.136060535383405 
2408	 0.138219314563406 
2409	 0.139303757987259 
2410	 0.143132947519238 
2411	 0.142776332763204 
2412	 0.143343543772639 
2413	 0.145462266251452 
2414	 0.144972746381162 
2415	 0.146700430609108 
2416	 0.143414960576933 
2417	 0.13827672495756 
2418	 0.136853835493678 
2419	 0.135219544148442 
2420	 0.136191082999982 
2421	 0.138839803211312 
2422	 0.139133619805569 
2423	 0.138659641301935 
2424	 0.138371176466532 
2425	 0.139567395328401 
2426	 0.14139113597531 
2427	 0.140670943341658 
2428	 0.139114222358877 
2429	 0.136170725507368 
2430	 0.135023492885675 
2431	 0.136022932896393 
2432	 0.135961061953685 
2433	 0.140226355851334 
2434	 0.140928665742023 
2435	 0.138789125325785 
2436	 0.137822347757938 
2437	 0.135985604370658 
2438	 0.132161325277777 
2439	 0.126760733656549 
2440	 0.126163679611593 
2441	 0.126266163636213 
2442	 0.126975341934943 
2443	 0.132931187415109 
2444	 0.135098677600776 
2445	 0.133903550238005 
2446	 0.13410265593356 
2447	 0.135421540613556 
2448	 0.135935357580386 
2449	 0.134279066741668 
2450	 0.134383177156843 
2451	 0.135418082424861 
2452	 0.133749004399826 
2453	 0.133037418356367 
2454	 0.133388088465304 
2455	 0.130201951178175 
2456	 0.131388099127422 
2457	 0.13878653901216 
2458	 0.138019897502767 
2459	 0.133279813691935 
2460	 0.132431432416808 
2461	 0.129560068318663 
2462	 0.126848060859425 
2463	 0.127361670598012 
2464	 0.126011559749604 
2465	 0.119320952706786 
2466	 0.118613166335467 
2467	 0.122695574134647 
2468	 0.125868232477617 
2469	 0.134339329590641 
2470	 0.137380948897388 
2471	 0.136897668449567 
2472	 0.136469047141201 
2473	 0.128778560030406 
2474	 0.126569271129539 
2475	 0.133219459272394 
2476	 0.132192135559418 
2477	 0.127732091883951 
2478	 0.125200833695019 
2479	 0.11154918379179 
2480	 0.113049713958212 
2481	 0.131708605699998 
2482	 0.146280265958335 
2483	 0.173559250127544 
2484	 0.183555049411113 
2485	 0.17707151787774 
2486	 0.159224395551266 
2487	 0.159167909844728 
2488	 0.155420429717609 
2489	 0.176347719175808 
2490	 0.213060752208346 
2491	 0.21187593511031 
2492	 0.214528693759422 
2493	 0.246989671471362 
2494	 0.261469767430915 
2495	 0.264297247177211 
2496	 0.259025910666318 
2497	 0.21134854184154 
2498	 0.181826747728303 
2499	 0.18690549267725 
2500	 0.181870886151918 
