Wavelength	ref00109.asd
350	 0.724278666602586 
351	 0.72939001967587 
352	 0.745602840626869 
353	 0.72588717157479 
354	 0.706556148996454 
355	 0.698035301568913 
356	 0.700082640296096 
357	 0.694551816443214 
358	 0.698408300722212 
359	 0.69921381853477 
360	 0.684463534100318 
361	 0.675410789959039 
362	 0.681452861421086 
363	 0.693285977938609 
364	 0.691492199904898 
365	 0.69134199537606 
366	 0.679668209910359 
367	 0.663812304680122 
368	 0.68299443187803 
369	 0.675788267461209 
370	 0.666897968397856 
371	 0.678531307922018 
372	 0.662605557181021 
373	 0.645522529415418 
374	 0.637700332424017 
375	 0.639853890168678 
376	 0.645465102025097 
377	 0.646172413210456 
378	 0.64160104846549 
379	 0.639893880287496 
380	 0.634331893089539 
381	 0.628976544175275 
382	 0.626966219039049 
383	 0.6237907423054 
384	 0.619794318396423 
385	 0.614097164737285 
386	 0.6071420607208 
387	 0.610000425649501 
388	 0.606734885015126 
389	 0.596374573843961 
390	 0.592994463458212 
391	 0.592370465625988 
392	 0.592331958812131 
393	 0.591253190699103 
394	 0.587845718030645 
395	 0.589093679337811 
396	 0.589391482984668 
397	 0.581783569964776 
398	 0.573058082784368 
399	 0.572818839989178 
400	 0.576699622997808 
401	 0.570911237116232 
402	 0.567411510051523 
403	 0.565933061649255 
404	 0.564600924650455 
405	 0.561777846699076 
406	 0.557122394707097 
407	 0.55448124108389 
408	 0.556544273951492 
409	 0.553172636367644 
410	 0.551708538883515 
411	 0.552343596333388 
412	 0.549160743779163 
413	 0.547032269384971 
414	 0.544987557892218 
415	 0.542216836164955 
416	 0.540015941731976 
417	 0.537846026608391 
418	 0.535937171591998 
419	 0.534417906773778 
420	 0.531451516130306 
421	 0.530568735574139 
422	 0.530838045843407 
423	 0.527947112113353 
424	 0.529304187204177 
425	 0.527182850256507 
426	 0.519798477047211 
427	 0.523066976474459 
428	 0.524861374251229 
429	 0.521800793659246 
430	 0.51543848112548 
431	 0.514474929839626 
432	 0.514566438401934 
433	 0.513723410179802 
434	 0.512551763169252 
435	 0.510014575760111 
436	 0.508563210619336 
437	 0.508391256899185 
438	 0.503561781954135 
439	 0.503256028985957 
440	 0.503418391651552 
441	 0.498253140493598 
442	 0.498387238276844 
443	 0.497982235994733 
444	 0.495773056466808 
445	 0.495336797325015 
446	 0.493407379741016 
447	 0.491366459493504 
448	 0.490560093525609 
449	 0.490665096517562 
450	 0.488754887040559 
451	 0.48658751123149 
452	 0.487014869801684 
453	 0.486138372622685 
454	 0.485157363923035 
455	 0.484466762830148 
456	 0.483131316664076 
457	 0.48238879211245 
458	 0.480956840646646 
459	 0.478327364208543 
460	 0.47779348254911 
461	 0.477955799761791 
462	 0.477337005006283 
463	 0.474906639032466 
464	 0.473648810439205 
465	 0.473415884864951 
466	 0.473370562656739 
467	 0.472247707224276 
468	 0.470262626957413 
469	 0.468461510063211 
470	 0.467754170953609 
471	 0.467726995312913 
472	 0.46689677942285 
473	 0.465718191455413 
474	 0.465782279276719 
475	 0.465197562815662 
476	 0.463916400535144 
477	 0.462332184082705 
478	 0.461102497713818 
479	 0.460821828058218 
480	 0.460476404858722 
481	 0.459139897718409 
482	 0.45934654929647 
483	 0.459549825348741 
484	 0.458728545875555 
485	 0.456723516887043 
486	 0.45647556194325 
487	 0.456017179921393 
488	 0.45416428969811 
489	 0.45432560815078 
490	 0.453876918235564 
491	 0.452578150167251 
492	 0.451348319339424 
493	 0.451774941504478 
494	 0.451431851799179 
495	 0.450498324135408 
496	 0.452544283127417 
497	 0.452706789921426 
498	 0.451426363883417 
499	 0.450529002445985 
500	 0.451876183192847 
501	 0.453557830349618 
502	 0.454046552392466 
503	 0.452725686067163 
504	 0.454129299352764 
505	 0.455640361834746 
506	 0.456126794245942 
507	 0.458225589404055 
508	 0.460475169957326 
509	 0.462043428223801 
510	 0.462980612597739 
511	 0.46625194937728 
512	 0.469511993524052 
513	 0.471830342765312 
514	 0.473813382566274 
515	 0.477891748458517 
516	 0.482726738334298 
517	 0.487169641196652 
518	 0.492301488849328 
519	 0.497277837429 
520	 0.501415078576866 
521	 0.504700691105904 
522	 0.510042197637424 
523	 0.515242255023824 
524	 0.519857026764387 
525	 0.525568487037455 
526	 0.531274025928623 
527	 0.536196470197682 
528	 0.540106170563682 
529	 0.54388183787827 
530	 0.548228750380966 
531	 0.552437634654163 
532	 0.555290855206284 
533	 0.558340457821597 
534	 0.561834924505084 
535	 0.565278302578747 
536	 0.567292413639204 
537	 0.568095305839688 
538	 0.569215115774031 
539	 0.571796616288055 
540	 0.573265128789447 
541	 0.575218400214608 
542	 0.577232723658061 
543	 0.5773170616422 
544	 0.578217353126369 
545	 0.579400248190599 
546	 0.580386074785612 
547	 0.582202929331657 
548	 0.583456029963463 
549	 0.584395947160611 
550	 0.585556932129473 
551	 0.584654303381475 
552	 0.583324845921014 
553	 0.582489347406897 
554	 0.581869996296704 
555	 0.580704048044016 
556	 0.578931739612573 
557	 0.576712386891401 
558	 0.57431152471784 
559	 0.571506769854311 
560	 0.568303353005189 
561	 0.564908616843714 
562	 0.562210831352565 
563	 0.558656816969053 
564	 0.553938247244384 
565	 0.550425060536096 
566	 0.547083515826561 
567	 0.543591705016278 
568	 0.539781880397975 
569	 0.535266871161298 
570	 0.530934351851859 
571	 0.526852560992438 
572	 0.522298264210007 
573	 0.517738114910629 
574	 0.51354905841154 
575	 0.509790514620338 
576	 0.505851202191026 
577	 0.502057313120487 
578	 0.498770895997793 
579	 0.496248132732835 
580	 0.493968800894737 
581	 0.491872982956668 
582	 0.489756585760295 
583	 0.487173899909221 
584	 0.484275625521718 
585	 0.481867795245091 
586	 0.48042174755308 
587	 0.478510437580019 
588	 0.47692905818306 
589	 0.475485245027505 
590	 0.473383851808208 
591	 0.47148137916822 
592	 0.470290963163125 
593	 0.469660306798019 
594	 0.468510850048969 
595	 0.467390980031621 
596	 0.466124598512839 
597	 0.464475930172058 
598	 0.463059086396072 
599	 0.461502025924836 
600	 0.460017379183556 
601	 0.459348635210668 
602	 0.457571594540388 
603	 0.455515028128887 
604	 0.454017647186708 
605	 0.45242164169309 
606	 0.450858837963928 
607	 0.449184939158521 
608	 0.447287861529704 
609	 0.446349157413182 
610	 0.44474757978994 
611	 0.442216408603366 
612	 0.440677779844452 
613	 0.438791712137795 
614	 0.43700532168588 
615	 0.435822651823468 
616	 0.434216890771546 
617	 0.432419163198275 
618	 0.430573288198948 
619	 0.428777269745319 
620	 0.427724976003967 
621	 0.426695905863745 
622	 0.42533231960116 
623	 0.424322075371606 
624	 0.423628769857716 
625	 0.422681709178285 
626	 0.42116564554658 
627	 0.421102692661399 
628	 0.420762108582242 
629	 0.419931795044543 
630	 0.41994636671435 
631	 0.419730789728989 
632	 0.418739775865307 
633	 0.417135595638303 
634	 0.416571216303073 
635	 0.415703673145769 
636	 0.414467163228606 
637	 0.41328419927725 
638	 0.411709483527147 
639	 0.410050367890944 
640	 0.408487506977922 
641	 0.407008514387825 
642	 0.405559904549526 
643	 0.403800483810761 
644	 0.401532982133272 
645	 0.399167253567802 
646	 0.397329356829552 
647	 0.396001588566563 
648	 0.394739972792628 
649	 0.393504175825312 
650	 0.392110941490617 
651	 0.390629703121265 
652	 0.389432446950525 
653	 0.38899969251416 
654	 0.388490748960338 
655	 0.387190141609275 
656	 0.387074633654021 
657	 0.385861536954104 
658	 0.383727852540029 
659	 0.382471581839308 
660	 0.381275975124251 
661	 0.37992319898307 
662	 0.378601445571447 
663	 0.378171486490133 
664	 0.376303939036818 
665	 0.374187761842791 
666	 0.373600930035038 
667	 0.372543948504515 
668	 0.371986113724326 
669	 0.37192225600565 
670	 0.371398131579461 
671	 0.370869569091937 
672	 0.370576353811604 
673	 0.370594436435337 
674	 0.37068355301507 
675	 0.371130713920508 
676	 0.371197286119022 
677	 0.370238384043138 
678	 0.370374406825205 
679	 0.371136293521122 
680	 0.371953443438638 
681	 0.372371934896977 
682	 0.373039023545044 
683	 0.37422947357702 
684	 0.375862264312922 
685	 0.377039808083044 
686	 0.37973343565922 
687	 0.383501451893915 
688	 0.386585694273021 
689	 0.390202988410595 
690	 0.394265105911088 
691	 0.399129284263742 
692	 0.405393733473803 
693	 0.412799181158546 
694	 0.421764176764204 
695	 0.432574677494588 
696	 0.445061702873351 
697	 0.458088980071741 
698	 0.47208140401736 
699	 0.487792123607462 
700	 0.503732469262805 
701	 0.520598324066525 
702	 0.538297711412969 
703	 0.555730006226386 
704	 0.573555782384844 
705	 0.590827097222019 
706	 0.607317398907946 
707	 0.625052162786545 
708	 0.642740450677148 
709	 0.660287153089082 
710	 0.677858088067725 
711	 0.69475132672214 
712	 0.711979417149812 
713	 0.729481804286786 
714	 0.745981401109733 
715	 0.762965857987364 
716	 0.779681218365765 
717	 0.795953145139603 
718	 0.812912560348674 
719	 0.83037460475161 
720	 0.847282554830638 
721	 0.862677083804204 
722	 0.877072900241953 
723	 0.89199614278413 
724	 0.907459327618759 
725	 0.920304551514969 
726	 0.933611615840788 
727	 0.946854947191594 
728	 0.95941481949124 
729	 0.971080278107002 
730	 0.982479148310699 
731	 0.993022979595337 
732	 1.00218559185542 
733	 1.01169582521376 
734	 1.02016136190953 
735	 1.02769558570687 
736	 1.03558332106095 
737	 1.04266574247828 
738	 1.04861412468116 
739	 1.05381741067747 
740	 1.05956786916055 
741	 1.06483373380015 
742	 1.06945926103089 
743	 1.07349202490073 
744	 1.07668013545199 
745	 1.07959699728221 
746	 1.08262038686781 
747	 1.0857865786288 
748	 1.0875484533845 
749	 1.0886984064245 
750	 1.08998465740853 
751	 1.09152678713325 
752	 1.09227676961236 
753	 1.09294893052152 
754	 1.094051920067 
755	 1.09339866808749 
756	 1.09375816027839 
757	 1.09490157225971 
758	 1.09512032666499 
759	 1.09687174667045 
760	 1.09799077009876 
761	 1.09662336164674 
762	 1.09535928094267 
763	 1.09438450274676 
764	 1.09274982992661 
765	 1.09063452829638 
766	 1.09062503138013 
767	 1.08953449596742 
768	 1.08812710023924 
769	 1.0876929577346 
770	 1.08661618005798 
771	 1.08520630198359 
772	 1.08402098147464 
773	 1.08359678629462 
774	 1.08243497735968 
775	 1.08141681892033 
776	 1.08093203333467 
777	 1.07995175719187 
778	 1.07850121875959 
779	 1.07740814858141 
780	 1.07713438956581 
781	 1.07603654601329 
782	 1.07507429788276 
783	 1.0746375046464 
784	 1.07451517926489 
785	 1.07288870697413 
786	 1.07107966492725 
787	 1.06999386257421 
788	 1.06970014377863 
789	 1.06873422371185 
790	 1.06788655719566 
791	 1.06742615547477 
792	 1.06555416995221 
793	 1.06464663493751 
794	 1.06419930666412 
795	 1.06308833812132 
796	 1.06168205648886 
797	 1.0607802061075 
798	 1.06008439036605 
799	 1.05884847702131 
800	 1.05833707335585 
801	 1.05749395309285 
802	 1.05620233023372 
803	 1.05557771257253 
804	 1.05507398851957 
805	 1.05432932395722 
806	 1.05321724571028 
807	 1.05197415350226 
808	 1.05105821053267 
809	 1.05075251591624 
810	 1.050773894016 
811	 1.0490571417504 
812	 1.04773043857176 
813	 1.04709656446246 
814	 1.04632320853406 
815	 1.0451664977928 
816	 1.04402335156954 
817	 1.04301712337602 
818	 1.04191923950888 
819	 1.04123911682166 
820	 1.040990860804 
821	 1.04067749725706 
822	 1.0391127851847 
823	 1.0384208255096 
824	 1.03803411400662 
825	 1.03713669408957 
826	 1.03645511210356 
827	 1.03592650270465 
828	 1.03559891168113 
829	 1.03531956746665 
830	 1.03366504064521 
831	 1.03250914237674 
832	 1.03214135849441 
833	 1.03155145588561 
834	 1.03046349691448 
835	 1.02992614904924 
836	 1.03009270709203 
837	 1.02990032281473 
838	 1.02898743030134 
839	 1.02825998060706 
840	 1.02792614985203 
841	 1.02626048473515 
842	 1.0258410113514 
843	 1.02584688599292 
844	 1.02507088380077 
845	 1.02458292933762 
846	 1.02350033298006 
847	 1.02257208405625 
848	 1.0227685961461 
849	 1.02225928575719 
850	 1.02151845583634 
851	 1.02107407856226 
852	 1.02115589622948 
853	 1.02003197619446 
854	 1.0189386360098 
855	 1.0181290556504 
856	 1.0165889674936 
857	 1.01700906763004 
858	 1.01687729583999 
859	 1.01543462719152 
860	 1.01586294536568 
861	 1.01504700464461 
862	 1.01383053086115 
863	 1.01345907249327 
864	 1.01375240850535 
865	 1.0130509344352 
866	 1.01265609411016 
867	 1.01363141381901 
868	 1.01188932100001 
869	 1.01068133831506 
870	 1.01033136173631 
871	 1.00975834604703 
872	 1.00888204846556 
873	 1.00849553540007 
874	 1.00808692724498 
875	 1.00656559347766 
876	 1.00586130223038 
877	 1.00619244751143 
878	 1.00636511764567 
879	 1.00441024316499 
880	 1.00341189997799 
881	 1.00255826610822 
882	 1.00168148674234 
883	 1.00209711463949 
884	 1.00099435295293 
885	 0.999974453156471 
886	 1.00014172303667 
887	 1.00006657130829 
888	 0.99970582505888 
889	 0.999015796869953 
890	 0.998102946695459 
891	 0.997328382438143 
892	 0.996194196212029 
893	 0.995219468888806 
894	 0.994819595707708 
895	 0.993752363386643 
896	 0.994083880080633 
897	 0.994214590519596 
898	 0.992078774506949 
899	 0.99125511239261 
900	 0.990641429617333 
901	 0.990067852986865 
902	 0.989929014926932 
903	 0.990813863907316 
904	 0.990000143982773 
905	 0.987806800083577 
906	 0.98648099514171 
907	 0.986830349855429 
908	 0.985647415406975 
909	 0.983912042211597 
910	 0.985487016792092 
911	 0.98564543524758 
912	 0.984600063181374 
913	 0.98256621453369 
914	 0.979690869820144 
915	 0.980338344458597 
916	 0.981008652438283 
917	 0.980248085696798 
918	 0.97999771381755 
919	 0.979178631404054 
920	 0.977850475610987 
921	 0.976452170868382 
922	 0.975629291090639 
923	 0.975179838952184 
924	 0.974737829844208 
925	 0.974335911362663 
926	 0.974561546836464 
927	 0.972430302756162 
928	 0.97230977685412 
929	 0.975035662422003 
930	 0.971738441919853 
931	 0.971119139418694 
932	 0.969276322165146 
933	 0.964121151857871 
934	 0.964903128663076 
935	 0.963884269636738 
936	 0.962124377650224 
937	 0.961425049129726 
938	 0.960278203869223 
939	 0.95801923414268 
940	 0.958500923224484 
941	 0.961918005207631 
942	 0.960204886528213 
943	 0.957913776675971 
944	 0.959103302265823 
945	 0.962313733931498 
946	 0.954859888345608 
947	 0.95508529304202 
948	 0.95611612156271 
949	 0.952075657161272 
950	 0.95320324378187 
951	 0.950960344713785 
952	 0.949891105822117 
953	 0.951901867021952 
954	 0.947249899485538 
955	 0.944966752520994 
956	 0.944859427097793 
957	 0.944520847002342 
958	 0.942178736027536 
959	 0.940808210453953 
960	 0.941732012485607 
961	 0.944448763046869 
962	 0.946242760740823 
963	 0.944014467953809 
964	 0.941613899542081 
965	 0.941351424473607 
966	 0.940151257598986 
967	 0.943294464035808 
968	 0.94373421550422 
969	 0.93846141929329 
970	 0.934563269464708 
971	 0.937188681464659 
972	 0.938048214665436 
973	 0.934491359888776 
974	 0.935549900961139 
975	 0.93846785557413 
976	 0.936876292270139 
977	 0.932372887563962 
978	 0.935786372067468 
979	 0.934282367681691 
980	 0.934166828409026 
981	 0.935970413524938 
982	 0.932164426869957 
983	 0.930823109082499 
984	 0.93100846748062 
985	 0.931322896749217 
986	 0.931362883178067 
987	 0.933207972833424 
988	 0.933346586266107 
989	 0.931205518364924 
990	 0.929164044863995 
991	 0.929299361267761 
992	 0.929529056616333 
993	 0.932275340827667 
994	 0.939189191185426 
995	 0.933292551830186 
996	 0.927740072069756 
997	 0.927931852848832 
998	 0.931601257936014 
999	 0.928288016309962 
1000	 0.926661451766877 
1001	 0.943825655683603 
1002	 0.943777627368207 
1003	 0.943843120481357 
1004	 0.944009918915657 
1005	 0.944222746745559 
1006	 0.945006502119715 
1007	 0.945210180135242 
1008	 0.945180052350062 
1009	 0.94495987985736 
1010	 0.944623595143502 
1011	 0.94385452036123 
1012	 0.942946125611802 
1013	 0.942597005240352 
1014	 0.942229039033731 
1015	 0.942053992477754 
1016	 0.942222853494377 
1017	 0.941688659840537 
1018	 0.941502660634194 
1019	 0.941439122669657 
1020	 0.941432297281759 
1021	 0.941710565160438 
1022	 0.941765938933224 
1023	 0.941833277753301 
1024	 0.94133753509699 
1025	 0.941487531172785 
1026	 0.941490345616377 
1027	 0.941586064928648 
1028	 0.942126099737784 
1029	 0.941696362673435 
1030	 0.941125442309246 
1031	 0.941016738221721 
1032	 0.940627850249683 
1033	 0.940303860142174 
1034	 0.940284286216227 
1035	 0.940147628342532 
1036	 0.939706543612748 
1037	 0.939500449019479 
1038	 0.939615629372371 
1039	 0.939276947662352 
1040	 0.938957417025096 
1041	 0.938744225422845 
1042	 0.938578017370954 
1043	 0.938919960114993 
1044	 0.939029184613103 
1045	 0.938872699824698 
1046	 0.938789150840726 
1047	 0.938650910979385 
1048	 0.938245212560003 
1049	 0.93838696746464 
1050	 0.93845004802153 
1051	 0.938626610248491 
1052	 0.938155290606147 
1053	 0.938292025706913 
1054	 0.938214782880285 
1055	 0.937786382013372 
1056	 0.937725846949322 
1057	 0.937285346959839 
1058	 0.93721856213992 
1059	 0.937459934070968 
1060	 0.937228386966412 
1061	 0.937347769559281 
1062	 0.937228080935299 
1063	 0.93680077604791 
1064	 0.937061905085168 
1065	 0.937010112925193 
1066	 0.936919302763439 
1067	 0.9366643013738 
1068	 0.936725139261291 
1069	 0.936290757168336 
1070	 0.936195493038502 
1071	 0.9362801443829 
1072	 0.935896191709642 
1073	 0.936004379001917 
1074	 0.936008936071044 
1075	 0.935759156080163 
1076	 0.935462695156554 
1077	 0.9351503123977 
1078	 0.934816641196315 
1079	 0.934575101903785 
1080	 0.934797642941046 
1081	 0.934460818430791 
1082	 0.933799710534425 
1083	 0.932843081177423 
1084	 0.932232854300507 
1085	 0.93181557981629 
1086	 0.931466619822245 
1087	 0.931610445742456 
1088	 0.931919488586742 
1089	 0.931238553243562 
1090	 0.930761592328506 
1091	 0.930587525674638 
1092	 0.929857681812036 
1093	 0.929407936072805 
1094	 0.929027673901321 
1095	 0.928572165709972 
1096	 0.928150675561262 
1097	 0.927902779662744 
1098	 0.927283856514645 
1099	 0.926533100004559 
1100	 0.925630916713893 
1101	 0.924634656795044 
1102	 0.924116529368437 
1103	 0.923941303202009 
1104	 0.923809389041722 
1105	 0.923681441978008 
1106	 0.923401150910742 
1107	 0.923120889400011 
1108	 0.922753820532257 
1109	 0.922302022307498 
1110	 0.921632727300735 
1111	 0.920755469920436 
1112	 0.919120028970887 
1113	 0.91837868221317 
1114	 0.918036979371445 
1115	 0.91747838832796 
1116	 0.917471311429557 
1117	 0.917216068357999 
1118	 0.916108116677514 
1119	 0.914606116479181 
1120	 0.913172815207977 
1121	 0.911443587970787 
1122	 0.909881890257816 
1123	 0.90924509737703 
1124	 0.907862297430584 
1125	 0.906592668715043 
1126	 0.905999617537671 
1127	 0.905977868525037 
1128	 0.904942209142053 
1129	 0.904119465113621 
1130	 0.903242468797167 
1131	 0.901768430076611 
1132	 0.900547871814309 
1133	 0.899520302779862 
1134	 0.898922484489433 
1135	 0.897812858676198 
1136	 0.895740338374156 
1137	 0.894549254497313 
1138	 0.893252098653992 
1139	 0.891475151483842 
1140	 0.890330436661709 
1141	 0.889018807068752 
1142	 0.887581409482574 
1143	 0.886128841457078 
1144	 0.884861405479555 
1145	 0.883137814300855 
1146	 0.881078473957316 
1147	 0.879242156596235 
1148	 0.87710774469714 
1149	 0.875450941062987 
1150	 0.874364240249617 
1151	 0.873009569513087 
1152	 0.871554786482476 
1153	 0.870529662443121 
1154	 0.869822596899869 
1155	 0.868716756577864 
1156	 0.867812743008832 
1157	 0.867434734207242 
1158	 0.86691250075679 
1159	 0.865818495192908 
1160	 0.865056212015937 
1161	 0.864309239360665 
1162	 0.863826990917478 
1163	 0.863558591737641 
1164	 0.863084379968348 
1165	 0.86267931671155 
1166	 0.862185192510579 
1167	 0.861595326926507 
1168	 0.860975188659437 
1169	 0.860328175966284 
1170	 0.859601325924884 
1171	 0.859081793610461 
1172	 0.858601446603986 
1173	 0.858743337946999 
1174	 0.858780448119931 
1175	 0.858344895249955 
1176	 0.85786441545135 
1177	 0.857375481328288 
1178	 0.856606422194023 
1179	 0.855965963355441 
1180	 0.855421060200007 
1181	 0.854977759583471 
1182	 0.854427271379978 
1183	 0.85398891710636 
1184	 0.853828405972157 
1185	 0.853482813931144 
1186	 0.852950491723389 
1187	 0.852671799088274 
1188	 0.852611996215154 
1189	 0.852360462828579 
1190	 0.852216508180288 
1191	 0.851899043270902 
1192	 0.851448041454873 
1193	 0.851125668239598 
1194	 0.850976599191972 
1195	 0.851097580916836 
1196	 0.850868689840974 
1197	 0.850533445088477 
1198	 0.850357077660189 
1199	 0.850072499953249 
1200	 0.84978976125944 
1201	 0.849729965990435 
1202	 0.849550355340898 
1203	 0.848995687387636 
1204	 0.848794078222393 
1205	 0.848858204344392 
1206	 0.848879326364001 
1207	 0.849148079842088 
1208	 0.849230354675422 
1209	 0.849252967326663 
1210	 0.849082447291867 
1211	 0.849224347766875 
1212	 0.849325213510489 
1213	 0.849480033903446 
1214	 0.849920702968694 
1215	 0.849993514007553 
1216	 0.849756702434006 
1217	 0.849896706678244 
1218	 0.850124173558659 
1219	 0.850237192978285 
1220	 0.850447870686356 
1221	 0.850673246855718 
1222	 0.850797711709503 
1223	 0.850988504373177 
1224	 0.851549744349709 
1225	 0.85165879225982 
1226	 0.851243687024131 
1227	 0.851198610303712 
1228	 0.851218339681019 
1229	 0.851063436366258 
1230	 0.851481769977757 
1231	 0.851981831919095 
1232	 0.852159464864137 
1233	 0.852309365196609 
1234	 0.85234699631199 
1235	 0.852113788826065 
1236	 0.8520470031612 
1237	 0.851947038345807 
1238	 0.851972757151948 
1239	 0.852098499646412 
1240	 0.852145927476116 
1241	 0.85225533612826 
1242	 0.852337017584596 
1243	 0.852380647732119 
1244	 0.852370342274858 
1245	 0.852384955811307 
1246	 0.852355701364053 
1247	 0.852162136725525 
1248	 0.852084375079357 
1249	 0.852092750299188 
1250	 0.852052645818929 
1251	 0.852004286646248 
1252	 0.851981319245669 
1253	 0.851983656553949 
1254	 0.85202762970165 
1255	 0.851933134924378 
1256	 0.851851225570778 
1257	 0.851657242902953 
1258	 0.851221127299743 
1259	 0.851001245890673 
1260	 0.850866364519522 
1261	 0.850687341201096 
1262	 0.850653577902145 
1263	 0.850402962603504 
1264	 0.849895657930291 
1265	 0.8496147284146 
1266	 0.849301025076093 
1267	 0.849089547538702 
1268	 0.849151382505185 
1269	 0.849067511563654 
1270	 0.848963373133628 
1271	 0.848813315875726 
1272	 0.848634747942858 
1273	 0.848374502822373 
1274	 0.848162012673483 
1275	 0.847908150328044 
1276	 0.84771429809146 
1277	 0.847481989989287 
1278	 0.847454299102355 
1279	 0.84762159605495 
1280	 0.847557320826087 
1281	 0.847610385770598 
1282	 0.847431085876357 
1283	 0.846978177903596 
1284	 0.846610028681417 
1285	 0.846053391675591 
1286	 0.845803983828221 
1287	 0.845815053151671 
1288	 0.845574345171681 
1289	 0.845441849443851 
1290	 0.845187838066255 
1291	 0.844618776541833 
1292	 0.844178893386091 
1293	 0.843928736365906 
1294	 0.843487713888469 
1295	 0.843041579557993 
1296	 0.842370321396231 
1297	 0.841638154459321 
1298	 0.840689360571165 
1299	 0.839930454572308 
1300	 0.839075386990652 
1301	 0.838442615583222 
1302	 0.838100369410321 
1303	 0.837393166432156 
1304	 0.836628591463941 
1305	 0.835819268645716 
1306	 0.834780048896072 
1307	 0.833816945458016 
1308	 0.832923203140071 
1309	 0.831951679937008 
1310	 0.830841558997611 
1311	 0.829812053849213 
1312	 0.828977426898764 
1313	 0.827838485625642 
1314	 0.826482838121749 
1315	 0.825228128291786 
1316	 0.823709777581912 
1317	 0.822405020601638 
1318	 0.821308513663177 
1319	 0.820210714706923 
1320	 0.819207266341879 
1321	 0.818277624529719 
1322	 0.816976811558946 
1323	 0.8154885711831 
1324	 0.81407875181536 
1325	 0.812434028511047 
1326	 0.810812957104172 
1327	 0.809275044148958 
1328	 0.807619374851462 
1329	 0.805633799158439 
1330	 0.803942617327483 
1331	 0.802581945444229 
1332	 0.800853865290122 
1333	 0.79887330980281 
1334	 0.797243033429985 
1335	 0.795485937400559 
1336	 0.794045377735921 
1337	 0.793202771813361 
1338	 0.792026873835808 
1339	 0.790599892759429 
1340	 0.789385802567403 
1341	 0.788085658362664 
1342	 0.786827263632014 
1343	 0.785588604776674 
1344	 0.784451047600854 
1345	 0.783335450052081 
1346	 0.781931987087942 
1347	 0.781294214275627 
1348	 0.780248708080399 
1349	 0.779229026114018 
1350	 0.778369409506971 
1351	 0.777122333519143 
1352	 0.775371532922275 
1353	 0.77382284105244 
1354	 0.772662427811265 
1355	 0.770331291333532 
1356	 0.767356957446467 
1357	 0.765415457560884 
1358	 0.768644704201827 
1359	 0.765344806951529 
1360	 0.75553964262423 
1361	 0.753843928247959 
1362	 0.75575786011802 
1363	 0.751172311172354 
1364	 0.775803359179966 
1365	 0.784066472533105 
1366	 0.754822794573464 
1367	 0.745094356143726 
1368	 0.750385029606888 
1369	 0.749858971985219 
1370	 0.75156201005523 
1371	 0.748515922782175 
1372	 0.74181594062439 
1373	 0.738112184582893 
1374	 0.735114906760222 
1375	 0.728035802985671 
1376	 0.722861887080109 
1377	 0.724615521960203 
1378	 0.719093666028225 
1379	 0.711908544293395 
1380	 0.700724760989836 
1381	 0.685364157638587 
1382	 0.669529356917226 
1383	 0.646828946967158 
1384	 0.640260393113455 
1385	 0.642053370591785 
1386	 0.637499098347087 
1387	 0.641431491701615 
1388	 0.636186780532555 
1389	 0.619106377322123 
1390	 0.616660939248522 
1391	 0.625045669468173 
1392	 0.619344863453382 
1393	 0.612249881760002 
1394	 0.604893265768788 
1395	 0.585295536743948 
1396	 0.577145198752207 
1397	 0.580009316194064 
1398	 0.575724348754815 
1399	 0.570712941829713 
1400	 0.565237641921205 
1401	 0.55596460132226 
1402	 0.548681456553015 
1403	 0.545034434641007 
1404	 0.538852238223031 
1405	 0.53180774021687 
1406	 0.524831610042941 
1407	 0.518896323190695 
1408	 0.512388188478575 
1409	 0.508071784985351 
1410	 0.506962120044953 
1411	 0.503766965868339 
1412	 0.500813948996355 
1413	 0.497561313105009 
1414	 0.493462144548874 
1415	 0.490917984703787 
1416	 0.489027872941479 
1417	 0.487123650595648 
1418	 0.485499068539408 
1419	 0.484291253647276 
1420	 0.483443113337173 
1421	 0.48224717999436 
1422	 0.481703901194909 
1423	 0.480020396163224 
1424	 0.476922639903556 
1425	 0.475343448978171 
1426	 0.473742829555341 
1427	 0.472778156896927 
1428	 0.472866401618135 
1429	 0.472580102218871 
1430	 0.472659778847665 
1431	 0.47195842742515 
1432	 0.470357828140151 
1433	 0.469775956447266 
1434	 0.469317948467305 
1435	 0.468827380194775 
1436	 0.469442552195534 
1437	 0.469216307705778 
1438	 0.467881081035197 
1439	 0.46724583530676 
1440	 0.466529937821605 
1441	 0.466315967353543 
1442	 0.466872833477534 
1443	 0.467106338781045 
1444	 0.467125379765618 
1445	 0.467014079026443 
1446	 0.467158745005952 
1447	 0.46705765086511 
1448	 0.466924277061222 
1449	 0.467046786173122 
1450	 0.467010808570968 
1451	 0.466491151905028 
1452	 0.466648899155776 
1453	 0.467128231898374 
1454	 0.467455403420393 
1455	 0.468079190627004 
1456	 0.46828578627409 
1457	 0.468316100710603 
1458	 0.468406818782988 
1459	 0.468225495784853 
1460	 0.468352527850418 
1461	 0.468499841999794 
1462	 0.46907757340172 
1463	 0.470234373608653 
1464	 0.470943450402247 
1465	 0.471765943103686 
1466	 0.472528877578166 
1467	 0.472475444430185 
1468	 0.473606235516405 
1469	 0.475688700269157 
1470	 0.477332280812058 
1471	 0.479634845228716 
1472	 0.481109431793003 
1473	 0.481795545154421 
1474	 0.482697728097052 
1475	 0.482790002379291 
1476	 0.483913202340197 
1477	 0.485746487437421 
1478	 0.487185126326658 
1479	 0.489163509551134 
1480	 0.490729089018799 
1481	 0.49143357974518 
1482	 0.492772553262811 
1483	 0.494460424968769 
1484	 0.495999199592544 
1485	 0.497771983067403 
1486	 0.499429397733893 
1487	 0.501141945310853 
1488	 0.502273313133193 
1489	 0.503668295165222 
1490	 0.505162114392774 
1491	 0.506876913806955 
1492	 0.508725541150252 
1493	 0.510443480228026 
1494	 0.511913752089139 
1495	 0.513311944140885 
1496	 0.514349275362455 
1497	 0.515847567780297 
1498	 0.517465908879518 
1499	 0.519260079458143 
1500	 0.521397963258519 
1501	 0.523141679275082 
1502	 0.52489796546841 
1503	 0.526554550510034 
1504	 0.527945386716954 
1505	 0.529551529751128 
1506	 0.53123803823176 
1507	 0.53291406802595 
1508	 0.534684231810615 
1509	 0.536216733986949 
1510	 0.537658905288406 
1511	 0.539154913184757 
1512	 0.540466376768754 
1513	 0.541967176983612 
1514	 0.543552275767078 
1515	 0.54525950109415 
1516	 0.547255482577219 
1517	 0.548874773050319 
1518	 0.550483449449869 
1519	 0.551983772697273 
1520	 0.553095208361616 
1521	 0.554470251176161 
1522	 0.555990904582017 
1523	 0.557477837242561 
1524	 0.559026957900854 
1525	 0.56051368223087 
1526	 0.56198883242055 
1527	 0.563469898782209 
1528	 0.564935246859847 
1529	 0.566377183291381 
1530	 0.56780709382358 
1531	 0.569258643761282 
1532	 0.570729473683797 
1533	 0.572144581322555 
1534	 0.573585771510692 
1535	 0.574973921357863 
1536	 0.57627130303237 
1537	 0.57758310793237 
1538	 0.578879560903389 
1539	 0.580176435429798 
1540	 0.58138701889215 
1541	 0.58273092168653 
1542	 0.58432169709762 
1543	 0.585631703874323 
1544	 0.586814790363267 
1545	 0.588053378958277 
1546	 0.589093570710433 
1547	 0.590215869035585 
1548	 0.591507190291544 
1549	 0.592720897698505 
1550	 0.593810561638953 
1551	 0.595001987841363 
1552	 0.596399471256628 
1553	 0.59756435813132 
1554	 0.598547047843962 
1555	 0.599653387540662 
1556	 0.600718870250409 
1557	 0.601711237167938 
1558	 0.602745981833236 
1559	 0.603819293445485 
1560	 0.604807120493261 
1561	 0.605796008975779 
1562	 0.607009937322913 
1563	 0.608009624075432 
1564	 0.608814608556269 
1565	 0.609562035685084 
1566	 0.610466433640089 
1567	 0.611292111988065 
1568	 0.612093555663973 
1569	 0.612902078648861 
1570	 0.613940470310696 
1571	 0.6149300145242 
1572	 0.616139120894715 
1573	 0.617757692988219 
1574	 0.618927134001492 
1575	 0.620022576858788 
1576	 0.620818817919625 
1577	 0.621305340516683 
1578	 0.622009563201052 
1579	 0.622477458284359 
1580	 0.623357350429876 
1581	 0.624575023737328 
1582	 0.625455333349517 
1583	 0.626348937729432 
1584	 0.627187091262089 
1585	 0.627875778035859 
1586	 0.628607176569079 
1587	 0.629412784553825 
1588	 0.630089760558433 
1589	 0.630640489231734 
1590	 0.631235575465033 
1591	 0.631816568936802 
1592	 0.632425669908906 
1593	 0.633071628023065 
1594	 0.633581438509433 
1595	 0.633964896584997 
1596	 0.634623295436017 
1597	 0.635315743684961 
1598	 0.63600765327321 
1599	 0.636957751528011 
1600	 0.637666832373518 
1601	 0.638230995592322 
1602	 0.638719686540096 
1603	 0.639047386311127 
1604	 0.6397082290802 
1605	 0.640405000682341 
1606	 0.641098440820039 
1607	 0.642158504726561 
1608	 0.642697853473816 
1609	 0.642816529187262 
1610	 0.643257943924426 
1611	 0.643696197022947 
1612	 0.644115735464742 
1613	 0.644667452611435 
1614	 0.645082411116703 
1615	 0.645249724477748 
1616	 0.645756696879605 
1617	 0.646597113918898 
1618	 0.646874207377049 
1619	 0.646948774926822 
1620	 0.64731670558847 
1621	 0.647353420436378 
1622	 0.647830113683495 
1623	 0.648966927030484 
1624	 0.649417208452279 
1625	 0.649541660115946 
1626	 0.649942002304135 
1627	 0.650161769471842 
1628	 0.650706405850302 
1629	 0.651725458773804 
1630	 0.652119525710918 
1631	 0.652306163385135 
1632	 0.65253300765371 
1633	 0.652387804048482 
1634	 0.65265197700139 
1635	 0.653267696750015 
1636	 0.653519833560826 
1637	 0.653718517274558 
1638	 0.653851258931194 
1639	 0.65372759814316 
1640	 0.653899022711477 
1641	 0.65420463058508 
1642	 0.654430636642811 
1643	 0.654743863265577 
1644	 0.654924003045001 
1645	 0.655041569037154 
1646	 0.655121221086536 
1647	 0.655158485434546 
1648	 0.655195509669884 
1649	 0.655066016014098 
1650	 0.655278829703892 
1651	 0.655680317818656 
1652	 0.6558998484323 
1653	 0.65631201654032 
1654	 0.65640217274475 
1655	 0.656265591753752 
1656	 0.656094234995973 
1657	 0.655717097061972 
1658	 0.655600099629937 
1659	 0.655526672651672 
1660	 0.655769275173606 
1661	 0.656500863305398 
1662	 0.656882288771377 
1663	 0.656608892741802 
1664	 0.656112280113539 
1665	 0.655714047946415 
1666	 0.655714741209332 
1667	 0.656266839245732 
1668	 0.656579809367909 
1669	 0.656335841423221 
1670	 0.656103666502506 
1671	 0.655530620489932 
1672	 0.655299838372144 
1673	 0.655703593286978 
1674	 0.655372503076926 
1675	 0.65499354765489 
1676	 0.655023823385772 
1677	 0.654639199975746 
1678	 0.654315365331223 
1679	 0.654192499927081 
1680	 0.653799584207974 
1681	 0.653201628893523 
1682	 0.652711643990879 
1683	 0.652609255312281 
1684	 0.652454215809246 
1685	 0.652056787552147 
1686	 0.651883594722913 
1687	 0.651329102242634 
1688	 0.65030387284027 
1689	 0.649423220743757 
1690	 0.648389940496247 
1691	 0.647668527848749 
1692	 0.647355828551387 
1693	 0.646920403681495 
1694	 0.64674141716235 
1695	 0.646100860620547 
1696	 0.644868811752708 
1697	 0.644184817701509 
1698	 0.643561794506185 
1699	 0.64305786972683 
1700	 0.643274109804368 
1701	 0.64294488017079 
1702	 0.642278968202015 
1703	 0.641441197896104 
1704	 0.640146428856349 
1705	 0.639167832332183 
1706	 0.638097790404974 
1707	 0.637261886586594 
1708	 0.636635465553585 
1709	 0.636247555552447 
1710	 0.636270658716948 
1711	 0.635901269239734 
1712	 0.635624997985053 
1713	 0.635130888603548 
1714	 0.634170590423826 
1715	 0.633435658151399 
1716	 0.632698108274693 
1717	 0.6322688317186 
1718	 0.632075636304932 
1719	 0.631589807737068 
1720	 0.631368472363707 
1721	 0.63080148154831 
1722	 0.629496786262885 
1723	 0.629015208675881 
1724	 0.629014355029955 
1725	 0.628617084625466 
1726	 0.628370578647104 
1727	 0.628085608976652 
1728	 0.627614771573399 
1729	 0.627078797484371 
1730	 0.626770730096362 
1731	 0.625889758088147 
1732	 0.624691989746544 
1733	 0.624045117920878 
1734	 0.623492124273033 
1735	 0.622878730770624 
1736	 0.622852883397688 
1737	 0.622474522096908 
1738	 0.622249647106272 
1739	 0.622154532401169 
1740	 0.621175439502323 
1741	 0.620211292100045 
1742	 0.619149373957929 
1743	 0.618681341055801 
1744	 0.618636782350765 
1745	 0.618202899227309 
1746	 0.617669417669312 
1747	 0.616164348691998 
1748	 0.615060633154956 
1749	 0.614516218303104 
1750	 0.613769741309285 
1751	 0.613708481684494 
1752	 0.612986724495624 
1753	 0.612151308172197 
1754	 0.611717973645975 
1755	 0.610494143731577 
1756	 0.609781442591267 
1757	 0.608519769119994 
1758	 0.607474810958561 
1759	 0.606732696213503 
1760	 0.60595598175254 
1761	 0.605338074265999 
1762	 0.604849793298775 
1763	 0.60469504294685 
1764	 0.604050002399387 
1765	 0.603129282595557 
1766	 0.602415372149021 
1767	 0.601113030359695 
1768	 0.600565635062528 
1769	 0.600699693245232 
1770	 0.600642651679146 
1771	 0.600967817843883 
1772	 0.600659841814124 
1773	 0.600372586651281 
1774	 0.59870417475822 
1775	 0.59758126015694 
1776	 0.59705125315382 
1777	 0.595006290693199 
1778	 0.594267262967498 
1779	 0.594563299379039 
1780	 0.593736710843291 
1781	 0.593888751829982 
1782	 0.593973896677789 
1783	 0.59394888039981 
1784	 0.594574115313283 
1785	 0.594634686204785 
1786	 0.595312094559763 
1787	 0.595039722033296 
1788	 0.593306133150924 
1789	 0.593370377562519 
1790	 0.594004827341234 
1791	 0.593309210969196 
1792	 0.593963118269315 
1793	 0.594450824510025 
1794	 0.591828498541647 
1795	 0.590413760598292 
1796	 0.590168525059195 
1797	 0.588871155162194 
1798	 0.588891587424228 
1799	 0.590241198002062 
1800	 0.593035738567773 
1801	 0.586462917854406 
1802	 0.585350167037439 
1803	 0.58627597269404 
1804	 0.588156561229074 
1805	 0.58924017858034 
1806	 0.594622904565456 
1807	 0.595901885830314 
1808	 0.593546756066413 
1809	 0.588863684139936 
1810	 0.587649507689007 
1811	 0.586407380857718 
1812	 0.585784924130531 
1813	 0.58833942525884 
1814	 0.588993043894401 
1815	 0.587649804704966 
1816	 0.587778603824051 
1817	 0.587787398659583 
1818	 0.589598075661586 
1819	 0.592815528852589 
1820	 0.599341607768742 
1821	 0.602223057666608 
1822	 0.606658182720286 
1823	 0.607909495941111 
1824	 0.602470802660471 
1825	 0.599664371738918 
1826	 0.595173290844413 
1827	 0.591515798335437 
1828	 0.587875286888685 
1829	 0.574451032203136 
1830	 0.591545950889277 
1831	 0.66319464932344 
1832	 0.689724614948017 
1833	 0.746738865063234 
1834	 0.768170870699778 
1835	 0.577055170002491 
1836	 0.520437984197413 
1837	 0.586532663148828 
1838	 0.605927740640456 
1839	 0.642089886067954 
1840	 0.805066860430282 
1841	 0.799897675513021 
1842	 0.647979764679329 
1843	 0.606326256479768 
1844	 0.527315972725844 
1845	 0.51686215455546 
1846	 0.605905198977648 
1847	 0.626167973103715 
1848	 0.633564407672826 
1849	 0.652385510755041 
1850	 0.635496256612513 
1851	 0.562347120347604 
1852	 0.52141186650708 
1853	 0.462717406277941 
1854	 0.43186534993225 
1855	 0.435246625645196 
1856	 0.425218426511272 
1857	 0.413455492845142 
1858	 0.405945729260319 
1859	 0.425148432095511 
1860	 0.467403826539932 
1861	 0.460437879170602 
1862	 0.457345498986255 
1863	 0.452934089362335 
1864	 0.391899062265927 
1865	 0.375019991304947 
1866	 0.417471119776677 
1867	 0.417824719032131 
1868	 0.398255146117556 
1869	 0.379534964248779 
1870	 0.378192190855998 
1871	 0.392193038373706 
1872	 0.380014419810004 
1873	 0.353530527546506 
1874	 0.361034640381395 
1875	 0.345169335360298 
1876	 0.348574077146911 
1877	 0.340700390202575 
1878	 0.417087597481955 
1879	 0.459268471138608 
1880	 0.497101386646516 
1881	 0.499040571070232 
1882	 0.490020597715119 
1883	 0.469368113513097 
1884	 0.411834271432784 
1885	 0.393015321544835 
1886	 0.378799431635872 
1887	 0.382861122528233 
1888	 0.395632324214284 
1889	 0.404185463071372 
1890	 0.410628103403455 
1891	 0.428598883624761 
1892	 0.423463095233897 
1893	 0.394523280758692 
1894	 0.377334064867014 
1895	 0.343292632474745 
1896	 0.322778532407336 
1897	 0.30424081548781 
1898	 0.30979476488621 
1899	 0.324440131766543 
1900	 0.340729460183613 
1901	 0.364576477003572 
1902	 0.400241717430257 
1903	 0.460378467774997 
1904	 0.56402485662082 
1905	 0.60451247689516 
1906	 0.652132779024521 
1907	 0.669984067179169 
1908	 0.551044057754748 
1909	 0.462477087350876 
1910	 0.388142176597458 
1911	 0.323803211194972 
1912	 0.309460712732719 
1913	 0.322588648443319 
1914	 0.311517585168645 
1915	 0.309044022459705 
1916	 0.31298132715589 
1917	 0.314246647967564 
1918	 0.304118987229108 
1919	 0.317455908055475 
1920	 0.328065600215185 
1921	 0.325688590906515 
1922	 0.330881117095176 
1923	 0.328667808251002 
1924	 0.31982365803083 
1925	 0.31920580427964 
1926	 0.318500639458093 
1927	 0.317147796462808 
1928	 0.320043457554387 
1929	 0.323225804603878 
1930	 0.317768344205248 
1931	 0.31179880988937 
1932	 0.310014449480312 
1933	 0.307633938304242 
1934	 0.299909980581787 
1935	 0.283503670323332 
1936	 0.283049462827751 
1937	 0.286910988132077 
1938	 0.287280615431052 
1939	 0.293094052370261 
1940	 0.300339452644133 
1941	 0.294181945109386 
1942	 0.290654761794312 
1943	 0.295828000459908 
1944	 0.300744830264662 
1945	 0.307265807296718 
1946	 0.309724530746184 
1947	 0.312642578141634 
1948	 0.315049037872115 
1949	 0.316609573739229 
1950	 0.317625434491705 
1951	 0.31942015232547 
1952	 0.318896754061604 
1953	 0.310453435230382 
1954	 0.306342024237378 
1955	 0.30592053171811 
1956	 0.308682408449116 
1957	 0.311458637219922 
1958	 0.311699761333982 
1959	 0.311054955301292 
1960	 0.310241673744831 
1961	 0.3071338359203 
1962	 0.306138968201335 
1963	 0.308367818074371 
1964	 0.310698358673463 
1965	 0.310729899259724 
1966	 0.311329042397246 
1967	 0.31139456803831 
1968	 0.311736709587173 
1969	 0.313568916813216 
1970	 0.31841479033148 
1971	 0.320124855630199 
1972	 0.321397207551715 
1973	 0.321734595104886 
1974	 0.32123248397293 
1975	 0.320748793434902 
1976	 0.321088639044063 
1977	 0.32245068893897 
1978	 0.32320179855998 
1979	 0.32362900822837 
1980	 0.325378726598564 
1981	 0.326084732728863 
1982	 0.326476388497839 
1983	 0.326832802579542 
1984	 0.327449568023353 
1985	 0.326630817872986 
1986	 0.327505877050182 
1987	 0.32872454360453 
1988	 0.329782786969622 
1989	 0.331455168694176 
1990	 0.332416324848581 
1991	 0.333659033188225 
1992	 0.336052778817404 
1993	 0.338962536764435 
1994	 0.339968438654003 
1995	 0.340818101586977 
1996	 0.341068542436194 
1997	 0.340755128976707 
1998	 0.339866610664085 
1999	 0.341093970877293 
2000	 0.342292722809923 
2001	 0.342453736029729 
2002	 0.342339285459654 
2003	 0.342680027652167 
2004	 0.34411063644053 
2005	 0.345031407081515 
2006	 0.345434566533456 
2007	 0.345438576315055 
2008	 0.345226892618791 
2009	 0.345871930482823 
2010	 0.348693370192216 
2011	 0.351381725070486 
2012	 0.352646696704926 
2013	 0.352105336478992 
2014	 0.34932496017858 
2015	 0.349192268741889 
2016	 0.350970429084722 
2017	 0.35197340350316 
2018	 0.352628368447162 
2019	 0.35323890965325 
2020	 0.352707983570076 
2021	 0.353635836688545 
2022	 0.355898672588162 
2023	 0.357774377860864 
2024	 0.3609144471127 
2025	 0.363413616926236 
2026	 0.364317546192483 
2027	 0.365202631593057 
2028	 0.366532612115171 
2029	 0.367370242260348 
2030	 0.367421373311379 
2031	 0.368995427747909 
2032	 0.369793227063812 
2033	 0.370482388364508 
2034	 0.369225400525359 
2035	 0.369660550820202 
2036	 0.371081473609564 
2037	 0.371684615394412 
2038	 0.373330899095944 
2039	 0.374743545309516 
2040	 0.375428288191624 
2041	 0.376918683728013 
2042	 0.377755051358853 
2043	 0.378839858426306 
2044	 0.379225251237557 
2045	 0.379976119010882 
2046	 0.380215207332346 
2047	 0.38248848411823 
2048	 0.384447330147074 
2049	 0.386590093032406 
2050	 0.387401337749994 
2051	 0.387609897588648 
2052	 0.388166514605846 
2053	 0.387114265135439 
2054	 0.387893577263043 
2055	 0.388463187950971 
2056	 0.388848224674436 
2057	 0.390808631772588 
2058	 0.390808267946561 
2059	 0.391301419095117 
2060	 0.391590772636612 
2061	 0.392847776225781 
2062	 0.394102146238462 
2063	 0.3953468744091 
2064	 0.396911610423806 
2065	 0.397962804469984 
2066	 0.397700095237685 
2067	 0.398228756572911 
2068	 0.399003985412134 
2069	 0.399521371391356 
2070	 0.400347969186321 
2071	 0.401410533841414 
2072	 0.402899573771087 
2073	 0.404999194883643 
2074	 0.406963353362622 
2075	 0.407554715603574 
2076	 0.407901875692143 
2077	 0.408854282574581 
2078	 0.408373473422043 
2079	 0.408824494260134 
2080	 0.411916475740672 
2081	 0.413157147362378 
2082	 0.413417549478387 
2083	 0.414656727810553 
2084	 0.413846021525297 
2085	 0.41349903546735 
2086	 0.41571107756086 
2087	 0.417162257939102 
2088	 0.41909868055363 
2089	 0.420438280794933 
2090	 0.420284391115305 
2091	 0.419578851762971 
2092	 0.420292686831989 
2093	 0.421128863626009 
2094	 0.422989848970913 
2095	 0.425252368155543 
2096	 0.425267583793849 
2097	 0.424616888639566 
2098	 0.423804428003836 
2099	 0.423554208260708 
2100	 0.423304356959438 
2101	 0.42321884181779 
2102	 0.424271052377307 
2103	 0.426988778565111 
2104	 0.4281312010008 
2105	 0.42860263877223 
2106	 0.430096450367251 
2107	 0.431089362993688 
2108	 0.43213012880855 
2109	 0.433870780284555 
2110	 0.434585782652998 
2111	 0.434107838509338 
2112	 0.433743258689735 
2113	 0.433818979198028 
2114	 0.435126862525496 
2115	 0.435297953642279 
2116	 0.43531376332655 
2117	 0.435800120882205 
2118	 0.435289503499275 
2119	 0.435880503385544 
2120	 0.4379000938066 
2121	 0.439528678049072 
2122	 0.439579671582737 
2123	 0.438864523430292 
2124	 0.437885467124424 
2125	 0.438517035552128 
2126	 0.440143751996114 
2127	 0.442989333419418 
2128	 0.445410613636534 
2129	 0.445107139311079 
2130	 0.444180545977271 
2131	 0.444309106501287 
2132	 0.444929927126376 
2133	 0.445420275643139 
2134	 0.44598343134978 
2135	 0.447100881636172 
2136	 0.447490296269142 
2137	 0.447295405697322 
2138	 0.447441448333771 
2139	 0.446408725030669 
2140	 0.445564946832102 
2141	 0.444989634405185 
2142	 0.444359525436046 
2143	 0.44603174001725 
2144	 0.44735570574124 
2145	 0.447522773000731 
2146	 0.447697904353259 
2147	 0.447694974233287 
2148	 0.448048273866591 
2149	 0.447722307083252 
2150	 0.448488439248491 
2151	 0.449516001597967 
2152	 0.450397740234064 
2153	 0.45132620517002 
2154	 0.453029787233486 
2155	 0.454635218538991 
2156	 0.455387577851915 
2157	 0.455529905216616 
2158	 0.456373244024553 
2159	 0.456699883209162 
2160	 0.456748012701146 
2161	 0.457249673255083 
2162	 0.457530080547028 
2163	 0.457618228082639 
2164	 0.456930564951655 
2165	 0.456701619683161 
2166	 0.455496923139647 
2167	 0.454635977825915 
2168	 0.45466878623729 
2169	 0.455635191893546 
2170	 0.455717837411746 
2171	 0.456266516685335 
2172	 0.456164051340532 
2173	 0.45582150039638 
2174	 0.456339940641516 
2175	 0.455738148163843 
2176	 0.457225237663024 
2177	 0.459481561344626 
2178	 0.460204068997921 
2179	 0.46216608274835 
2180	 0.462606617245811 
2181	 0.461776515186566 
2182	 0.46158820697575 
2183	 0.462922717648421 
2184	 0.464600090366521 
2185	 0.463639783859871 
2186	 0.463294645473 
2187	 0.463765329651101 
2188	 0.463310990546332 
2189	 0.463811281729769 
2190	 0.466193483127556 
2191	 0.468093937530992 
2192	 0.467322912624781 
2193	 0.466900693426653 
2194	 0.465880027748375 
2195	 0.464969843916346 
2196	 0.465418401697114 
2197	 0.465265395352138 
2198	 0.466731135948612 
2199	 0.467196357423638 
2200	 0.466436643930188 
2201	 0.467444815377071 
2202	 0.469000680177227 
2203	 0.469132652613578 
2204	 0.468240694079849 
2205	 0.468035966365439 
2206	 0.465737502325063 
2207	 0.464378744381943 
2208	 0.46456396975389 
2209	 0.466851494634099 
2210	 0.467479432619625 
2211	 0.468480832060373 
2212	 0.469501216279675 
2213	 0.468932746715267 
2214	 0.467520498813888 
2215	 0.467376028829755 
2216	 0.468566528269997 
2217	 0.469721924478629 
2218	 0.47182421606869 
2219	 0.471994324663569 
2220	 0.470353021590103 
2221	 0.470585170117087 
2222	 0.470194932670736 
2223	 0.469211053556436 
2224	 0.469241360507161 
2225	 0.467078667873261 
2226	 0.466027627764205 
2227	 0.467858082046486 
2228	 0.468981433797613 
2229	 0.470598924455787 
2230	 0.471902570107595 
2231	 0.47214471517993 
2232	 0.470754171119261 
2233	 0.469887386470702 
2234	 0.468622910657104 
2235	 0.467960677428594 
2236	 0.465765329529295 
2237	 0.466394475579587 
2238	 0.467039184605174 
2239	 0.46518408275418 
2240	 0.466360980813281 
2241	 0.466397633097761 
2242	 0.46480894283788 
2243	 0.464998374769599 
2244	 0.462675932508696 
2245	 0.460696558497088 
2246	 0.461685911194294 
2247	 0.461673319188673 
2248	 0.461717880297993 
2249	 0.46186498467947 
2250	 0.461509934911823 
2251	 0.461472876140603 
2252	 0.461499650811367 
2253	 0.461473447521249 
2254	 0.461100282373587 
2255	 0.460113392656461 
2256	 0.459475096882831 
2257	 0.45945596763025 
2258	 0.459248223473866 
2259	 0.457750948829274 
2260	 0.458015638094275 
2261	 0.456498374401182 
2262	 0.454914066578925 
2263	 0.455681984755762 
2264	 0.454166345908614 
2265	 0.452128845289538 
2266	 0.450964007116228 
2267	 0.44920359806942 
2268	 0.447214224978367 
2269	 0.44719120603964 
2270	 0.447239295587055 
2271	 0.444932961119694 
2272	 0.442207671612213 
2273	 0.441423914614402 
2274	 0.440570779654331 
2275	 0.441312091864254 
2276	 0.443372547534989 
2277	 0.443091718977462 
2278	 0.442095275634197 
2279	 0.439009502216634 
2280	 0.43641603145921 
2281	 0.433289983173167 
2282	 0.431612064833787 
2283	 0.432283594707142 
2284	 0.43210550548891 
2285	 0.435175368732368 
2286	 0.435576283219187 
2287	 0.434399192701743 
2288	 0.432855504745317 
2289	 0.433432082852436 
2290	 0.430864164084638 
2291	 0.429221941328852 
2292	 0.428813909950283 
2293	 0.426942123576611 
2294	 0.42540978977557 
2295	 0.422928318477339 
2296	 0.421612528349023 
2297	 0.421277843341837 
2298	 0.416538322680518 
2299	 0.418066540179041 
2300	 0.422841786283565 
2301	 0.424069566361491 
2302	 0.427776559127233 
2303	 0.428736333725456 
2304	 0.426142830888601 
2305	 0.422984993088248 
2306	 0.421112650133057 
2307	 0.4191144918908 
2308	 0.41746964691065 
2309	 0.419473720032917 
2310	 0.420050401070372 
2311	 0.417294742406907 
2312	 0.415784395346857 
2313	 0.415798938122741 
2314	 0.415984220574073 
2315	 0.419749831066916 
2316	 0.422136513619575 
2317	 0.420288877960262 
2318	 0.419801591040338 
2319	 0.415089784740251 
2320	 0.41030858607794 
2321	 0.409016393185146 
2322	 0.407359026619618 
2323	 0.408401623915932 
2324	 0.414332268359071 
2325	 0.420215328533845 
2326	 0.418165953446212 
2327	 0.41485734296411 
2328	 0.409656218100116 
2329	 0.405016251493836 
2330	 0.403886378404841 
2331	 0.405413716298465 
2332	 0.408562801569254 
2333	 0.406999422285697 
2334	 0.40259233317272 
2335	 0.399728048117537 
2336	 0.396084236983398 
2337	 0.393662077781419 
2338	 0.394925467490367 
2339	 0.396572629191671 
2340	 0.396382331915491 
2341	 0.395011801675016 
2342	 0.388983868100786 
2343	 0.382792780324613 
2344	 0.383543080879346 
2345	 0.384394926044179 
2346	 0.388010101861789 
2347	 0.393122679380033 
2348	 0.391226359707981 
2349	 0.388489692942344 
2350	 0.388475872663372 
2351	 0.390835500862536 
2352	 0.392028926838552 
2353	 0.39262497266483 
2354	 0.393939028413841 
2355	 0.39476679820705 
2356	 0.398510385660715 
2357	 0.401605217824013 
2358	 0.398232963749573 
2359	 0.39356837232329 
2360	 0.391048569589954 
2361	 0.387405654828076 
2362	 0.386149201624064 
2363	 0.386344943642185 
2364	 0.389056759548952 
2365	 0.391608076226749 
2366	 0.390598605343392 
2367	 0.394509880375775 
2368	 0.396785035196806 
2369	 0.393358852694937 
2370	 0.397462669858138 
2371	 0.40538849689944 
2372	 0.405508846978368 
2373	 0.402270909868301 
2374	 0.397664207816689 
2375	 0.382427129810585 
2376	 0.376718973797816 
2377	 0.375632637434117 
2378	 0.371861499225566 
2379	 0.370957789761424 
2380	 0.37117184944823 
2381	 0.369659237007342 
2382	 0.37271181062329 
2383	 0.383505871436638 
2384	 0.38826957605747 
2385	 0.392224836061339 
2386	 0.387766577125034 
2387	 0.374600927031214 
2388	 0.369722550005797 
2389	 0.364307559922955 
2390	 0.358433038080347 
2391	 0.357449808580673 
2392	 0.352680611506771 
2393	 0.342159254460029 
2394	 0.336770685500527 
2395	 0.332749115934042 
2396	 0.334804521772633 
2397	 0.339679250931182 
2398	 0.344565212529026 
2399	 0.361879875520393 
2400	 0.366914526785749 
2401	 0.360441490454506 
2402	 0.362493689130592 
2403	 0.371809307801197 
2404	 0.372942770063888 
2405	 0.383482903472454 
2406	 0.377149963723746 
2407	 0.362154951322153 
2408	 0.355908141119068 
2409	 0.343584166806115 
2410	 0.348308666529391 
2411	 0.363365404741441 
2412	 0.351011004563551 
2413	 0.336316096816037 
2414	 0.336837190297399 
2415	 0.326359330410757 
2416	 0.336635607571084 
2417	 0.36567008770881 
2418	 0.380971532058254 
2419	 0.387307941549542 
2420	 0.387666629516767 
2421	 0.37820267598975 
2422	 0.364350580987286 
2423	 0.356415975099097 
2424	 0.336772808408814 
2425	 0.315304429060577 
2426	 0.305494807006969 
2427	 0.29657620229326 
2428	 0.294633953413193 
2429	 0.310180143034703 
2430	 0.326406120978846 
2431	 0.335744387206397 
2432	 0.353365016031589 
2433	 0.338760014089951 
2434	 0.333809737644769 
2435	 0.340860891755476 
2436	 0.333201693052428 
2437	 0.307840712260878 
2438	 0.306069257901285 
2439	 0.301664740304999 
2440	 0.307181325844015 
2441	 0.350561333619887 
2442	 0.372680280959358 
2443	 0.394622733896593 
2444	 0.402755732660502 
2445	 0.378699225171691 
2446	 0.376151795864688 
2447	 0.377303248546275 
2448	 0.374065719144042 
2449	 0.390124283548312 
2450	 0.387426848631555 
2451	 0.349205727189808 
2452	 0.344196536383359 
2453	 0.361191579227287 
2454	 0.36344747305093 
2455	 0.392710121986247 
2456	 0.37703751189989 
2457	 0.306371871187974 
2458	 0.286247966559739 
2459	 0.271484826947715 
2460	 0.265571021189935 
2461	 0.294120175367157 
2462	 0.299717115385285 
2463	 0.293165957801111 
2464	 0.29356194679133 
2465	 0.289401251753241 
2466	 0.281580608221754 
2467	 0.258397569633409 
2468	 0.263118374103601 
2469	 0.302857060351459 
2470	 0.319320339619342 
2471	 0.348610261369543 
2472	 0.356939561638495 
2473	 0.331149597757095 
2474	 0.298163897253185 
2475	 0.240058059135018 
2476	 0.236109728068139 
2477	 0.221502907850293 
2478	 0.221329444115777 
2479	 0.31604743721046 
2480	 0.349364460115309 
2481	 0.326194109760981 
2482	 0.327644299881376 
2483	 0.349603493924012 
2484	 0.409968916702482 
2485	 0.535373682278409 
2486	 0.588043429438513 
2487	 0.389301082964521 
2488	 0.371888430445025 
2489	 0.332246183254932 
2490	 0.232023768681117 
2491	 0.318419480183297 
2492	 4.28743269707644E-03 
2493	-0.218085652274504 
2494	-6.33019271165059E-02 
2495	 0.175535116600965 
2496	 0.44726053640473 
2497	 0.524590439645745 
2498	 0.278410039632728 
2499	 9.42549466491557E-02 
2500	-3.18060930529258E-02 
