Wavelength	ref00033.asd
350	 3.86092264460208E-02 
351	 3.92082572162311E-02 
352	 3.91084610112932E-02 
353	 3.83803368360348E-02 
354	 0.038844518813799 
355	 3.93059207418825E-02 
356	 3.89968926273499E-02 
357	 3.91585434622955E-02 
358	 3.96525565849498E-02 
359	 4.02513491674822E-02 
360	 4.06532645273987E-02 
361	 0.040465541041227 
362	 4.05565231772191E-02 
363	 4.10455335727218E-02 
364	 4.14918556273148E-02 
365	 4.14684194910409E-02 
366	 4.15991447234049E-02 
367	 4.20179808244572E-02 
368	 4.20098376326077E-02 
369	 4.21441465803899E-02 
370	 4.23953864464591E-02 
371	 4.26784552848851E-02 
372	 4.32122860383869E-02 
373	 4.36099610363698E-02 
374	 4.37808910726518E-02 
375	 0.043826609990947 
376	 4.39110104771495E-02 
377	 4.42973038495103E-02 
378	 4.49299360563501E-02 
379	 4.53887887924194E-02 
380	 4.59716852824235E-02 
381	 4.64999315553607E-02 
382	 4.68189845143218E-02 
383	 4.70466555727904E-02 
384	 0.047697202134329 
385	 4.84423097723394E-02 
386	 4.87110151316754E-02 
387	 4.90463675117401E-02 
388	 4.99596450747961E-02 
389	 5.11096885767646E-02 
390	 5.13819902095526E-02 
391	 5.21849152275859E-02 
392	 5.30726479289901E-02 
393	 5.36692974066639E-02 
394	 5.45133051995344E-02 
395	 5.55416396590251E-02 
396	 5.64251366766488E-02 
397	 5.69109212115623E-02 
398	 5.76270193850588E-02 
399	 5.83429198832701E-02 
400	 5.90382654319884E-02 
401	 5.98884778838362E-02 
402	 6.07593266679318E-02 
403	 6.16668370133435E-02 
404	 6.25967963220304E-02 
405	 6.34065955309547E-02 
406	 6.43927816200039E-02 
407	 6.55607709793803E-02 
408	 6.67561136504755E-02 
409	 6.76174348918459E-02 
410	 6.85469874890185E-02 
411	 6.97059927495432E-02 
412	 7.09744620186037E-02 
413	 7.18058230595594E-02 
414	 7.26350814023973E-02 
415	 7.37568866492268E-02 
416	 7.48402703176285E-02 
417	 7.59715039204927E-02 
418	 7.69514761966762E-02 
419	 7.76567721237972E-02 
420	 7.87240899779593E-02 
421	 7.99200890683458E-02 
422	 8.10218846384856E-02 
423	 0.08189209148349 
424	 8.29360046494114E-02 
425	 8.37814260341311E-02 
426	 8.43087352074059E-02 
427	 8.52106740922468E-02 
428	 8.62168325727266E-02 
429	 8.72828321315761E-02 
430	 8.83740659671302E-02 
431	 0.089177483991135 
432	 8.99871564306985E-02 
433	 9.08145779620025E-02 
434	 9.14308376944218E-02 
435	 9.23188410804784E-02 
436	 9.30912857416961E-02 
437	 0.093576850182652 
438	 9.43292871243606E-02 
439	 9.50818597249117E-02 
440	 0.09576667806396 
441	 9.63998597670342E-02 
442	 9.70838709985399E-02 
443	 9.78203599640493E-02 
444	 9.85694417990729E-02 
445	 9.92706917361885E-02 
446	 0.10010122227675 
447	 0.100803341831218 
448	 0.101279806706274 
449	 0.101996472338317 
450	 0.102760564252645 
451	 0.10343047383699 
452	 0.103949605402718 
453	 0.104681290463227 
454	 0.10545645705312 
455	 0.106127994283619 
456	 0.106634278895887 
457	 0.107323333833128 
458	 0.108008406456757 
459	 0.108508355964176 
460	 0.109026765469065 
461	 0.109603335350447 
462	 0.110219796829643 
463	 0.11082046061438 
464	 0.111387284617568 
465	 0.111971942245953 
466	 0.112575876969035 
467	 0.113111907498624 
468	 0.113671491420297 
469	 0.11423522980395 
470	 0.11477772069339 
471	 0.115376558686283 
472	 0.115972506804927 
473	 0.116533809014618 
474	 0.117063811836725 
475	 0.117712449282063 
476	 0.118279976779975 
477	 0.118730748367028 
478	 0.11943205609555 
479	 0.120075033207087 
480	 0.120638353801069 
481	 0.12119444624023 
482	 0.121768200268962 
483	 0.122286476956605 
484	 0.122820447363763 
485	 0.123566172462133 
486	 0.12418103830666 
487	 0.12477862433159 
488	 0.125479556106039 
489	 0.126184539760241 
490	 0.126891309094823 
491	 0.127577775142954 
492	 0.128237677263861 
493	 0.128951295926442 
494	 0.129666142307225 
495	 0.130390534824248 
496	 0.131218395520176 
497	 0.131977311161749 
498	 0.132833479214362 
499	 0.133890321910412 
500	 0.13475498959542 
501	 0.135770872650588 
502	 0.136925135100935 
503	 0.137996289251282 
504	 0.139078204762875 
505	 0.140228064951662 
506	 0.141433189222187 
507	 0.142564625324427 
508	 0.143879026923978 
509	 0.145310440590136 
510	 0.146742519479752 
511	 0.148353368172022 
512	 0.14986514314147 
513	 0.15132013368566 
514	 0.153032290920448 
515	 0.154794679691471 
516	 0.156629016241883 
517	 0.158563687688754 
518	 0.160583463206291 
519	 0.162641331575799 
520	 0.164617389544923 
521	 0.166440604827745 
522	 0.168410977040062 
523	 0.170470415305547 
524	 0.172495592719116 
525	 0.174304599961044 
526	 0.17636534967235 
527	 0.178326406882813 
528	 0.179932858844206 
529	 0.181814891875377 
530	 0.183524425311135 
531	 0.185068724680536 
532	 0.18669957519571 
533	 0.188329487722328 
534	 0.189804237562653 
535	 0.191094765273096 
536	 0.192398023621954 
537	 0.193619933241278 
538	 0.194857704893195 
539	 0.196177818021187 
540	 0.19725745514617 
541	 0.198408763615488 
542	 0.19962292271042 
543	 0.200616712346705 
544	 0.201654250384547 
545	 0.202767037651493 
546	 0.203890114769702 
547	 0.204808244802066 
548	 0.205796723664808 
549	 0.206832437953711 
550	 0.20777247767966 
551	 0.208578341544324 
552	 0.20939598565511 
553	 0.210224231956788 
554	 0.210870315407452 
555	 0.211497305570372 
556	 0.212113782726999 
557	 0.212665793746275 
558	 0.213002458563782 
559	 0.213387213303694 
560	 0.213731910726308 
561	 0.213772667556808 
562	 0.213930682490643 
563	 0.214126638109517 
564	 0.214253095795194 
565	 0.21427572924702 
566	 0.214136058762449 
567	 0.21394196665567 
568	 0.213811972549799 
569	 0.213621521003224 
570	 0.213331625970548 
571	 0.212998458313199 
572	 0.212752365697435 
573	 0.212433587178495 
574	 0.212273528952872 
575	 0.212345850162543 
576	 0.212149258014517 
577	 0.211978457616925 
578	 0.211863157826448 
579	 0.211735555243994 
580	 0.211761581692664 
581	 0.211733868357722 
582	 0.211611456079738 
583	 0.211612088870005 
584	 0.211652011764374 
585	 0.211810475454 
586	 0.212121598697064 
587	 0.212318762595635 
588	 0.212539206752784 
589	 0.212799018401582 
590	 0.213022461091968 
591	 0.213278205215821 
592	 0.213498015157051 
593	 0.21365790509354 
594	 0.213815268152496 
595	 0.214153684262325 
596	 0.214489077281126 
597	 0.214607333436395 
598	 0.214821981964509 
599	 0.215137551889691 
600	 0.215558810923761 
601	 0.216087239212404 
602	 0.216307724905017 
603	 0.216471003141886 
604	 0.216757952381512 
605	 0.21676498982748 
606	 0.216861328218538 
607	 0.216996839640097 
608	 0.216976159921512 
609	 0.21720229591626 
610	 0.21738905578485 
611	 0.217378951298575 
612	 0.217286837549768 
613	 0.217214988909202 
614	 0.217178384284539 
615	 0.217161587499755 
616	 0.217152970509707 
617	 0.21719294108925 
618	 0.217269409676944 
619	 0.21734091877426 
620	 0.217483716863914 
621	 0.217640452176041 
622	 0.217792269553411 
623	 0.218018092155191 
624	 0.218439191892157 
625	 0.218875403095399 
626	 0.219124039954219 
627	 0.219503873297159 
628	 0.219893086457212 
629	 0.220269599949615 
630	 0.220714924368001 
631	 0.221097822583609 
632	 0.221395508701894 
633	 0.221654374768216 
634	 0.22205304115274 
635	 0.222320281693207 
636	 0.222446772423038 
637	 0.22253859102579 
638	 0.222586676847815 
639	 0.222539604815613 
640	 0.222376018626401 
641	 0.222121952418964 
642	 0.221905189214098 
643	 0.221663946071185 
644	 0.221338979751804 
645	 0.221048545942934 
646	 0.220828861540231 
647	 0.220645279558591 
648	 0.220439726054309 
649	 0.220416614560768 
650	 0.220405462533059 
651	 0.220332702075072 
652	 0.220349445295416 
653	 0.220426237039835 
654	 0.220461208669558 
655	 0.220404627857166 
656	 0.220564746091095 
657	 0.220623090238008 
658	 0.220487440230838 
659	 0.220286053060896 
660	 0.220074748996248 
661	 0.21976077825044 
662	 0.219374637190056 
663	 0.219216217842894 
664	 0.219032583564313 
665	 0.218793456385928 
666	 0.21856497740531 
667	 0.218484380989688 
668	 0.218451598713102 
669	 0.218433165939429 
670	 0.218465922007743 
671	 0.218532420989519 
672	 0.218673438609291 
673	 0.218887261089258 
674	 0.219034587497531 
675	 0.219414455623577 
676	 0.219921580879142 
677	 0.2203187053644 
678	 0.220630813578192 
679	 0.221163220147013 
680	 0.221943739669521 
681	 0.222696961266728 
682	 0.223468844977605 
683	 0.224476891746643 
684	 0.225826469284733 
685	 0.227230102843625 
686	 0.228842862101269 
687	 0.230923066471546 
688	 0.23348733375984 
689	 0.235919521322099 
690	 0.23852400745709 
691	 0.24153589208365 
692	 0.244811466267168 
693	 0.248399646675897 
694	 0.252362785559903 
695	 0.256623737544436 
696	 0.260835999652037 
697	 0.265252094970121 
698	 0.269906224287899 
699	 0.274686902224974 
700	 0.279435789550208 
701	 0.284295534114432 
702	 0.289270840409536 
703	 0.294153656453848 
704	 0.298860315516539 
705	 0.303469520737176 
706	 0.308090798136106 
707	 0.31266024636716 
708	 0.317135777261758 
709	 0.321487615949013 
710	 0.325714477767019 
711	 0.330133435297958 
712	 0.334506200318745 
713	 0.338736140209555 
714	 0.342951760870451 
715	 0.347188826460685 
716	 0.351399862722067 
717	 0.355708390326185 
718	 0.360413245918676 
719	 0.364941801930214 
720	 0.369106358549307 
721	 0.373047522831397 
722	 0.376663813678756 
723	 0.380416607282234 
724	 0.384492915553317 
725	 0.388282962515955 
726	 0.392016489494393 
727	 0.395519657722195 
728	 0.398802007181536 
729	 0.402170991301702 
730	 0.405320460397381 
731	 0.408330079502567 
732	 0.411343386900169 
733	 0.413886659774263 
734	 0.416292714973129 
735	 0.418777445923581 
736	 0.421329285104037 
737	 0.423636111337806 
738	 0.425696620758432 
739	 0.427643102167097 
740	 0.42965703169398 
741	 0.431561644992736 
742	 0.433273492424326 
743	 0.434795231559566 
744	 0.436410589684693 
745	 0.437924816407841 
746	 0.439289964487867 
747	 0.440579100423538 
748	 0.441788160297283 
749	 0.442884283297679 
750	 0.443938055509086 
751	 0.445202428862525 
752	 0.446157164385039 
753	 0.446972358486638 
754	 0.447903225787384 
755	 0.448751712010212 
756	 0.449596440154271 
757	 0.450408658717915 
758	 0.451135347988092 
759	 0.451931215349762 
760	 0.453178440250062 
761	 0.454885817285307 
762	 0.455658806482677 
763	 0.456158771659773 
764	 0.456540109963618 
765	 0.456765379343604 
766	 0.456826484617555 
767	 0.457105228334373 
768	 0.457494086760949 
769	 0.457810556244004 
770	 0.458196676855388 
771	 0.458726420629684 
772	 0.45934439224478 
773	 0.459895099586216 
774	 0.460367437391022 
775	 0.460871017778137 
776	 0.461438310198284 
777	 0.461944235178759 
778	 0.462358103381703 
779	 0.462835991318565 
780	 0.463449405860528 
781	 0.463789892681824 
782	 0.464250544381087 
783	 0.464844419402099 
784	 0.465375766279209 
785	 0.465781473353973 
786	 0.466330785043587 
787	 0.467006063440523 
788	 0.46746917933146 
789	 0.467926630634792 
790	 0.468391089215581 
791	 0.468867280962101 
792	 0.469413760831404 
793	 0.470023437917085 
794	 0.470563665467832 
795	 0.470960672065332 
796	 0.471540107246979 
797	 0.472043654442362 
798	 0.472504416400652 
799	 0.47309665539412 
800	 0.473604708773228 
801	 0.474145509375941 
802	 0.474667318994617 
803	 0.474931868495797 
804	 0.475413332285488 
805	 0.47601952131886 
806	 0.476573430905247 
807	 0.476961143850502 
808	 0.477619926959521 
809	 0.478277194624824 
810	 0.478610905149352 
811	 0.479075769183839 
812	 0.479533585692652 
813	 0.480054582741375 
814	 0.480770640756969 
815	 0.481300216415982 
816	 0.481965545155975 
817	 0.482701066864364 
818	 0.483020650220879 
819	 0.483447396270508 
820	 0.483788299100865 
821	 0.484067729536594 
822	 0.484867175567623 
823	 0.485471327395847 
824	 0.485906166227681 
825	 0.486350228695244 
826	 0.486809694813269 
827	 0.487259363520186 
828	 0.487670696975314 
829	 0.488030642144448 
830	 0.488490215579773 
831	 0.488916779174084 
832	 0.489325446482673 
833	 0.489824355793039 
834	 0.490241286032719 
835	 0.490611876625371 
836	 0.491030719993297 
837	 0.491613816255736 
838	 0.492107552857579 
839	 0.492545685093762 
840	 0.492977171870571 
841	 0.493364102384306 
842	 0.493744893923927 
843	 0.49418910567765 
844	 0.494704430092503 
845	 0.495085689099731 
846	 0.495454506731427 
847	 0.495859724514171 
848	 0.496309160543521 
849	 0.496796355639482 
850	 0.497166674123741 
851	 0.497487061096011 
852	 0.497967538403331 
853	 0.498462669186433 
854	 0.498962441170064 
855	 0.499459467207633 
856	 0.499931493351723 
857	 0.500418106031569 
858	 0.500805472744084 
859	 0.501116505638504 
860	 0.501595103575852 
861	 0.501987806445516 
862	 0.502394793542924 
863	 0.502883391726904 
864	 0.503206678502724 
865	 0.503502827452825 
866	 0.504017510226308 
867	 0.504827109744069 
868	 0.505283605555107 
869	 0.505605297445856 
870	 0.5058777267635 
871	 0.506179661211109 
872	 0.50691255841015 
873	 0.507417979520162 
874	 0.507584153302701 
875	 0.507785739876343 
876	 0.508503233424139 
877	 0.509060035226644 
878	 0.509400133527171 
879	 0.51011861428428 
880	 0.510482813105165 
881	 0.510848519317021 
882	 0.51135433183046 
883	 0.511646261589624 
884	 0.511967270448248 
885	 0.512600311368813 
886	 0.51342041296564 
887	 0.513591974064051 
888	 0.513790709829013 
889	 0.51418308196363 
890	 0.514739715826493 
891	 0.515291806228925 
892	 0.516024933653413 
893	 0.516552970895793 
894	 0.516643485544737 
895	 0.517244997018782 
896	 0.517963681823477 
897	 0.518536883872422 
898	 0.518919276396266 
899	 0.519779465755274 
900	 0.520495342006294 
901	 0.520910273435591 
902	 0.521153155517912 
903	 0.521137189703163 
904	 0.521404413146506 
905	 0.521906631597914 
906	 0.522286904381389 
907	 0.522942398368691 
908	 0.523671870992666 
909	 0.524091240811312 
910	 0.52390286781059 
911	 0.524308336497784 
912	 0.524847793292569 
913	 0.525356079408715 
914	 0.526080131484905 
915	 0.526527644508272 
916	 0.52679131499413 
917	 0.527147858113 
918	 0.527850235929259 
919	 0.527562488882263 
920	 0.527577913017086 
921	 0.528484577026261 
922	 0.529430773450199 
923	 0.529693734288822 
924	 0.529699618325287 
925	 0.529865274836629 
926	 0.530194354980094 
927	 0.530413783820586 
928	 0.53055887551615 
929	 0.530618907177295 
930	 0.530372965797157 
931	 0.530970898608238 
932	 0.531621274395318 
933	 0.531751041868536 
934	 0.532638571611373 
935	 0.533152646269175 
936	 0.533088771710237 
937	 0.532916462871605 
938	 0.533675211333287 
939	 0.533292304987869 
940	 0.532414128880443 
941	 0.532284840688781 
942	 0.53397770217934 
943	 0.535797737598082 
944	 0.53599923312899 
945	 0.534385629480456 
946	 0.533933161730203 
947	 0.534322517177252 
948	 0.534219768303726 
949	 0.533379192904523 
950	 0.534336038231034 
951	 0.534123636959953 
952	 0.533910421455478 
953	 0.534745972113819 
954	 0.535273241674013 
955	 0.535701617313019 
956	 0.536254605905961 
957	 0.53634203495766 
958	 0.53390646598971 
959	 0.533630846186848 
960	 0.535405913583503 
961	 0.537129594485356 
962	 0.535796219457656 
963	 0.536515663548914 
964	 0.537633113417885 
965	 0.537561434867655 
966	 0.537461209905307 
967	 0.537088909883306 
968	 0.53710352820338 
969	 0.537524398716287 
970	 0.537259168033091 
971	 0.538065239799879 
972	 0.538727951046134 
973	 0.538653430621326 
974	 0.538945626476461 
975	 0.539288048562474 
976	 0.539323572354559 
977	 0.539519776041054 
978	 0.54109171697749 
979	 0.541346976145878 
980	 0.54131835379393 
981	 0.541426672250253 
982	 0.540909284586311 
983	 0.540859038022374 
984	 0.541185244247415 
985	 0.541752230552859 
986	 0.542492996843063 
987	 0.543181305005522 
988	 0.54327155424803 
989	 0.542887527991718 
990	 0.542756271704962 
991	 0.543672599439817 
992	 0.544583538455439 
993	 0.544718494434185 
994	 0.543909594820955 
995	 0.542899036930329 
996	 0.54394462754083 
997	 0.545574894702864 
998	 0.545459884095944 
999	 0.546282402981055 
1000	 0.546019915706473 
1001	 0.552747124704877 
1002	 0.553373894207053 
1003	 0.55379633411513 
1004	 0.553930031374982 
1005	 0.554415256859844 
1006	 0.555044932559304 
1007	 0.55547240361001 
1008	 0.555979432952426 
1009	 0.556477573226836 
1010	 0.556804047775648 
1011	 0.557155261362355 
1012	 0.557679232752908 
1013	 0.558251472740259 
1014	 0.558635178540683 
1015	 0.55899828133119 
1016	 0.559552828446536 
1017	 0.560095978415123 
1018	 0.560604143562681 
1019	 0.561209000527024 
1020	 0.561691830621175 
1021	 0.56202480781294 
1022	 0.562443238296136 
1023	 0.562884469362221 
1024	 0.563327972313421 
1025	 0.56366267428966 
1026	 0.564119768484779 
1027	 0.564711750124314 
1028	 0.56519720165824 
1029	 0.565773749402859 
1030	 0.566352764655325 
1031	 0.566774902931928 
1032	 0.56718327133862 
1033	 0.567565223162011 
1034	 0.567862560147261 
1035	 0.568273791632477 
1036	 0.568698924665364 
1037	 0.569098340070718 
1038	 0.569555688958895 
1039	 0.570041670516161 
1040	 0.570354740731325 
1041	 0.57088274897465 
1042	 0.571167672718868 
1043	 0.571347515566031 
1044	 0.5716714371297 
1045	 0.571791210036171 
1046	 0.572217963110294 
1047	 0.572657423449146 
1048	 0.572954360592775 
1049	 0.573396921576734 
1050	 0.573766912890116 
1051	 0.574088808399696 
1052	 0.574374258091249 
1053	 0.57463693192577 
1054	 0.574845213408249 
1055	 0.57503368781214 
1056	 0.575387954885562 
1057	 0.575878434156744 
1058	 0.576215669954215 
1059	 0.576481224648186 
1060	 0.576775025162836 
1061	 0.577000142360916 
1062	 0.577246287757881 
1063	 0.57762520210195 
1064	 0.577965604378374 
1065	 0.5781884077155 
1066	 0.57831425058335 
1067	 0.578503363228818 
1068	 0.578670207956602 
1069	 0.578854848935218 
1070	 0.579214633154087 
1071	 0.579567911785121 
1072	 0.579969578794656 
1073	 0.580369041239541 
1074	 0.580603163386997 
1075	 0.580879475582863 
1076	 0.581225079345378 
1077	 0.581509528730982 
1078	 0.581740487949572 
1079	 0.581980014717635 
1080	 0.582231497606988 
1081	 0.582532845568879 
1082	 0.582825664002631 
1083	 0.58326530411938 
1084	 0.58364308523468 
1085	 0.583900472516802 
1086	 0.584107755733351 
1087	 0.584212414818117 
1088	 0.584374263914864 
1089	 0.584663706370603 
1090	 0.584947844118181 
1091	 0.585176068530306 
1092	 0.585596670719698 
1093	 0.586114562295128 
1094	 0.586429445424785 
1095	 0.58675135290423 
1096	 0.587061449003474 
1097	 0.587172705121543 
1098	 0.587453488040662 
1099	 0.587849554014614 
1100	 0.588265783059291 
1101	 0.588592897195768 
1102	 0.588749401949152 
1103	 0.588778338054734 
1104	 0.58904976831826 
1105	 0.58944901616246 
1106	 0.589870514403685 
1107	 0.590332804860833 
1108	 0.590559037968324 
1109	 0.590567011815944 
1110	 0.590634972404132 
1111	 0.590857180906146 
1112	 0.59125753297001 
1113	 0.591523479475672 
1114	 0.591838826877982 
1115	 0.592199471416921 
1116	 0.592527543018203 
1117	 0.592764375833636 
1118	 0.593106440065889 
1119	 0.593538805150273 
1120	 0.593801071203012 
1121	 0.594093817167517 
1122	 0.594538982581169 
1123	 0.594949629862695 
1124	 0.595188519508249 
1125	 0.595317559879601 
1126	 0.595376338746125 
1127	 0.595205119218462 
1128	 0.595178442593291 
1129	 0.595256229861314 
1130	 0.595170951026201 
1131	 0.595134222200972 
1132	 0.594954178023301 
1133	 0.594695054172965 
1134	 0.594212424308984 
1135	 0.593795151832706 
1136	 0.593296662439411 
1137	 0.592902084715253 
1138	 0.592575469385608 
1139	 0.592154520761996 
1140	 0.591797104486441 
1141	 0.591351960839206 
1142	 0.590875083816638 
1143	 0.59043900410433 
1144	 0.590023815291685 
1145	 0.589609065755566 
1146	 0.589213026152431 
1147	 0.588764913779823 
1148	 0.588297936401943 
1149	 0.587886992717625 
1150	 0.587487225289288 
1151	 0.587115425567886 
1152	 0.586888283146241 
1153	 0.586460374683508 
1154	 0.585959427306567 
1155	 0.585757457741826 
1156	 0.585646137599815 
1157	 0.585544872151374 
1158	 0.585535395324459 
1159	 0.585510198676139 
1160	 0.585442959680051 
1161	 0.58528529890429 
1162	 0.585220068590194 
1163	 0.585162968882192 
1164	 0.585166575979881 
1165	 0.585197868771844 
1166	 0.585258944790054 
1167	 0.585319939275791 
1168	 0.585468516772745 
1169	 0.585631552033872 
1170	 0.585952655206759 
1171	 0.586239880375843 
1172	 0.586552538608464 
1173	 0.586827685830341 
1174	 0.586996801694453 
1175	 0.587214114760211 
1176	 0.587543550331669 
1177	 0.587851218988285 
1178	 0.588223614385054 
1179	 0.588491996341537 
1180	 0.588745934954126 
1181	 0.588954228435282 
1182	 0.589066599429083 
1183	 0.589232097461871 
1184	 0.589430124784439 
1185	 0.589582031389508 
1186	 0.58965567886294 
1187	 0.58982455612125 
1188	 0.59001376852016 
1189	 0.590194771395519 
1190	 0.590486930287525 
1191	 0.590815053514995 
1192	 0.591123804333618 
1193	 0.591385487715576 
1194	 0.59169143389784 
1195	 0.592022674090988 
1196	 0.592327275176282 
1197	 0.592678379766298 
1198	 0.59291130903254 
1199	 0.593060897473287 
1200	 0.593253073855893 
1201	 0.593295602906009 
1202	 0.593583734405307 
1203	 0.594041141309177 
1204	 0.59441356259869 
1205	 0.594956908198479 
1206	 0.595334427599629 
1207	 0.595545016665969 
1208	 0.595816337826827 
1209	 0.596030016776278 
1210	 0.596272922821838 
1211	 0.596671555587227 
1212	 0.597063103921906 
1213	 0.597371358302277 
1214	 0.597706945090482 
1215	 0.59799355247072 
1216	 0.598098640229612 
1217	 0.598448814807117 
1218	 0.59895161373594 
1219	 0.59934998035141 
1220	 0.599873798530973 
1221	 0.600231707740964 
1222	 0.60043950614442 
1223	 0.600707815569782 
1224	 0.6008676882596 
1225	 0.601162568937456 
1226	 0.601556643390386 
1227	 0.601924919322361 
1228	 0.602336111812062 
1229	 0.602801906082969 
1230	 0.603164299027772 
1231	 0.603450858727682 
1232	 0.603799385051057 
1233	 0.604159521615782 
1234	 0.60446312779282 
1235	 0.604731884912704 
1236	 0.605079560330172 
1237	 0.605423451207018 
1238	 0.605758291188774 
1239	 0.606142061051558 
1240	 0.606545015242873 
1241	 0.606938621701217 
1242	 0.607308359813714 
1243	 0.607754256842942 
1244	 0.60812928001434 
1245	 0.608373290043253 
1246	 0.608706404514834 
1247	 0.609104234147824 
1248	 0.609460396100171 
1249	 0.609850641211063 
1250	 0.610194192628454 
1251	 0.610490112824446 
1252	 0.61076142632274 
1253	 0.611068392993143 
1254	 0.611363885059218 
1255	 0.61169307183381 
1256	 0.612032583590083 
1257	 0.612432098854066 
1258	 0.612955224225299 
1259	 0.613287664969766 
1260	 0.613582218815597 
1261	 0.613867759580185 
1262	 0.613949524004949 
1263	 0.614202230566418 
1264	 0.61458903341209 
1265	 0.61491670251794 
1266	 0.61530950702971 
1267	 0.615598463586198 
1268	 0.615808417352614 
1269	 0.616023097861854 
1270	 0.616158840134603 
1271	 0.616314347560123 
1272	 0.616481974062723 
1273	 0.616649591430443 
1274	 0.616779500105904 
1275	 0.61688685375002 
1276	 0.616987479712702 
1277	 0.61703948936623 
1278	 0.617169005069823 
1279	 0.617365084830653 
1280	 0.617451520361037 
1281	 0.617494941724976 
1282	 0.617603832330104 
1283	 0.617662699339802 
1284	 0.617763542705031 
1285	 0.618026416311513 
1286	 0.618110621074012 
1287	 0.618020110580009 
1288	 0.618063435673116 
1289	 0.618092319594961 
1290	 0.618154495457199 
1291	 0.618353363135696 
1292	 0.618460917556164 
1293	 0.618498968721643 
1294	 0.618561661683194 
1295	 0.618631381123538 
1296	 0.618688948051632 
1297	 0.618650479536277 
1298	 0.618556883868284 
1299	 0.618518044698895 
1300	 0.61841905113266 
1301	 0.618347533061146 
1302	 0.618359657673224 
1303	 0.618283068166194 
1304	 0.618108305647298 
1305	 0.618007223754348 
1306	 0.61792899211605 
1307	 0.617845334503361 
1308	 0.617814782033201 
1309	 0.617694908891809 
1310	 0.617557982757487 
1311	 0.617360174855858 
1312	 0.61708396529107 
1313	 0.616792943326248 
1314	 0.616424499926623 
1315	 0.616098239432278 
1316	 0.615795929953445 
1317	 0.615442608472211 
1318	 0.615069678924119 
1319	 0.614703976696127 
1320	 0.614303977752683 
1321	 0.613888159107109 
1322	 0.61345969437148 
1323	 0.613058600205596 
1324	 0.61256635187264 
1325	 0.611960923946449 
1326	 0.611448240899727 
1327	 0.610962545976881 
1328	 0.610385624398761 
1329	 0.60984009899222 
1330	 0.60916581684395 
1331	 0.608289145109464 
1332	 0.607550041164583 
1333	 0.606896651647023 
1334	 0.606117742397134 
1335	 0.605224439740275 
1336	 0.604512284154596 
1337	 0.603711469611857 
1338	 0.60308159362497 
1339	 0.602780236532447 
1340	 0.602293350789169 
1341	 0.601601524255366 
1342	 0.60110917800556 
1343	 0.600781464592872 
1344	 0.600231778533915 
1345	 0.599594450486261 
1346	 0.598914289243919 
1347	 0.598115661063272 
1348	 0.597402723472444 
1349	 0.596902514514328 
1350	 0.597423498987632 
1351	 0.597159479709034 
1352	 0.596214661905723 
1353	 0.596268731700351 
1354	 0.597514756950338 
1355	 0.598108755272261 
1356	 0.601120237935333 
1357	 0.602587362020335 
1358	 0.597372891302874 
1359	 0.5954963960268 
1360	 0.596083980183578 
1361	 0.594107923974483 
1362	 0.598454226528397 
1363	 0.594724601042802 
1364	 0.580028159565117 
1365	 0.568708324083452 
1366	 0.55545674246807 
1367	 0.550598678395451 
1368	 0.550336501167689 
1369	 0.55503521349386 
1370	 0.571893343774859 
1371	 0.573271810105734 
1372	 0.57063323791885 
1373	 0.567565910436463 
1374	 0.556770599976378 
1375	 0.54946012428007 
1376	 0.548852301963407 
1377	 0.554375985901881 
1378	 0.557218800086715 
1379	 0.567036369018223 
1380	 0.564826428100183 
1381	 0.55582694227138 
1382	 0.550218639614236 
1383	 0.540827266377308 
1384	 0.53534613928776 
1385	 0.534534009301292 
1386	 0.529710961887091 
1387	 0.523931570711882 
1388	 0.518710621336412 
1389	 0.513323651198458 
1390	 0.508886310252782 
1391	 0.504440964632145 
1392	 0.500734338148022 
1393	 0.497760033227711 
1394	 0.494034152410487 
1395	 0.491334368184739 
1396	 0.487092894070424 
1397	 0.48044142055226 
1398	 0.476351926413032 
1399	 0.473110638824468 
1400	 0.469309359247997 
1401	 0.467777515770326 
1402	 0.464281991641785 
1403	 0.459979529907625 
1404	 0.454793719466565 
1405	 0.448425951150009 
1406	 0.443030984516433 
1407	 0.438817532922473 
1408	 0.43579141594751 
1409	 0.434183997991221 
1410	 0.432185917585834 
1411	 0.429454587482839 
1412	 0.425941813747235 
1413	 0.424121869382281 
1414	 0.422658788713012 
1415	 0.420973520746477 
1416	 0.419920499875734 
1417	 0.418611328434559 
1418	 0.416985232775995 
1419	 0.415486220665999 
1420	 0.414297915597767 
1421	 0.412903881819074 
1422	 0.411199981660682 
1423	 0.409780757906562 
1424	 0.408381345249726 
1425	 0.407283615286822 
1426	 0.406129811170507 
1427	 0.405293240075698 
1428	 0.404880031463857 
1429	 0.404239689647093 
1430	 0.403650037035854 
1431	 0.402931861330576 
1432	 0.401787790344495 
1433	 0.401159749347622 
1434	 0.400723822275515 
1435	 0.400395510544719 
1436	 0.400550515776251 
1437	 0.400430425421194 
1438	 0.400122817798226 
1439	 0.399932123696138 
1440	 0.399702359887901 
1441	 0.399590246848222 
1442	 0.399562943662513 
1443	 0.399596621874327 
1444	 0.399645006227079 
1445	 0.399696414356801 
1446	 0.3998531048069 
1447	 0.399975094615225 
1448	 0.400103341983332 
1449	 0.40023287252668 
1450	 0.400408938515309 
1451	 0.400619793074439 
1452	 0.40072129774744 
1453	 0.400789503123658 
1454	 0.400966322037986 
1455	 0.4011542729562 
1456	 0.401243250870991 
1457	 0.401344828339005 
1458	 0.401513827675381 
1459	 0.401532203225217 
1460	 0.401810058598591 
1461	 0.402339585144626 
1462	 0.402833677392342 
1463	 0.403387207266631 
1464	 0.404079656667109 
1465	 0.404924460291381 
1466	 0.405810245921981 
1467	 0.406859246783111 
1468	 0.407879180159577 
1469	 0.408856832913587 
1470	 0.409924839163329 
1471	 0.410992073998928 
1472	 0.412058085282547 
1473	 0.413133520298543 
1474	 0.414155400979352 
1475	 0.41502188166798 
1476	 0.41600463585445 
1477	 0.41686581967227 
1478	 0.41797653883014 
1479	 0.419269066246703 
1480	 0.4205660941175 
1481	 0.422054475442964 
1482	 0.423388857548951 
1483	 0.424536853939608 
1484	 0.425832740592418 
1485	 0.427202327696167 
1486	 0.428470961034886 
1487	 0.429699526267526 
1488	 0.430963799713188 
1489	 0.432299258310456 
1490	 0.433493005796745 
1491	 0.434800328132151 
1492	 0.436217693251444 
1493	 0.437426433153559 
1494	 0.438547786254124 
1495	 0.439732522124753 
1496	 0.440911394865856 
1497	 0.442125615604909 
1498	 0.443394259536455 
1499	 0.444656780918229 
1500	 0.445964564056408 
1501	 0.447252841866213 
1502	 0.448486296015998 
1503	 0.449918476669901 
1504	 0.451471065806194 
1505	 0.452920416222073 
1506	 0.454500717056427 
1507	 0.455904457761418 
1508	 0.457135675556462 
1509	 0.458444186410781 
1510	 0.459749513540982 
1511	 0.461046559459967 
1512	 0.462314804583762 
1513	 0.463632737555943 
1514	 0.464970441880406 
1515	 0.466327299070432 
1516	 0.467793946972379 
1517	 0.46912237142065 
1518	 0.470395706319474 
1519	 0.471695535835978 
1520	 0.472897709486425 
1521	 0.474198930429804 
1522	 0.475611797986059 
1523	 0.476936983502199 
1524	 0.478281761957102 
1525	 0.479564903435307 
1526	 0.480790277585059 
1527	 0.482010202753398 
1528	 0.483202855911141 
1529	 0.484387872709751 
1530	 0.485541499495725 
1531	 0.48671763873045 
1532	 0.487907180566561 
1533	 0.489073081532669 
1534	 0.490266124368998 
1535	 0.491409685630195 
1536	 0.492501231609444 
1537	 0.493602854061124 
1538	 0.494734852253511 
1539	 0.495765592613181 
1540	 0.496668514995156 
1541	 0.497693666832899 
1542	 0.498719850064052 
1543	 0.499748617441751 
1544	 0.500908276272371 
1545	 0.50198497532736 
1546	 0.502979842397667 
1547	 0.503986208512915 
1548	 0.504990337346853 
1549	 0.505979753320813 
1550	 0.506946379509892 
1551	 0.507917447173715 
1552	 0.508882486274759 
1553	 0.509857861729413 
1554	 0.510863401381615 
1555	 0.511825596109323 
1556	 0.512765110979995 
1557	 0.513700329039264 
1558	 0.514638070244005 
1559	 0.515517227775571 
1560	 0.516298484895382 
1561	 0.517176522124803 
1562	 0.518100863415498 
1563	 0.518978582755333 
1564	 0.519893177182346 
1565	 0.52083805804963 
1566	 0.521790467849694 
1567	 0.522631855484045 
1568	 0.52349901689705 
1569	 0.52438652779457 
1570	 0.52531864611398 
1571	 0.526220608558212 
1572	 0.52712832965068 
1573	 0.528122460241267 
1574	 0.529008869042354 
1575	 0.529786855964892 
1576	 0.530623837154993 
1577	 0.531481234293766 
1578	 0.532267408370362 
1579	 0.53302863300954 
1580	 0.533709033298032 
1581	 0.534271565385279 
1582	 0.535001369755759 
1583	 0.535717804962606 
1584	 0.536526522715293 
1585	 0.537471414802893 
1586	 0.538367308772897 
1587	 0.539297917938425 
1588	 0.540141496787688 
1589	 0.540944493790864 
1590	 0.541855514064937 
1591	 0.542769818771886 
1592	 0.543646882900295 
1593	 0.544639445197198 
1594	 0.545477843231535 
1595	 0.546181965301715 
1596	 0.546915130383954 
1597	 0.547597302136692 
1598	 0.548400969175774 
1599	 0.549251313514561 
1600	 0.55001636388782 
1601	 0.550818360502964 
1602	 0.551638960752093 
1603	 0.552387094019077 
1604	 0.553150981686206 
1605	 0.554037357752412 
1606	 0.554745043928291 
1607	 0.555264984857606 
1608	 0.555951654982923 
1609	 0.556667568375442 
1610	 0.557368100707129 
1611	 0.558117183371238 
1612	 0.558820852349697 
1613	 0.55949037486268 
1614	 0.560152366084831 
1615	 0.560813461743658 
1616	 0.561460343839481 
1617	 0.562099719338729 
1618	 0.56266522317026 
1619	 0.563182067953032 
1620	 0.563758686590503 
1621	 0.564278947650681 
1622	 0.564878093355391 
1623	 0.56559649566067 
1624	 0.566178448135256 
1625	 0.566693914052498 
1626	 0.567270803297338 
1627	 0.567849993273554 
1628	 0.568394942286877 
1629	 0.568957258929198 
1630	 0.569505872971201 
1631	 0.570004370711658 
1632	 0.570525760287287 
1633	 0.571133496547078 
1634	 0.571578428151999 
1635	 0.571887682679947 
1636	 0.572353647470972 
1637	 0.57281731416441 
1638	 0.573254630345015 
1639	 0.573779696424642 
1640	 0.574240284976059 
1641	 0.574628055343036 
1642	 0.574990819429613 
1643	 0.575351795747937 
1644	 0.575724829295379 
1645	 0.575988541224371 
1646	 0.576390385430436 
1647	 0.576928055533258 
1648	 0.577369119849177 
1649	 0.577817659019867 
1650	 0.578223591138384 
1651	 0.578579222260989 
1652	 0.578907350463894 
1653	 0.579247793969692 
1654	 0.579458909332784 
1655	 0.579641123606344 
1656	 0.579663424864878 
1657	 0.579479628221487 
1658	 0.579352933781259 
1659	 0.579419930262255 
1660	 0.579733647165013 
1661	 0.579860650711509 
1662	 0.580015303100794 
1663	 0.580183141155689 
1664	 0.580090223622516 
1665	 0.580059562822502 
1666	 0.580159937172345 
1667	 0.580234500793064 
1668	 0.580322399951666 
1669	 0.580464235738585 
1670	 0.58047350426563 
1671	 0.580326099886538 
1672	 0.580178423426802 
1673	 0.579948005707482 
1674	 0.579622495860484 
1675	 0.579339954434925 
1676	 0.57916184936945 
1677	 0.57917739153048 
1678	 0.579299051455379 
1679	 0.579329031998832 
1680	 0.579290740535207 
1681	 0.57922132727279 
1682	 0.579093146847109 
1683	 0.578893757553868 
1684	 0.578655173861805 
1685	 0.578372534019134 
1686	 0.578098761131973 
1687	 0.577996968075341 
1688	 0.578031143896076 
1689	 0.577985979469325 
1690	 0.577718847556174 
1691	 0.577443943451637 
1692	 0.576874763965113 
1693	 0.576572828953409 
1694	 0.576571787380668 
1695	 0.576342610528729 
1696	 0.576082148755073 
1697	 0.575823219620982 
1698	 0.575385606994587 
1699	 0.575033027890794 
1700	 0.574893329933501 
1701	 0.574569784921875 
1702	 0.574010825565112 
1703	 0.573662766512023 
1704	 0.573389915393071 
1705	 0.573013211455508 
1706	 0.572733919420792 
1707	 0.572395735996765 
1708	 0.571902802961496 
1709	 0.57149794385098 
1710	 0.571121214823447 
1711	 0.570781393360762 
1712	 0.570604186244122 
1713	 0.570127315384873 
1714	 0.569472628193915 
1715	 0.568913948630325 
1716	 0.568167671936393 
1717	 0.567595544203441 
1718	 0.567246767721245 
1719	 0.566771375008099 
1720	 0.566163595605319 
1721	 0.565701106775197 
1722	 0.565271420719161 
1723	 0.564953856734422 
1724	 0.56490849308308 
1725	 0.564558495372162 
1726	 0.563964051493365 
1727	 0.56373978210311 
1728	 0.563589210073823 
1729	 0.563342589866542 
1730	 0.563292825180146 
1731	 0.56311277987034 
1732	 0.5628823034467 
1733	 0.562513755878553 
1734	 0.562375394343634 
1735	 0.562379825034911 
1736	 0.562189060685381 
1737	 0.562049587986143 
1738	 0.561876743697023 
1739	 0.561449478910998 
1740	 0.560779335711296 
1741	 0.56015800274352 
1742	 0.559786204542112 
1743	 0.559132798339281 
1744	 0.55862802421281 
1745	 0.558460630425843 
1746	 0.557900547328977 
1747	 0.557413729128622 
1748	 0.557032726875383 
1749	 0.556460993464326 
1750	 0.555908053544506 
1751	 0.555360018967167 
1752	 0.554605416076385 
1753	 0.553803664382601 
1754	 0.553171968228324 
1755	 0.552439518001906 
1756	 0.551810489079505 
1757	 0.550859654152821 
1758	 0.550149194592572 
1759	 0.549574944511444 
1760	 0.549019190438877 
1761	 0.548788902016552 
1762	 0.548277381586709 
1763	 0.547549992498244 
1764	 0.546935606759577 
1765	 0.54609843203538 
1766	 0.545556952745265 
1767	 0.545343568776479 
1768	 0.544956985332858 
1769	 0.544646550194793 
1770	 0.544231814313992 
1771	 0.54372663486752 
1772	 0.543245967716059 
1773	 0.5425567500618 
1774	 0.542430650192494 
1775	 0.542259214219362 
1776	 0.542098381286167 
1777	 0.541967391648576 
1778	 0.541611820627321 
1779	 0.541360991825571 
1780	 0.541195001575908 
1781	 0.541248578553288 
1782	 0.541141361028851 
1783	 0.540649886709968 
1784	 0.54044434056731 
1785	 0.540464410208165 
1786	 0.540375750256967 
1787	 0.540371556294974 
1788	 0.540260096450926 
1789	 0.539759172793796 
1790	 0.539305790281873 
1791	 0.539105270008323 
1792	 0.538702205440136 
1793	 0.538806969785062 
1794	 0.539594694783727 
1795	 0.540122615037215 
1796	 0.540732760300925 
1797	 0.541127468209753 
1798	 0.541198335041435 
1799	 0.541719615380109 
1800	 0.542042741295873 
1801	 0.549549853283532 
1802	 0.548126862525135 
1803	 0.548013317768649 
1804	 0.549029449711066 
1805	 0.549908325999555 
1806	 0.551953990194238 
1807	 0.553508327365558 
1808	 0.55482469507915 
1809	 0.557009047642994 
1810	 0.558634118094849 
1811	 0.560385704265321 
1812	 0.561185790684542 
1813	 0.560494643873468 
1814	 0.560806485360881 
1815	 0.559806480856024 
1816	 0.560299588140846 
1817	 0.564296297527836 
1818	 0.56626129237385 
1819	 0.56756868973217 
1820	 0.568384585346892 
1821	 0.568306769428506 
1822	 0.565460388111428 
1823	 0.563459395964638 
1824	 0.559564429118687 
1825	 0.557842479980246 
1826	 0.557351686790012 
1827	 0.555989877322291 
1828	 0.555156634105625 
1829	 0.556542768165077 
1830	 0.560885774729656 
1831	 0.565861616048736 
1832	 0.578822283334672 
1833	 0.627251581479532 
1834	 0.64968701212049 
1835	 0.636386941107903 
1836	 0.643192515076792 
1837	 0.600443503602599 
1838	 0.579110252153611 
1839	 0.576383622308076 
1840	 0.665366970520449 
1841	 0.62890383830857 
1842	 0.526066880501937 
1843	 0.496884436533717 
1844	 0.439110675378915 
1845	 0.414151305319576 
1846	 0.436441676544089 
1847	 0.454416773866223 
1848	 0.476865476716595 
1849	 0.491512250517703 
1850	 0.524357604544351 
1851	 0.611409979615325 
1852	 0.626994606689246 
1853	 0.590816160868215 
1854	 0.593354041390895 
1855	 0.592560922148076 
1856	 0.581475808002312 
1857	 0.599824175891198 
1858	 0.58182012966304 
1859	 0.564354200155502 
1860	 0.514679341153603 
1861	 0.507880960618649 
1862	 0.514386377622764 
1863	 0.521209936294463 
1864	 0.55898336927428 
1865	 0.569272203887992 
1866	 0.568206573476052 
1867	 0.567400281878728 
1868	 0.516420546741922 
1869	 0.457636382797075 
1870	 0.459276930474155 
1871	 0.503741950970809 
1872	 0.500818745042779 
1873	 0.557356277413683 
1874	 0.541217142213411 
1875	 0.447385620471504 
1876	 0.422815841628209 
1877	 0.421014410271514 
1878	 0.416726651711597 
1879	 0.411601552869029 
1880	 0.416053969734716 
1881	 0.415783451159223 
1882	 0.411254543600046 
1883	 0.408177453988408 
1884	 0.410302909000416 
1885	 0.405959020322597 
1886	 0.39075543672008 
1887	 0.389252967311234 
1888	 0.395607830018995 
1889	 0.402244124905169 
1890	 0.403341282284511 
1891	 0.412710287410662 
1892	 0.409384499499225 
1893	 0.387308005986495 
1894	 0.377483946854722 
1895	 0.365088702368053 
1896	 0.361766899114171 
1897	 0.372966703241831 
1898	 0.374906608025641 
1899	 0.381028837136132 
1900	 0.38450231307371 
1901	 0.394356273782202 
1902	 0.410172896406618 
1903	 0.415027919563105 
1904	 0.430329707233352 
1905	 0.424225783895461 
1906	 0.38644894255208 
1907	 0.354948058179466 
1908	 0.346867497803705 
1909	 0.323361203051964 
1910	 0.319510353377628 
1911	 0.315876739107674 
1912	 0.31123402236664 
1913	 0.307582505450823 
1914	 0.306239960992039 
1915	 0.306666431456559 
1916	 0.303500799226152 
1917	 0.297176752249524 
1918	 0.298504508376433 
1919	 0.297820279007617 
1920	 0.29415045647101 
1921	 0.293613517008643 
1922	 0.287366339677418 
1923	 0.28536116077734 
1924	 0.284642057943351 
1925	 0.284209113757433 
1926	 0.283859396735788 
1927	 0.285969041727992 
1928	 0.290316826846001 
1929	 0.289571815439054 
1930	 0.293393110390854 
1931	 0.29558135629885 
1932	 0.294765808601848 
1933	 0.29700817138115 
1934	 0.297222874586612 
1935	 0.295461710896171 
1936	 0.295832487563285 
1937	 0.298365085187213 
1938	 0.29753189233081 
1939	 0.294276919117556 
1940	 0.295196046294522 
1941	 0.296381623919515 
1942	 0.294831275246056 
1943	 0.297951336397156 
1944	 0.300514977198354 
1945	 0.301081546249616 
1946	 0.30368589885417 
1947	 0.304834324071943 
1948	 0.305467937673795 
1949	 0.306033165661223 
1950	 0.30667261489535 
1951	 0.305570835550183 
1952	 0.304925891815903 
1953	 0.305003990581888 
1954	 0.306495043489986 
1955	 0.307926139664104 
1956	 0.310013535255054 
1957	 0.312280883047457 
1958	 0.313597267004903 
1959	 0.314239054068483 
1960	 0.315057308707278 
1961	 0.315547442482059 
1962	 0.315667663466499 
1963	 0.316623175493992 
1964	 0.317603083161587 
1965	 0.318944558515876 
1966	 0.320480650269691 
1967	 0.321574205915441 
1968	 0.322566112989103 
1969	 0.323699625000176 
1970	 0.324986288982917 
1971	 0.32595565764944 
1972	 0.326794433851402 
1973	 0.327960672021498 
1974	 0.328898475826382 
1975	 0.32957573994612 
1976	 0.331044525939205 
1977	 0.3321539488683 
1978	 0.33278244319558 
1979	 0.334088824371031 
1980	 0.335231188428127 
1981	 0.336048550388819 
1982	 0.33701206314431 
1983	 0.338238267924731 
1984	 0.339006707580612 
1985	 0.339893066672537 
1986	 0.341279175920641 
1987	 0.342254456599071 
1988	 0.343470292304017 
1989	 0.34485493510175 
1990	 0.345517827845897 
1991	 0.346247743262315 
1992	 0.347156481460135 
1993	 0.347719902507065 
1994	 0.348296570264879 
1995	 0.349097824225337 
1996	 0.350213797264451 
1997	 0.351361514700806 
1998	 0.352649495095951 
1999	 0.354731734218735 
2000	 0.356295644682435 
2001	 0.357900393571696 
2002	 0.359604720755028 
2003	 0.359375020230236 
2004	 0.360471002749443 
2005	 0.36231287454688 
2006	 0.363942426240246 
2007	 0.365495164433547 
2008	 0.368342795679677 
2009	 0.36928188746831 
2010	 0.369230152935821 
2011	 0.369026852639971 
2012	 0.368578113992015 
2013	 0.369932120121403 
2014	 0.370941839338193 
2015	 0.371140245782903 
2016	 0.372601874091057 
2017	 0.373058872356143 
2018	 0.373012719326212 
2019	 0.373754425347816 
2020	 0.375367834525394 
2021	 0.375731846698273 
2022	 0.375775644864429 
2023	 0.376279404777754 
2024	 0.376287229323073 
2025	 0.37626249070281 
2026	 0.376707998854871 
2027	 0.377628338892289 
2028	 0.377794751419899 
2029	 0.377857579872003 
2030	 0.378400051225353 
2031	 0.378318726276024 
2032	 0.378396890371471 
2033	 0.378683058835852 
2034	 0.379186900380866 
2035	 0.379246521025077 
2036	 0.379105549385299 
2037	 0.37895967912561 
2038	 0.379182741150013 
2039	 0.379555427382208 
2040	 0.380102400112619 
2041	 0.380767728075055 
2042	 0.380979899303021 
2043	 0.380777288979156 
2044	 0.380597933990607 
2045	 0.380362401232472 
2046	 0.379959842451551 
2047	 0.379916199821139 
2048	 0.380163514043247 
2049	 0.380233059611624 
2050	 0.380839838748737 
2051	 0.38123867734582 
2052	 0.3812287700079 
2053	 0.381636340973887 
2054	 0.382066042457721 
2055	 0.38239518798382 
2056	 0.382669582819495 
2057	 0.382699513100522 
2058	 0.382829439982334 
2059	 0.382926795178266 
2060	 0.382983587004497 
2061	 0.383288149204717 
2062	 0.383528857581109 
2063	 0.383217967456493 
2064	 0.38328505229966 
2065	 0.383323652075895 
2066	 0.383589634482574 
2067	 0.384464147613087 
2068	 0.385062102824678 
2069	 0.385125558334391 
2070	 0.384892519012949 
2071	 0.384730740851957 
2072	 0.384684195684288 
2073	 0.384544518922887 
2074	 0.38475517223272 
2075	 0.385416791198141 
2076	 0.386104952007419 
2077	 0.386820282065295 
2078	 0.38786232723442 
2079	 0.388717471697388 
2080	 0.388840043841962 
2081	 0.38870595899496 
2082	 0.388688032402114 
2083	 0.3886496311967 
2084	 0.38919221095242 
2085	 0.390216599281445 
2086	 0.391066438243363 
2087	 0.391867604794607 
2088	 0.392762532924321 
2089	 0.393413154150915 
2090	 0.393866795940554 
2091	 0.394218512550051 
2092	 0.39437467368578 
2093	 0.394752966423593 
2094	 0.395326372419365 
2095	 0.395891458438132 
2096	 0.396599106958626 
2097	 0.397304703116342 
2098	 0.398086166865184 
2099	 0.398917375575255 
2100	 0.399529723437146 
2101	 0.400308140852902 
2102	 0.400869906259762 
2103	 0.401076452054442 
2104	 0.401215933684672 
2105	 0.402113110613619 
2106	 0.402795911729148 
2107	 0.403595554409532 
2108	 0.404997413186391 
2109	 0.405708696301816 
2110	 0.40605012339027 
2111	 0.406891591105217 
2112	 0.407560560569818 
2113	 0.408037742132032 
2114	 0.408782662529185 
2115	 0.409298795526845 
2116	 0.409914622067441 
2117	 0.410725711935315 
2118	 0.412169102850129 
2119	 0.412977143233542 
2120	 0.413632354030871 
2121	 0.414062344401683 
2122	 0.414188457773002 
2123	 0.414528949582095 
2124	 0.415603279869703 
2125	 0.41660871838128 
2126	 0.417831998404853 
2127	 0.418888843209943 
2128	 0.419544888319417 
2129	 0.420337059079723 
2130	 0.42082123157692 
2131	 0.42123051743566 
2132	 0.421915532392739 
2133	 0.422772543198807 
2134	 0.423539923935649 
2135	 0.424360085708617 
2136	 0.425421006818622 
2137	 0.426106627270013 
2138	 0.426248078650699 
2139	 0.426580450681354 
2140	 0.427219156482556 
2141	 0.42819438020792 
2142	 0.428837066476964 
2143	 0.429167487871356 
2144	 0.42948998481513 
2145	 0.429831896629564 
2146	 0.430364653447603 
2147	 0.430752108660024 
2148	 0.431442009797127 
2149	 0.431879942387491 
2150	 0.432056950467442 
2151	 0.432594723236184 
2152	 0.433701296395385 
2153	 0.434246778802416 
2154	 0.434664120147621 
2155	 0.434991351486631 
2156	 0.43518320985847 
2157	 0.435180447581785 
2158	 0.435246457310809 
2159	 0.435576378391965 
2160	 0.43533489377924 
2161	 0.435121057141921 
2162	 0.43503709225195 
2163	 0.434936092008974 
2164	 0.435235241577058 
2165	 0.435754083963313 
2166	 0.436362186058009 
2167	 0.437054827487821 
2168	 0.437720595067075 
2169	 0.438710421877232 
2170	 0.439437005954669 
2171	 0.440091801986089 
2172	 0.440221996315608 
2173	 0.440637915375309 
2174	 0.440782701881221 
2175	 0.440662030816189 
2176	 0.440832649407561 
2177	 0.441027479597239 
2178	 0.441156294308187 
2179	 0.441527191384049 
2180	 0.442000580453854 
2181	 0.442416604778508 
2182	 0.442449464084721 
2183	 0.442084485664456 
2184	 0.442562993184481 
2185	 0.443227911983247 
2186	 0.443600384011364 
2187	 0.443841714455376 
2188	 0.444015453978609 
2189	 0.4439005638324 
2190	 0.443183763706643 
2191	 0.44345600943575 
2192	 0.443832219719173 
2193	 0.443893887053828 
2194	 0.444286802026721 
2195	 0.444387712348448 
2196	 0.444474708407979 
2197	 0.444876368165525 
2198	 0.445361255094438 
2199	 0.445488108346041 
2200	 0.445578443341162 
2201	 0.446127382399395 
2202	 0.446305785329996 
2203	 0.446718217098481 
2204	 0.447160128326616 
2205	 0.447235154532569 
2206	 0.447305518952157 
2207	 0.447644534588549 
2208	 0.447883709931257 
2209	 0.44803434118197 
2210	 0.44796747479775 
2211	 0.448038773885731 
2212	 0.447557833306411 
2213	 0.446542242250751 
2214	 0.445909683038863 
2215	 0.446030277838539 
2216	 0.446401732613289 
2217	 0.446926898497007 
2218	 0.447925692730499 
2219	 0.448465858788862 
2220	 0.448609740716358 
2221	 0.448724761015988 
2222	 0.448436598446804 
2223	 0.447798524321244 
2224	 0.447634662868059 
2225	 0.447581754690505 
2226	 0.447388472741013 
2227	 0.446749064774417 
2228	 0.445711865588104 
2229	 0.444775591298958 
2230	 0.443585084482316 
2231	 0.442905031112832 
2232	 0.442903415957062 
2233	 0.442392030446789 
2234	 0.441846664143053 
2235	 0.441524059823288 
2236	 0.44044995218106 
2237	 0.43984303757447 
2238	 0.439068381420008 
2239	 0.437907039458189 
2240	 0.437069260098394 
2241	 0.435818233068183 
2242	 0.434280795153911 
2243	 0.433370476828327 
2244	 0.432186908763178 
2245	 0.430967335372606 
2246	 0.429829915096307 
2247	 0.428225821151354 
2248	 0.427050121434492 
2249	 0.425919640780504 
2250	 0.424898269845017 
2251	 0.424217866476442 
2252	 0.423176215457789 
2253	 0.421258842625736 
2254	 0.419184015967599 
2255	 0.417419969673347 
2256	 0.415889570497508 
2257	 0.414488971452425 
2258	 0.413507466497135 
2259	 0.412703541177761 
2260	 0.412013075237502 
2261	 0.410864898560677 
2262	 0.410131966811593 
2263	 0.409613265122184 
2264	 0.4082127227433 
2265	 0.407134841939392 
2266	 0.406442878187087 
2267	 0.405386956335929 
2268	 0.405248849479569 
2269	 0.405597466137144 
2270	 0.40548699528003 
2271	 0.405442232983679 
2272	 0.404629834580495 
2273	 0.403330653361167 
2274	 0.402067124699771 
2275	 0.400781653520641 
2276	 0.400443839637079 
2277	 0.400620797671719 
2278	 0.400030343724149 
2279	 0.399510425163959 
2280	 0.399163329860279 
2281	 0.398500684717745 
2282	 0.398502922523545 
2283	 0.398438172418143 
2284	 0.397670578387218 
2285	 0.396952270132782 
2286	 0.396272673641618 
2287	 0.395318005127814 
2288	 0.39462882168287 
2289	 0.394714847201666 
2290	 0.394894870315884 
2291	 0.394848618777437 
2292	 0.394267086175733 
2293	 0.392939412818109 
2294	 0.391397074538297 
2295	 0.38936631681879 
2296	 0.388377626042777 
2297	 0.38855056483508 
2298	 0.388092918641014 
2299	 0.388046539178313 
2300	 0.387636975421254 
2301	 0.386818721728541 
2302	 0.385973343250855 
2303	 0.383411052157854 
2304	 0.381510663412247 
2305	 0.379762345202653 
2306	 0.376729741804695 
2307	 0.375534731912917 
2308	 0.37581835658373 
2309	 0.376365087813106 
2310	 0.377252050579029 
2311	 0.37808914581948 
2312	 0.377295571128897 
2313	 0.37583988074361 
2314	 0.375073795084818 
2315	 0.373545727004584 
2316	 0.373262189678535 
2317	 0.373677664402488 
2318	 0.373650579071468 
2319	 0.373380438101995 
2320	 0.372429956264987 
2321	 0.372300353588262 
2322	 0.372412393473112 
2323	 0.372082505973358 
2324	 0.372269987505213 
2325	 0.372143047903304 
2326	 0.370950817632381 
2327	 0.369832510024237 
2328	 0.370624678858916 
2329	 0.371599338491051 
2330	 0.371979863875646 
2331	 0.37193414432129 
2332	 0.370809696384102 
2333	 0.370666323459817 
2334	 0.369833686981697 
2335	 0.367385510873783 
2336	 0.365474960992398 
2337	 0.36286533166598 
2338	 0.360889530075492 
2339	 0.361498884572241 
2340	 0.362321098832296 
2341	 0.363968043665882 
2342	 0.365347381450786 
2343	 0.365358065430165 
2344	 0.365380880464916 
2345	 0.363371921087487 
2346	 0.362138658724661 
2347	 0.361574071217551 
2348	 0.360570836134006 
2349	 0.361018856857324 
2350	 0.361763188366638 
2351	 0.36230298141149 
2352	 0.361239324732414 
2353	 0.36080646406642 
2354	 0.359486372993066 
2355	 0.356752221602703 
2356	 0.356575032291146 
2357	 0.355737699756679 
2358	 0.355473523854181 
2359	 0.357400033027293 
2360	 0.357945695070198 
2361	 0.359524246759469 
2362	 0.360196869849727 
2363	 0.356940392267009 
2364	 0.356164068620068 
2365	 0.356711284893742 
2366	 0.356311607232613 
2367	 0.358460662619481 
2368	 0.35858047215332 
2369	 0.355387153313743 
2370	 0.354113296121497 
2371	 0.354488924077192 
2372	 0.35481017370339 
2373	 0.358444081397163 
2374	 0.358020526781036 
2375	 0.354662952769899 
2376	 0.352887315358587 
2377	 0.349566965933197 
2378	 0.348290693530694 
2379	 0.348956420235541 
2380	 0.347345185929436 
2381	 0.345443419877806 
2382	 0.343546217925488 
2383	 0.33985007388982 
2384	 0.340107325153072 
2385	 0.342555922601182 
2386	 0.344709041083446 
2387	 0.348948473048094 
2388	 0.350864525648075 
2389	 0.353191185658724 
2390	 0.352274801070198 
2391	 0.348407892479381 
2392	 0.347118282652894 
2393	 0.343766418496323 
2394	 0.342355348463349 
2395	 0.343843859077469 
2396	 0.343692219107897 
2397	 0.342618770484981 
2398	 0.342794200480082 
2399	 0.344690411475834 
2400	 0.344532832390509 
2401	 0.343543843022696 
2402	 0.343659894522083 
2403	 0.341205446818605 
2404	 0.3369550169919 
2405	 0.332870469665055 
2406	 0.328536102811212 
2407	 0.327182659327805 
2408	 0.325908175804974 
2409	 0.326763058195512 
2410	 0.328339418439435 
2411	 0.329919428736481 
2412	 0.33314309448089 
2413	 0.335964193125434 
2414	 0.33768857828691 
2415	 0.331936727954368 
2416	 0.324065560634183 
2417	 0.319930903506699 
2418	 0.318581427340388 
2419	 0.323016391196658 
2420	 0.327131632149403 
2421	 0.329036530332627 
2422	 0.329114921243345 
2423	 0.324580884102331 
2424	 0.320723366150998 
2425	 0.319466100970314 
2426	 0.316773112154981 
2427	 0.313505745763588 
2428	 0.312530003773262 
2429	 0.313748621470256 
2430	 0.313261584270999 
2431	 0.310533462716498 
2432	 0.311096626549343 
2433	 0.299902392718672 
2434	 0.297920994252882 
2435	 0.304231898623713 
2436	 0.304677459061257 
2437	 0.30968660335552 
2438	 0.30828318004685 
2439	 0.298694422889224 
2440	 0.295205714630197 
2441	 0.291855707922032 
2442	 0.288575214768184 
2443	 0.285759597592054 
2444	 0.283986988090989 
2445	 0.28337136421536 
2446	 0.281804482867762 
2447	 0.282521583258423 
2448	 0.282752642100132 
2449	 0.282231228704587 
2450	 0.279812695747627 
2451	 0.275556645761208 
2452	 0.274182827286448 
2453	 0.273756358413624 
2454	 0.269523449121443 
2455	 0.264093155776949 
2456	 0.263475536756549 
2457	 0.260114322125537 
2458	 0.260420877207311 
2459	 0.270388660261673 
2460	 0.274350873440549 
2461	 0.274911395045738 
2462	 0.275903673196042 
2463	 0.274726965229087 
2464	 0.277001786921141 
2465	 0.280797103759078 
2466	 0.282556074547402 
2467	 0.288155342301077 
2468	 0.286667173730992 
2469	 0.278460880161505 
2470	 0.276844919820975 
2471	 0.274057110253501 
2472	 0.272456260654875 
2473	 0.273789382172643 
2474	 0.27027995927596 
2475	 0.266541885994856 
2476	 0.260842919988549 
2477	 0.247969385334505 
2478	 0.243860630599375 
2479	 0.239288779306196 
2480	 0.245350747798509 
2481	 0.274421949565027 
2482	 0.28744915850467 
2483	 0.294241279508865 
2484	 0.29907231038678 
2485	 0.293159050273396 
2486	 0.253998224027318 
2487	 0.275696142318221 
2488	 0.32524429543802 
2489	 0.339960597038801 
2490	 0.376441731498621 
2491	 0.408749219264255 
2492	 0.365205039493593 
2493	 0.357272113458241 
2494	 0.37770591985146 
2495	 0.353370319152824 
2496	 0.38657350332092 
2497	 0.371305284917048 
2498	 0.270956172541552 
2499	 0.244000646463506 
2500	 0.249134538332149 
