Wavelength	ref00014.asd
350	 1.60663458636413E-02 
351	 1.66739130580627E-02 
352	 1.62906866455638E-02 
353	 1.64753213422943E-02 
354	 1.63237463901144E-02 
355	 1.63359190586393E-02 
356	 1.68020316432164E-02 
357	 1.71363751624074E-02 
358	 1.73853139641964E-02 
359	 1.74082907535786E-02 
360	 1.72563783391865E-02 
361	 1.79493429903743E-02 
362	 0.018220981700875 
363	 1.80373562666928E-02 
364	 1.81761788752992E-02 
365	 1.83390824998938E-02 
366	 1.84394456991183E-02 
367	 1.84958106192276E-02 
368	 0.018639432909165 
369	 1.87914952425676E-02 
370	 1.88763412196944E-02 
371	 1.88938698401967E-02 
372	 0.019071777591075 
373	 1.91680624987673E-02 
374	 1.93194648821413E-02 
375	 1.97674504644278E-02 
376	 2.00117381330988E-02 
377	 2.00125176713044E-02 
378	 2.00743947608699E-02 
379	 2.08112885336121E-02 
380	 0.020854529388647 
381	 2.08860253425385E-02 
382	 0.021466241825114 
383	 2.15808192032771E-02 
384	 2.17067841391387E-02 
385	 2.18754628989508E-02 
386	 2.19968222174953E-02 
387	 2.24644204914993E-02 
388	 2.30471387289451E-02 
389	 2.34781183214593E-02 
390	 2.35405465897603E-02 
391	 2.36010835078398E-02 
392	 2.38274103765083E-02 
393	 2.42037746214151E-02 
394	 2.44187093542915E-02 
395	 2.46457568546812E-02 
396	 2.48414823206335E-02 
397	 2.49454343906184E-02 
398	 2.51699091281866E-02 
399	 2.54861172511451E-02 
400	 2.57386789076297E-02 
401	 0.025729283740708 
402	 2.59914296054339E-02 
403	 2.61492860886276E-02 
404	 2.60878023834294E-02 
405	 2.65134921098006E-02 
406	 2.68599268857422E-02 
407	 2.69647786297149E-02 
408	 2.68654640342323E-02 
409	 2.68425482663714E-02 
410	 0.026877540385932 
411	 2.70128504550083E-02 
412	 2.73148706921398E-02 
413	 0.027175055809564 
414	 2.71165037743871E-02 
415	 2.74342314160122E-02 
416	 2.75961894515637E-02 
417	 2.75811556197416E-02 
418	 2.75306712896224E-02 
419	 2.75998244748229E-02 
420	 2.75968271092591E-02 
421	 2.77113205953147E-02 
422	 2.78531775314343E-02 
423	 2.77107967341911E-02 
424	 2.76956191707408E-02 
425	 2.77603497621673E-02 
426	 2.78092533761611E-02 
427	 2.78127625245089E-02 
428	 0.027895468250817 
429	 2.79451178889013E-02 
430	 2.78305179245923E-02 
431	 2.77731349029645E-02 
432	 0.027759624954936 
433	 2.77399953469786E-02 
434	 2.76568207186953E-02 
435	 2.76720850288304E-02 
436	 2.77564693533948E-02 
437	 0.027808542970407 
438	 2.76256063418884E-02 
439	 2.75102221027352E-02 
440	 0.027481389079101 
441	 2.74539735971607E-02 
442	 2.74019155994783E-02 
443	 2.72802151520013E-02 
444	 2.71323093161011E-02 
445	 2.70746748608096E-02 
446	 2.70137260587612E-02 
447	 2.68896382314251E-02 
448	 2.66919258037663E-02 
449	 0.026489461807246 
450	 2.64230352536875E-02 
451	 2.63891931017869E-02 
452	 2.62215290695413E-02 
453	 2.61270460611658E-02 
454	 2.59724680426918E-02 
455	 2.57227530840395E-02 
456	 2.54858291740806E-02 
457	 2.52720549463393E-02 
458	 0.025092359354554 
459	 2.49285783045075E-02 
460	 2.46845363109948E-02 
461	 2.44901430115261E-02 
462	 0.024292039376676 
463	 2.39730066665347E-02 
464	 0.023791908442153 
465	 2.36360889585505E-02 
466	 2.34184918494073E-02 
467	 2.31510139399058E-02 
468	 2.28965911473736E-02 
469	 2.26780196222316E-02 
470	 2.24933914105082E-02 
471	 2.23071776923473E-02 
472	 2.21437489368596E-02 
473	 2.19509250570942E-02 
474	 2.16456144110832E-02 
475	 2.14321259267458E-02 
476	 2.12396204112406E-02 
477	 2.10248776615091E-02 
478	 2.08695408020306E-02 
479	 2.07988828789943E-02 
480	 2.06846710377525E-02 
481	 2.04125551005737E-02 
482	 2.02158908005678E-02 
483	 2.00933108696083E-02 
484	 2.00188242342745E-02 
485	 1.99486340810515E-02 
486	 1.98175326584326E-02 
487	 1.96809117085934E-02 
488	 1.95775116894763E-02 
489	 1.94287069525413E-02 
490	 1.92929505915621E-02 
491	 1.92283083973693E-02 
492	 1.92577430129956E-02 
493	 1.91983601194128E-02 
494	 1.91337434421097E-02 
495	 1.91375259814656E-02 
496	 1.92403282714213E-02 
497	 1.92301249828834E-02 
498	 1.91978273900383E-02 
499	 1.92492088702886E-02 
500	 1.92668236194583E-02 
501	 1.93017022827011E-02 
502	 1.94071472384552E-02 
503	 1.96116315479652E-02 
504	 1.97220683441635E-02 
505	 1.98077208243111E-02 
506	 1.99384336669902E-02 
507	 2.01303018674443E-02 
508	 2.03233468585575E-02 
509	 0.020524117139771 
510	 2.07472734000163E-02 
511	 0.02091879503505 
512	 2.12876599023926E-02 
513	 2.17821295157476E-02 
514	 2.20713132612071E-02 
515	 0.02244477477324 
516	 2.28795737554467E-02 
517	 0.023333109816085 
518	 2.38703594859451E-02 
519	 0.024312036201657 
520	 2.47250682839301E-02 
521	 2.52421320651087E-02 
522	 2.57316214885016E-02 
523	 2.62014927218048E-02 
524	 2.66642745855433E-02 
525	 0.027122567898561 
526	 2.77011818440029E-02 
527	 2.83037871398059E-02 
528	 2.88328242204305E-02 
529	 2.93587854977405E-02 
530	 2.98078985274443E-02 
531	 0.030229358096254 
532	 3.07275123582609E-02 
533	 3.11999759102375E-02 
534	 3.17277733758796E-02 
535	 3.22827888358379E-02 
536	 3.26228586436935E-02 
537	 3.30785877634394E-02 
538	 3.35796447990447E-02 
539	 3.40052181343959E-02 
540	 3.46095359793905E-02 
541	 3.52368489474901E-02 
542	 3.57921932302198E-02 
543	 3.62641838290747E-02 
544	 3.68960895584996E-02 
545	 3.75219865848542E-02 
546	 3.80546377498434E-02 
547	 3.87448972908997E-02 
548	 3.94791238063107E-02 
549	 4.02070369075616E-02 
550	 4.09140503275247E-02 
551	 4.16571048016004E-02 
552	 4.24781387939257E-02 
553	 0.043325967538646 
554	 4.40421891506503E-02 
555	 4.48370220320937E-02 
556	 4.57025261049166E-02 
557	 4.65859918867293E-02 
558	 4.74717208726379E-02 
559	 4.83826208895742E-02 
560	 4.92727086992017E-02 
561	 5.00847689650887E-02 
562	 5.10360446653446E-02 
563	 5.20200141958391E-02 
564	 5.29881556319209E-02 
565	 5.40695221533511E-02 
566	 5.50613019742405E-02 
567	 5.60618800980287E-02 
568	 5.71941707868349E-02 
569	 5.81859244247869E-02 
570	 0.059154398106332 
571	 0.060143199233047 
572	 6.11136840462315E-02 
573	 6.20232372446526E-02 
574	 6.29986657545174E-02 
575	 6.41005810391116E-02 
576	 6.51217247417944E-02 
577	 6.61402381995043E-02 
578	 6.72047816699651E-02 
579	 6.83267890475776E-02 
580	 6.93283429477616E-02 
581	 0.070217270453166 
582	 7.10443968028433E-02 
583	 7.18904677887436E-02 
584	 7.26405280818549E-02 
585	 7.34537555399311E-02 
586	 7.44404133155307E-02 
587	 7.52760407191922E-02 
588	 7.61194447999912E-02 
589	 0.077015561731863 
590	 7.79033707578631E-02 
591	 7.87985695962653E-02 
592	 7.96332633954611E-02 
593	 8.04202005205881E-02 
594	 8.12824741148691E-02 
595	 8.21442841623863E-02 
596	 8.28904736486878E-02 
597	 8.34482264298772E-02 
598	 8.39756991586409E-02 
599	 8.45602654498293E-02 
600	 8.51939445424417E-02 
601	 8.57759468744331E-02 
602	 8.62622840329804E-02 
603	 8.66955536912733E-02 
604	 8.70996435391259E-02 
605	 8.73839817926294E-02 
606	 8.76815712733688E-02 
607	 8.79905010927302E-02 
608	 8.82513037048191E-02 
609	 0.088533632735074 
610	 8.88364699006286E-02 
611	 8.91127973079401E-02 
612	 8.92662175685478E-02 
613	 8.93880898388789E-02 
614	 8.95323996890125E-02 
615	 8.97066995824271E-02 
616	 8.97939535306626E-02 
617	 8.98615423928956E-02 
618	 8.99228785957782E-02 
619	 8.99585726229283E-02 
620	 9.00323862632557E-02 
621	 9.01210012835021E-02 
622	 9.01960908934051E-02 
623	 9.02386615182346E-02 
624	 9.03235430643558E-02 
625	 9.04459983118469E-02 
626	 9.05742731287335E-02 
627	 9.07171554273219E-02 
628	 9.08551120772196E-02 
629	 0.090970856676782 
630	 9.10514816006006E-02 
631	 9.11400726074451E-02 
632	 9.11881861074242E-02 
633	 9.11745809414301E-02 
634	 9.12014572413333E-02 
635	 9.11338780991949E-02 
636	 9.09878408956227E-02 
637	 9.08431897143815E-02 
638	 9.06820014275703E-02 
639	 9.05107486005119E-02 
640	 9.03161500384065E-02 
641	 9.00645707648488E-02 
642	 8.97581333404549E-02 
643	 8.94397019542098E-02 
644	 8.91383222751559E-02 
645	 8.88044553194078E-02 
646	 8.85526388634763E-02 
647	 8.83237771020859E-02 
648	 8.79843166234201E-02 
649	 8.78060975631003E-02 
650	 8.76619059016863E-02 
651	 8.74790233450897E-02 
652	 8.73437375383148E-02 
653	 8.72128957691539E-02 
654	 8.70128184988188E-02 
655	 8.67443862795828E-02 
656	 8.68330854493713E-02 
657	 8.67742022023214E-02 
658	 8.64758953630999E-02 
659	 8.61851105169682E-02 
660	 8.58224633378169E-02 
661	 8.54265787479173E-02 
662	 8.50420901175542E-02 
663	 8.46735780520346E-02 
664	 8.43651902991584E-02 
665	 8.40356569824372E-02 
666	 8.36131746973904E-02 
667	 8.33216542738688E-02 
668	 8.29943981959549E-02 
669	 8.26356044891673E-02 
670	 0.082402665726717 
671	 8.21198536504043E-02 
672	 0.081930013618782 
673	 8.19020605541577E-02 
674	 8.17993878861848E-02 
675	 8.17145897006425E-02 
676	 8.16668143445252E-02 
677	 8.16538000046994E-02 
678	 8.16749306969875E-02 
679	 8.17916865823228E-02 
680	 8.20101289156111E-02 
681	 8.22767778331726E-02 
682	 0.082613795146133 
683	 8.31706833421264E-02 
684	 8.39780309588005E-02 
685	 8.46788207304595E-02 
686	 8.56092027477165E-02 
687	 0.086903877945422 
688	 8.84112971881773E-02 
689	 8.97034037492618E-02 
690	 9.09986196443497E-02 
691	 9.24620626922756E-02 
692	 9.40185628918717E-02 
693	 0.095628711269865 
694	 0.097464495397318 
695	 9.95693450986991E-02 
696	 0.10156565293518 
697	 0.103652488220032 
698	 0.105826849915154 
699	 0.108018875606574 
700	 0.110471540427511 
701	 0.112953138262957 
702	 0.115387600303625 
703	 0.117918561716415 
704	 0.120300577186977 
705	 0.122642309392752 
706	 0.125061954925432 
707	 0.127417263185762 
708	 0.129779463379866 
709	 0.132175220528372 
710	 0.134574997386395 
711	 0.136850446691288 
712	 0.139262595094853 
713	 0.14176645952211 
714	 0.143948597082 
715	 0.146208961421522 
716	 0.1485200682551 
717	 0.150875042861635 
718	 0.153360950476102 
719	 0.156040685113744 
720	 0.158696696699793 
721	 0.161058515569775 
722	 0.163127770227288 
723	 0.165224024192732 
724	 0.167538347292617 
725	 0.169842344154179 
726	 0.172102132305608 
727	 0.17425686221427 
728	 0.17635177625933 
729	 0.178490306604956 
730	 0.180567345383786 
731	 0.1825073428722 
732	 0.184278063104739 
733	 0.18587781221458 
734	 0.187506102965562 
735	 0.189189260675872 
736	 0.190751840864867 
737	 0.192162123290333 
738	 0.193525678866793 
739	 0.194919185391557 
740	 0.196243552377705 
741	 0.197507647222624 
742	 0.198687016019248 
743	 0.199758951532804 
744	 0.20079433178204 
745	 0.201736602042852 
746	 0.202543009972599 
747	 0.203211439818361 
748	 0.204043061231499 
749	 0.204760475959128 
750	 0.205270053815705 
751	 0.20591856732153 
752	 0.206553855389937 
753	 0.207111998083326 
754	 0.207568848915872 
755	 0.20795979010875 
756	 0.208293172859183 
757	 0.208493372733417 
758	 0.208533674735916 
759	 0.209229853876812 
760	 0.210714492050839 
761	 0.212490083373456 
762	 0.212509266158679 
763	 0.212471433446927 
764	 0.212542027869494 
765	 0.212482574802676 
766	 0.212038603878141 
767	 0.211844281017911 
768	 0.211890318093749 
769	 0.212002810118736 
770	 0.212117308114397 
771	 0.212282450395615 
772	 0.212471959931338 
773	 0.212606606317736 
774	 0.212828634025913 
775	 0.213053476454408 
776	 0.213192365748429 
777	 0.213206728048592 
778	 0.213337264076608 
779	 0.213553940649612 
780	 0.213745745914844 
781	 0.213838251094525 
782	 0.213900807690125 
783	 0.214029234290777 
784	 0.214286038412978 
785	 0.214446180134728 
786	 0.214511732649416 
787	 0.214577308366381 
788	 0.214794155495099 
789	 0.214947493348704 
790	 0.215068547789482 
791	 0.215219938653194 
792	 0.215427380114073 
793	 0.215675075933434 
794	 0.215856410146807 
795	 0.215908093685012 
796	 0.216044936401773 
797	 0.216165395713253 
798	 0.216227004745919 
799	 0.216253754748472 
800	 0.216449846719921 
801	 0.216636317474141 
802	 0.216734418282122 
803	 0.216830415953203 
804	 0.216992653806003 
805	 0.217194799988298 
806	 0.217362675104191 
807	 0.217364952692681 
808	 0.217462979197881 
809	 0.217657703008248 
810	 0.217831176969986 
811	 0.217769051982158 
812	 0.217800027376064 
813	 0.218027682054827 
814	 0.218359298971945 
815	 0.218428820246011 
816	 0.218514860714298 
817	 0.218764680684433 
818	 0.219071418825404 
819	 0.218948320071578 
820	 0.218766189979175 
821	 0.218862327125101 
822	 0.219269246856331 
823	 0.219634642329263 
824	 0.219699182990091 
825	 0.219460317580934 
826	 0.219451325925155 
827	 0.219808244905465 
828	 0.220215187764992 
829	 0.220241143569112 
830	 0.22011671141746 
831	 0.220099136207156 
832	 0.220293853109337 
833	 0.220638219291052 
834	 0.220834845525235 
835	 0.220795786088489 
836	 0.220721115634207 
837	 0.221055811090942 
838	 0.221131141499831 
839	 0.221214836644525 
840	 0.221487052042087 
841	 0.221595411267287 
842	 0.221649780211682 
843	 0.221775530238011 
844	 0.222024744616059 
845	 0.222208398281771 
846	 0.222195208193449 
847	 0.222198118220783 
848	 0.222490977010907 
849	 0.222783070203522 
850	 0.222944553518832 
851	 0.222942026934407 
852	 0.2228684128624 
853	 0.223109592628785 
854	 0.223657651432403 
855	 0.224057798827702 
856	 0.223561441806627 
857	 0.223262894670348 
858	 0.223384597691419 
859	 0.223761614428105 
860	 0.223907746433575 
861	 0.224117757610529 
862	 0.224220022273469 
863	 0.22411948498084 
864	 0.224141375995894 
865	 0.224712051661602 
866	 0.225359535115728 
867	 0.225438762630444 
868	 0.225050444762929 
869	 0.2248056361896 
870	 0.224924612124096 
871	 0.225300106659353 
872	 0.225444864299885 
873	 0.225598045226634 
874	 0.22573004478818 
875	 0.225665561906142 
876	 0.225835863718015 
877	 0.225884606928393 
878	 0.225803848612291 
879	 0.22596377398019 
880	 0.226037815671492 
881	 0.226205985566095 
882	 0.226415339626312 
883	 0.226250963170703 
884	 0.226409950326138 
885	 0.226717004925246 
886	 0.226899397884036 
887	 0.226860163489183 
888	 0.22686362909561 
889	 0.226695999200301 
890	 0.226363585101288 
891	 0.226729244532617 
892	 0.227025506898618 
893	 0.227175199369865 
894	 0.22728690804823 
895	 0.22725865403161 
896	 0.227330475946094 
897	 0.227629257561054 
898	 0.228074478165698 
899	 0.228028824999623 
900	 0.227980717607572 
901	 0.227995593203605 
902	 0.227876977681616 
903	 0.227484328194864 
904	 0.227044327013419 
905	 0.226872783493743 
906	 0.227220878648369 
907	 0.227744470379419 
908	 0.228437058666578 
909	 0.228732214246168 
910	 0.227896455933627 
911	 0.227687435480288 
912	 0.227633422352068 
913	 0.227685245284156 
914	 0.228323366845207 
915	 0.228800542215153 
916	 0.228608876106948 
917	 0.228058250257973 
918	 0.228153072149099 
919	 0.22767888142382 
920	 0.227315011541938 
921	 0.227525574423658 
922	 0.228087378277886 
923	 0.228398207767398 
924	 0.228073866989305 
925	 0.227360776402464 
926	 0.22730818362752 
927	 0.227152412696667 
928	 0.227171636988411 
929	 0.227518004413755 
930	 0.227686517989395 
931	 0.228321773071942 
932	 0.229398576345006 
933	 0.230093919821395 
934	 0.228562479789654 
935	 0.227581524392642 
936	 0.227172755850069 
937	 0.226405361389137 
938	 0.224330024786932 
939	 0.223739103239242 
940	 0.22398025591817 
941	 0.224217832032222 
942	 0.224885334309222 
943	 0.225348816963186 
944	 0.226002648584651 
945	 0.226655616415692 
946	 0.225360585530579 
947	 0.225113220902055 
948	 0.225200298746485 
949	 0.224502240342277 
950	 0.223289928492385 
951	 0.222824986779915 
952	 0.22265998443177 
953	 0.222344404053777 
954	 0.222406536985467 
955	 0.222020396862556 
956	 0.221528517351555 
957	 0.221326611279527 
958	 0.221293480676763 
959	 0.221240085592801 
960	 0.220726033759042 
961	 0.219938645437448 
962	 0.220150744717132 
963	 0.220612516898352 
964	 0.220343875791366 
965	 0.219422711821858 
966	 0.219591495764506 
967	 0.219957212664979 
968	 0.219705978052612 
969	 0.219097948193171 
970	 0.219844328157072 
971	 0.220104768076453 
972	 0.220297687403228 
973	 0.220677734203125 
974	 0.220660296750661 
975	 0.220533114849537 
976	 0.220815023107178 
977	 0.221160450016196 
978	 0.220300750454064 
979	 0.219698137516526 
980	 0.220087857996784 
981	 0.220813141611572 
982	 0.220240165905104 
983	 0.220459816789038 
984	 0.220314895489028 
985	 0.220136060366752 
986	 0.221511164493062 
987	 0.22205855626831 
988	 0.222016713365968 
989	 0.221874023369998 
990	 0.222088882578053 
991	 0.223182996936817 
992	 0.222982863467586 
993	 0.22232933175738 
994	 0.223194850765321 
995	 0.222202177086856 
996	 0.222562580706626 
997	 0.223360300040042 
998	 0.222566910108247 
999	 0.223280803207379 
1000	 0.22435019276525 
1001	 0.232333880950896 
1002	 0.232627283221238 
1003	 0.232895017343106 
1004	 0.233206468344568 
1005	 0.233476109795969 
1006	 0.233714200781029 
1007	 0.233915931068818 
1008	 0.234034823058232 
1009	 0.234274305186931 
1010	 0.234544749182723 
1011	 0.234810242687718 
1012	 0.235159098598602 
1013	 0.235518586177833 
1014	 0.235738268517344 
1015	 0.235922957651625 
1016	 0.236203475438683 
1017	 0.236513103641936 
1018	 0.236739308220416 
1019	 0.236945440354774 
1020	 0.237180886883523 
1021	 0.237353945258979 
1022	 0.237559726427628 
1023	 0.237827580930979 
1024	 0.238094989019283 
1025	 0.238265114186105 
1026	 0.238333110323665 
1027	 0.238454236508044 
1028	 0.23866979243198 
1029	 0.238833414285694 
1030	 0.239029636363735 
1031	 0.239217341227142 
1032	 0.239368831054129 
1033	 0.239513609675246 
1034	 0.239641305971825 
1035	 0.239808329485748 
1036	 0.239990178712734 
1037	 0.240115982161182 
1038	 0.240205886203791 
1039	 0.240465567905313 
1040	 0.240581259701142 
1041	 0.240622235930385 
1042	 0.240862428717338 
1043	 0.241069361671359 
1044	 0.241239004256856 
1045	 0.241480491112725 
1046	 0.241641061336936 
1047	 0.241631347220306 
1048	 0.24163383359689 
1049	 0.241731920908209 
1050	 0.241873067044047 
1051	 0.242053067369208 
1052	 0.242327578274279 
1053	 0.242645062565573 
1054	 0.242865301692276 
1055	 0.242973790251573 
1056	 0.243042948710563 
1057	 0.24318664088878 
1058	 0.243334664032971 
1059	 0.243378321407398 
1060	 0.24357422367295 
1061	 0.243807674287791 
1062	 0.243922005268226 
1063	 0.244204881332435 
1064	 0.244500917415583 
1065	 0.244692055630709 
1066	 0.244744606379769 
1067	 0.244906996168368 
1068	 0.24509338985637 
1069	 0.245183046871825 
1070	 0.24537627448858 
1071	 0.245665356905892 
1072	 0.245909806843111 
1073	 0.246140210152024 
1074	 0.246386746058922 
1075	 0.246508946761426 
1076	 0.246618383934227 
1077	 0.246785096149494 
1078	 0.24691293750286 
1079	 0.247096126509352 
1080	 0.247233775614881 
1081	 0.247391537709872 
1082	 0.247568480062004 
1083	 0.247794344675788 
1084	 0.24791871535793 
1085	 0.248000750525022 
1086	 0.247990442413656 
1087	 0.248062309254453 
1088	 0.248174844118035 
1089	 0.248218970505268 
1090	 0.248356316641568 
1091	 0.248429634350152 
1092	 0.248444682028042 
1093	 0.248595738783556 
1094	 0.248797299402583 
1095	 0.248826148476541 
1096	 0.248847496803918 
1097	 0.248794718069179 
1098	 0.248801915749348 
1099	 0.248742713182384 
1100	 0.248823604572709 
1101	 0.249013817492694 
1102	 0.249098800470379 
1103	 0.24908855565671 
1104	 0.24904587844973 
1105	 0.248900571063423 
1106	 0.248756253740365 
1107	 0.248622557480606 
1108	 0.248430587816802 
1109	 0.24832934410551 
1110	 0.248152525020928 
1111	 0.247973467392076 
1112	 0.247819230278433 
1113	 0.247682817990282 
1114	 0.247495858009541 
1115	 0.247320538214804 
1116	 0.247161503431212 
1117	 0.247046433648514 
1118	 0.246953119173402 
1119	 0.246828285317929 
1120	 0.246686095918103 
1121	 0.246479064173274 
1122	 0.24604187997076 
1123	 0.24551243806125 
1124	 0.245120354354646 
1125	 0.244800275118464 
1126	 0.244346424755739 
1127	 0.243860429653595 
1128	 0.243455226435125 
1129	 0.243101184543917 
1130	 0.242547751447134 
1131	 0.242054894030373 
1132	 0.241452824955084 
1133	 0.240711206232871 
1134	 0.239910172640953 
1135	 0.239107619062699 
1136	 0.238301214773177 
1137	 0.23744507993544 
1138	 0.236532870274574 
1139	 0.235647931236199 
1140	 0.234743703278739 
1141	 0.233694786824519 
1142	 0.232598591336694 
1143	 0.231599072907916 
1144	 0.230630139679455 
1145	 0.229597262295382 
1146	 0.228646829602905 
1147	 0.227585705924193 
1148	 0.226353013579652 
1149	 0.225334237788201 
1150	 0.224380979559095 
1151	 0.223540863887564 
1152	 0.222863280393305 
1153	 0.222261755483307 
1154	 0.221608362839784 
1155	 0.221012461373236 
1156	 0.220576436047708 
1157	 0.220103978076137 
1158	 0.219803440781874 
1159	 0.219624376121257 
1160	 0.219331221760359 
1161	 0.219003998396357 
1162	 0.218738035661919 
1163	 0.218396871668325 
1164	 0.218181105781733 
1165	 0.21807495923977 
1166	 0.217927041130503 
1167	 0.217828682338644 
1168	 0.217680959738043 
1169	 0.217489351774668 
1170	 0.217332402237224 
1171	 0.217122938051448 
1172	 0.216928008379542 
1173	 0.216826454120112 
1174	 0.216703188839677 
1175	 0.21659609754142 
1176	 0.216498637748195 
1177	 0.216397444925788 
1178	 0.216298438370973 
1179	 0.216162896944903 
1180	 0.216007185882277 
1181	 0.215868806070447 
1182	 0.215689951094029 
1183	 0.215539034761746 
1184	 0.215448937387888 
1185	 0.215320185271805 
1186	 0.215134585064372 
1187	 0.215005449950954 
1188	 0.214894327826746 
1189	 0.214787217541995 
1190	 0.21471978159494 
1191	 0.214662398698382 
1192	 0.214587450892447 
1193	 0.214562172182956 
1194	 0.214533178656172 
1195	 0.214526650534842 
1196	 0.214512700032719 
1197	 0.214508291141933 
1198	 0.214490726748342 
1199	 0.214447154683821 
1200	 0.214462816789347 
1201	 0.21447174476558 
1202	 0.214544315153947 
1203	 0.214725006580134 
1204	 0.214838422444904 
1205	 0.214910908932515 
1206	 0.21504584746243 
1207	 0.215168522467539 
1208	 0.215330110696708 
1209	 0.215552050218303 
1210	 0.215823434792911 
1211	 0.216024390538341 
1212	 0.216228809913253 
1213	 0.216437232417192 
1214	 0.216627569472034 
1215	 0.216851924580587 
1216	 0.217102926502223 
1217	 0.21732927912466 
1218	 0.217540007621888 
1219	 0.217798345186195 
1220	 0.218056791878779 
1221	 0.218350755211698 
1222	 0.218731680191506 
1223	 0.219042521454588 
1224	 0.219338207519118 
1225	 0.219621257917264 
1226	 0.219866151843378 
1227	 0.220122101395767 
1228	 0.220355020350883 
1229	 0.220628604006113 
1230	 0.220913477409534 
1231	 0.221179388089715 
1232	 0.221427278466436 
1233	 0.221681705925191 
1234	 0.221899428980527 
1235	 0.222063560221486 
1236	 0.222280052504481 
1237	 0.222518639573652 
1238	 0.222723472586476 
1239	 0.22293829668162 
1240	 0.223133244639367 
1241	 0.223291603384265 
1242	 0.223464057383783 
1243	 0.223634711127064 
1244	 0.223815117300831 
1245	 0.223999408450294 
1246	 0.224177129461755 
1247	 0.224402947447435 
1248	 0.224561527977659 
1249	 0.224663155950895 
1250	 0.224771788290297 
1251	 0.224834054024227 
1252	 0.224910325592388 
1253	 0.224992180470604 
1254	 0.22509582955201 
1255	 0.2251704750661 
1256	 0.225218017305726 
1257	 0.22530765694463 
1258	 0.225436703497918 
1259	 0.225495412939284 
1260	 0.225555247781671 
1261	 0.225585136672158 
1262	 0.225521998311257 
1263	 0.225518739206064 
1264	 0.22552074516443 
1265	 0.225558435586038 
1266	 0.225618257174236 
1267	 0.22569421580072 
1268	 0.22586114151876 
1269	 0.225940759054523 
1270	 0.225978677801071 
1271	 0.226013976692023 
1272	 0.226002117287768 
1273	 0.225980024626131 
1274	 0.225971525389265 
1275	 0.225960187467752 
1276	 0.225987371024017 
1277	 0.226029213187059 
1278	 0.226065118557951 
1279	 0.226137780206063 
1280	 0.22617915972996 
1281	 0.22621123861761 
1282	 0.226214565422186 
1283	 0.226221405565607 
1284	 0.226185711955788 
1285	 0.226064318642314 
1286	 0.226018977967498 
1287	 0.226018124555066 
1288	 0.225964637185468 
1289	 0.225910582519246 
1290	 0.225862483792377 
1291	 0.225799107701462 
1292	 0.225703503866941 
1293	 0.225602568073848 
1294	 0.225506216635545 
1295	 0.225389170251052 
1296	 0.225239088378508 
1297	 0.225085126656301 
1298	 0.224953167211394 
1299	 0.224778013867527 
1300	 0.224561363367765 
1301	 0.224329609013096 
1302	 0.224107979445639 
1303	 0.223813214029983 
1304	 0.223437886810988 
1305	 0.223096183614853 
1306	 0.222759380976746 
1307	 0.222351353660852 
1308	 0.221907452811186 
1309	 0.221457750519801 
1310	 0.220912657348537 
1311	 0.220434854505379 
1312	 0.220038771335066 
1313	 0.219559545448844 
1314	 0.219105946996175 
1315	 0.218549556338911 
1316	 0.217889159574385 
1317	 0.217220982028479 
1318	 0.216490755199868 
1319	 0.215738441649434 
1320	 0.214909727619677 
1321	 0.214113175182182 
1322	 0.213360075552966 
1323	 0.212613344243602 
1324	 0.211812574413231 
1325	 0.211047218976348 
1326	 0.210202631750253 
1327	 0.20920262784568 
1328	 0.208330135808981 
1329	 0.207543425237276 
1330	 0.20662533461756 
1331	 0.205736068755653 
1332	 0.204722249667956 
1333	 0.203526559571509 
1334	 0.202454071829949 
1335	 0.201303856387074 
1336	 0.200319240171634 
1337	 0.199454751105491 
1338	 0.198588224910553 
1339	 0.197747584546491 
1340	 0.196969486804281 
1341	 0.196206325768814 
1342	 0.195419495654605 
1343	 0.194506124988504 
1344	 0.193756501578436 
1345	 0.193103344697042 
1346	 0.192297158045737 
1347	 0.191565933736917 
1348	 0.190972211800882 
1349	 0.190287776866259 
1350	 0.18933932994421 
1351	 0.188635088835638 
1352	 0.188634543398179 
1353	 0.188110677070315 
1354	 0.187560285705146 
1355	 0.187118652762133 
1356	 0.187267068852428 
1357	 0.186753556020032 
1358	 0.186705349191642 
1359	 0.18630951324804 
1360	 0.183655853665556 
1361	 0.182167976144999 
1362	 0.188298463898076 
1363	 0.188080997677054 
1364	 0.18112982798478 
1365	 0.178163372423124 
1366	 0.172372134750979 
1367	 0.168606366396681 
1368	 0.173557055168581 
1369	 0.171427286240692 
1370	 0.164315050104256 
1371	 0.162638669127619 
1372	 0.160955860845328 
1373	 0.160640405647705 
1374	 0.163689575593174 
1375	 0.165495030564787 
1376	 0.162999954643423 
1377	 0.160024064208605 
1378	 0.156620040934314 
1379	 0.150261554494115 
1380	 0.144835575479884 
1381	 0.139167633449402 
1382	 0.135733069481902 
1383	 0.131825557200067 
1384	 0.131043561860253 
1385	 0.136133579429841 
1386	 0.133316669953577 
1387	 0.128074617940275 
1388	 0.12481757186299 
1389	 0.119338477187115 
1390	 0.116256031527254 
1391	 0.116705417659433 
1392	 0.113461653180241 
1393	 0.106875594002899 
1394	 0.104074602589478 
1395	 0.101760665896472 
1396	 0.099749998606231 
1397	 0.100332021975236 
1398	 9.92553565706224E-02 
1399	 9.70305716919317E-02 
1400	 0.095116427713536 
1401	 9.37995782321618E-02 
1402	 9.14211965495123E-02 
1403	 8.77729574034124E-02 
1404	 8.54869355344273E-02 
1405	 8.34268011472958E-02 
1406	 8.18114468683494E-02 
1407	 0.080668286238613 
1408	 7.98193087795637E-02 
1409	 7.85641938653094E-02 
1410	 7.77030916467638E-02 
1411	 0.076637991120084 
1412	 7.58677649927075E-02 
1413	 7.47807446208783E-02 
1414	 7.33496826793266E-02 
1415	 7.24473698141544E-02 
1416	 7.17050039365023E-02 
1417	 7.09647608585747E-02 
1418	 7.03402043499225E-02 
1419	 6.98140202579461E-02 
1420	 6.93615208935944E-02 
1421	 0.068837304676208 
1422	 6.83313454361753E-02 
1423	 6.79485866615147E-02 
1424	 6.75187569414195E-02 
1425	 6.71563663412912E-02 
1426	 6.69665202982913E-02 
1427	 6.66204328207415E-02 
1428	 6.61090424752529E-02 
1429	 0.065750766370571 
1430	 6.53892433416509E-02 
1431	 6.50981645155791E-02 
1432	 6.49306884630256E-02 
1433	 6.47185712078324E-02 
1434	 6.44575304379801E-02 
1435	 6.42970709826207E-02 
1436	 6.41647080485134E-02 
1437	 6.40510733592179E-02 
1438	 6.39972926164062E-02 
1439	 6.39672834198944E-02 
1440	 6.40110287529315E-02 
1441	 6.39899208089918E-02 
1442	 6.39395565547105E-02 
1443	 6.39735032773925E-02 
1444	 6.38414217661021E-02 
1445	 6.36494485357235E-02 
1446	 0.063460314570955 
1447	 6.33712050311738E-02 
1448	 6.33760496368835E-02 
1449	 6.34543993658588E-02 
1450	 6.35336615807768E-02 
1451	 6.36906705170117E-02 
1452	 6.37911259078008E-02 
1453	 6.38662544059754E-02 
1454	 6.39801504573545E-02 
1455	 6.41605356039729E-02 
1456	 6.41705625532632E-02 
1457	 6.40783377686692E-02 
1458	 6.41409546571175E-02 
1459	 6.41842852069664E-02 
1460	 6.42434666186186E-02 
1461	 6.44234199256745E-02 
1462	 6.45740843775495E-02 
1463	 6.46151537216484E-02 
1464	 6.47951268320034E-02 
1465	 6.51414656362798E-02 
1466	 6.54271119592784E-02 
1467	 6.57116858521003E-02 
1468	 6.60479915224766E-02 
1469	 6.63950057952878E-02 
1470	 6.67703557156241E-02 
1471	 6.71693028086447E-02 
1472	 6.75694522176878E-02 
1473	 6.79343062705932E-02 
1474	 6.83575700748273E-02 
1475	 6.88162936989218E-02 
1476	 6.92537609020403E-02 
1477	 6.97304618034162E-02 
1478	 7.01459186201343E-02 
1479	 0.070414357948653 
1480	 0.070843765285553 
1481	 7.13185567656479E-02 
1482	 7.18244768850706E-02 
1483	 7.24552053854446E-02 
1484	 7.30353022066794E-02 
1485	 7.36202970284576E-02 
1486	 7.41413671445137E-02 
1487	 7.46133663843051E-02 
1488	 7.50713765245042E-02 
1489	 7.55602847576766E-02 
1490	 7.59393640495189E-02 
1491	 7.64237934527094E-02 
1492	 7.70363868311946E-02 
1493	 7.75709955285345E-02 
1494	 0.078114960463314 
1495	 7.86057836256185E-02 
1496	 7.90690922647088E-02 
1497	 7.95090707599756E-02 
1498	 0.079889536441405 
1499	 0.080406806093579 
1500	 8.09667646103501E-02 
1501	 0.081528704494517 
1502	 8.22014875618319E-02 
1503	 8.27835249669636E-02 
1504	 8.32979585038191E-02 
1505	 8.38652165471127E-02 
1506	 0.084459699257374 
1507	 8.50115889733266E-02 
1508	 8.55302709228731E-02 
1509	 8.61195264209909E-02 
1510	 8.67274952216257E-02 
1511	 8.73014694181982E-02 
1512	 0.087941688342774 
1513	 0.088487748414237 
1514	 8.89257397054514E-02 
1515	 8.94646480500404E-02 
1516	 9.00426877264893E-02 
1517	 9.05822881790548E-02 
1518	 9.11386698907052E-02 
1519	 9.17032682077552E-02 
1520	 9.22422648446313E-02 
1521	 9.28000794554094E-02 
1522	 0.093411267904438 
1523	 9.39724375969895E-02 
1524	 9.44889003273626E-02 
1525	 9.50408112740291E-02 
1526	 9.56239629595134E-02 
1527	 9.61570940191066E-02 
1528	 9.66773975204043E-02 
1529	 9.71964867698529E-02 
1530	 9.76553064272391E-02 
1531	 9.81734557810642E-02 
1532	 9.87271910042889E-02 
1533	 9.92898616253167E-02 
1534	 0.099895453062826 
1535	 0.100470818259319 
1536	 0.10107755898473 
1537	 0.101619793541038 
1538	 0.102094742480614 
1539	 0.102599162664952 
1540	 0.103084586960003 
1541	 0.10356801601666 
1542	 0.104056585774814 
1543	 0.104557064803275 
1544	 0.105053589806485 
1545	 0.105546014929259 
1546	 0.106031100180599 
1547	 0.106554174767595 
1548	 0.107115417425204 
1549	 0.107638389905402 
1550	 0.108237146718266 
1551	 0.108727525112332 
1552	 0.109049106033147 
1553	 0.109478176282095 
1554	 0.109904455737799 
1555	 0.110350814888931 
1556	 0.110917823415923 
1557	 0.111412243069289 
1558	 0.111852566261119 
1559	 0.11229578228584 
1560	 0.112707976184502 
1561	 0.113130017773005 
1562	 0.113549537385454 
1563	 0.113980121709947 
1564	 0.11442948411266 
1565	 0.114862064007746 
1566	 0.115371885315956 
1567	 0.115804743164392 
1568	 0.116215445327129 
1569	 0.116598108558849 
1570	 0.117005821686742 
1571	 0.117343435000293 
1572	 0.11783407693348 
1573	 0.118426861208023 
1574	 0.118933151802277 
1575	 0.119485888329936 
1576	 0.119953171342942 
1577	 0.120362534208646 
1578	 0.120711350406058 
1579	 0.120997939417283 
1580	 0.121328042112461 
1581	 0.121578884050929 
1582	 0.121938818896658 
1583	 0.122392200256239 
1584	 0.12276870127063 
1585	 0.123136246053721 
1586	 0.123513545772193 
1587	 0.123881467121882 
1588	 0.124244724634514 
1589	 0.124635855317162 
1590	 0.124964256947581 
1591	 0.125241162916304 
1592	 0.125558683811611 
1593	 0.125857012334684 
1594	 0.126192146535925 
1595	 0.126568737794657 
1596	 0.1269114477692 
1597	 0.127243890552106 
1598	 0.127599349651391 
1599	 0.127987281117029 
1600	 0.128289462479736 
1601	 0.128543107817189 
1602	 0.128879860482498 
1603	 0.129204666748135 
1604	 0.129505426279281 
1605	 0.129860283365821 
1606	 0.130192923145665 
1607	 0.130429150299362 
1608	 0.130777709547126 
1609	 0.131265453569999 
1610	 0.131572233495063 
1611	 0.131785863476949 
1612	 0.132097539434431 
1613	 0.132384731847467 
1614	 0.132657515872069 
1615	 0.13300919559627 
1616	 0.133270945993788 
1617	 0.133426318142695 
1618	 0.133641712983442 
1619	 0.133870700980178 
1620	 0.134114975365137 
1621	 0.134363937911677 
1622	 0.13460543330296 
1623	 0.134865838225061 
1624	 0.135118493374557 
1625	 0.135369984827254 
1626	 0.135583530838988 
1627	 0.135802113780182 
1628	 0.135987319352075 
1629	 0.13609769391975 
1630	 0.136283653680619 
1631	 0.136501812407626 
1632	 0.136705916991722 
1633	 0.136951936766146 
1634	 0.137116136636876 
1635	 0.137222745636004 
1636	 0.13739907622987 
1637	 0.137559021840733 
1638	 0.137750863830842 
1639	 0.138007477651165 
1640	 0.138211440275074 
1641	 0.138385975862576 
1642	 0.138564607555647 
1643	 0.138761571399513 
1644	 0.138894128375642 
1645	 0.138983583626753 
1646	 0.139103009539095 
1647	 0.139216397832933 
1648	 0.139255478239909 
1649	 0.139257592158329 
1650	 0.13933231382991 
1651	 0.139362257439717 
1652	 0.139444386703788 
1653	 0.139619974191264 
1654	 0.139722408875561 
1655	 0.139800426749547 
1656	 0.139858723527135 
1657	 0.139920959908416 
1658	 0.13990509801193 
1659	 0.13985571323443 
1660	 0.139713709018391 
1661	 0.139723256904978 
1662	 0.139838077962737 
1663	 0.139859684570953 
1664	 0.13995118562953 
1665	 0.14000877900422 
1666	 0.139951764260058 
1667	 0.139981224558652 
1668	 0.140011020401723 
1669	 0.140021792000176 
1670	 0.139980826508966 
1671	 0.139840599558809 
1672	 0.139817988344089 
1673	 0.139792060827569 
1674	 0.139713470853507 
1675	 0.13967527139016 
1676	 0.139449177344572 
1677	 0.139184237819023 
1678	 0.139034999011986 
1679	 0.138891181358097 
1680	 0.138777423802424 
1681	 0.138704078749528 
1682	 0.138657388590129 
1683	 0.13848947614939 
1684	 0.138215889075493 
1685	 0.137993083267885 
1686	 0.137752399979103 
1687	 0.137551371941847 
1688	 0.137443489787771 
1689	 0.137303974694661 
1690	 0.137033250244833 
1691	 0.136767639007998 
1692	 0.136409001492831 
1693	 0.136167244217889 
1694	 0.136065439562248 
1695	 0.135840559706165 
1696	 0.135600984910262 
1697	 0.135343057916452 
1698	 0.134985116306055 
1699	 0.134646207316036 
1700	 0.13435444723458 
1701	 0.134027433046294 
1702	 0.13355754481593 
1703	 0.13326005090592 
1704	 0.133151336879966 
1705	 0.132866038157156 
1706	 0.132520283813726 
1707	 0.132273989793037 
1708	 0.131943237065176 
1709	 0.131704419385734 
1710	 0.131744720105636 
1711	 0.13149877979691 
1712	 0.131013167984844 
1713	 0.130665417438453 
1714	 0.130246882968117 
1715	 0.129955412115122 
1716	 0.129823268365314 
1717	 0.129628875033327 
1718	 0.129489367265426 
1719	 0.129219099138417 
1720	 0.128789187058679 
1721	 0.128532649475863 
1722	 0.128336415778941 
1723	 0.128053165354143 
1724	 0.127836084817473 
1725	 0.127610843608614 
1726	 0.127276745609796 
1727	 0.12702969218824 
1728	 0.126881559689085 
1729	 0.126687034767891 
1730	 0.126452352438097 
1731	 0.126161236228575 
1732	 0.125965000144297 
1733	 0.125845274902918 
1734	 0.125698641969996 
1735	 0.125609652469155 
1736	 0.125608166741235 
1737	 0.125446887449608 
1738	 0.125180437199065 
1739	 0.124939764575458 
1740	 0.124721103129686 
1741	 0.124494930449024 
1742	 0.124222300803428 
1743	 0.123844329568712 
1744	 0.123398450560959 
1745	 0.122981817852304 
1746	 0.122602254856045 
1747	 0.122359149202536 
1748	 0.122178182577896 
1749	 0.12177977089668 
1750	 0.121319059651825 
1751	 0.120836310662179 
1752	 0.120381129277863 
1753	 0.120223266810841 
1754	 0.120082083399297 
1755	 0.119828575615935 
1756	 0.11950251117015 
1757	 0.118992661613596 
1758	 0.11853800708365 
1759	 0.118060169009636 
1760	 0.117701639015214 
1761	 0.117365245671946 
1762	 0.117083910344614 
1763	 0.116997885321413 
1764	 0.116696446127905 
1765	 0.116187143466265 
1766	 0.11595616993628 
1767	 0.115929961695509 
1768	 0.115683079378882 
1769	 0.115391853582574 
1770	 0.115165033136889 
1771	 0.114787697681044 
1772	 0.114461356011131 
1773	 0.114380802041919 
1774	 0.114170019402057 
1775	 0.113662954043773 
1776	 0.113646214230654 
1777	 0.113872840158805 
1778	 0.113861532515101 
1779	 0.113793435502715 
1780	 0.11367932781993 
1781	 0.11339958972018 
1782	 0.113117295926546 
1783	 0.112991875277335 
1784	 0.112827861719945 
1785	 0.112477041463006 
1786	 0.112252783352837 
1787	 0.112368771352788 
1788	 0.112349909080279 
1789	 0.112188355973276 
1790	 0.111986750055377 
1791	 0.111516789167226 
1792	 0.111208657965174 
1793	 0.111135418775021 
1794	 0.111127475187565 
1795	 0.111166057632665 
1796	 0.110976921154641 
1797	 0.110570343986481 
1798	 0.110174767664706 
1799	 0.110162031207084 
1800	 0.111419766612579 
1801	 0.114665068123908 
1802	 0.115312782443513 
1803	 0.115374133280686 
1804	 0.115333171830562 
1805	 0.115530385149191 
1806	 0.114906282398418 
1807	 0.114736836912654 
1808	 0.115253006332345 
1809	 0.116032655718802 
1810	 0.116530312419648 
1811	 0.116966419697991 
1812	 0.117209534612963 
1813	 0.116964918054385 
1814	 0.117603577974481 
1815	 0.118878854421941 
1816	 0.119536066327094 
1817	 0.121340668004059 
1818	 0.122056007901012 
1819	 0.121902596561587 
1820	 0.118787950164142 
1821	 0.118702048539698 
1822	 0.119906379903683 
1823	 0.120174926796324 
1824	 0.121147383663159 
1825	 0.12287146719211 
1826	 0.124168300542283 
1827	 0.126226605647167 
1828	 0.129679829832894 
1829	 0.137917259328239 
1830	 0.145518884325667 
1831	 0.154379258227535 
1832	 0.165693207471507 
1833	 0.189326851538978 
1834	 0.204327577837803 
1835	 0.197002210075455 
1836	 0.196486164035481 
1837	 0.159680397869333 
1838	 0.145874469939426 
1839	 0.145630835587089 
1840	 0.173934409760331 
1841	 0.183172956372323 
1842	 0.215883091865522 
1843	 0.212682137624812 
1844	 0.166603419703108 
1845	 0.160906880556157 
1846	 0.178778071975952 
1847	 0.168697192745742 
1848	 0.154410072181497 
1849	 0.148467955601814 
1850	 0.140036966221347 
1851	 0.097555743163563 
1852	 9.17814032532689E-02 
1853	 0.116708839809198 
1854	 0.134943120479574 
1855	 0.162130555383276 
1856	 0.176216384568832 
1857	 0.203156523829369 
1858	 0.201144979077463 
1859	 0.201321998954744 
1860	 0.191000966417449 
1861	 0.182647506366711 
1862	 0.171423233338812 
1863	 0.161322174708759 
1864	 0.142066945550567 
1865	 0.131235928782254 
1866	 0.126809144294124 
1867	 0.115816057525183 
1868	 9.39269120737931E-02 
1869	 9.53641690323464E-02 
1870	 0.100745633233927 
1871	 0.12237577337842 
1872	 0.124046779359564 
1873	 0.12643250519682 
1874	 0.130880166647928 
1875	 0.12843754685324 
1876	 0.119837722222054 
1877	 0.113021658121202 
1878	 0.118593371732055 
1879	 9.60902036748718E-02 
1880	 0.08013964772007 
1881	 0.070766813762407 
1882	 5.97721892498908E-02 
1883	 5.22723224187476E-02 
1884	 0.045918116176907 
1885	 4.57070913813788E-02 
1886	 4.93708147125899E-02 
1887	 5.19238384342759E-02 
1888	 5.76062087637294E-02 
1889	 6.05429585020947E-02 
1890	 5.96348732931315E-02 
1891	 0.051860063362253 
1892	 4.98867577155326E-02 
1893	 4.98720975970153E-02 
1894	 4.81692612958717E-02 
1895	 4.51060323648885E-02 
1896	 0.043966111660342 
1897	 4.26924785367866E-02 
1898	 0.038674107109087 
1899	 3.82401336670136E-02 
1900	 4.43863647437334E-02 
1901	 4.94798908941545E-02 
1902	 5.65975196731346E-02 
1903	 5.87431099773762E-02 
1904	 5.86190446262948E-02 
1905	 0.063864296374405 
1906	 6.55963273742564E-02 
1907	 6.60013704349256E-02 
1908	 7.45059183643094E-02 
1909	 7.51870618936382E-02 
1910	 7.15437104287941E-02 
1911	 6.57908535122466E-02 
1912	 5.79914184887576E-02 
1913	 4.98601077832773E-02 
1914	 4.21547423891633E-02 
1915	 3.22373074600809E-02 
1916	 2.80902295721446E-02 
1917	 2.49306496089028E-02 
1918	 2.51368645598077E-02 
1919	 2.34284525518828E-02 
1920	 1.91530713108922E-02 
1921	 1.75557476983725E-02 
1922	 0.018618504561409 
1923	 1.94772632191252E-02 
1924	 2.32191535904156E-02 
1925	 2.48450392051543E-02 
1926	 2.56934081825199E-02 
1927	 2.56049702515993E-02 
1928	 2.50568632669673E-02 
1929	 2.46257684292799E-02 
1930	 0.023352199182494 
1931	 2.25743028700942E-02 
1932	 2.32028366166584E-02 
1933	 2.45426612629302E-02 
1934	 2.44783216036736E-02 
1935	 2.40564857953375E-02 
1936	 2.41041829354601E-02 
1937	 2.31473186379657E-02 
1938	 0.022987110133991 
1939	 2.34837328678943E-02 
1940	 2.43463482335042E-02 
1941	 2.47710802668362E-02 
1942	 2.51957275692431E-02 
1943	 2.44392193039795E-02 
1944	 0.02429152097849 
1945	 2.45616077284714E-02 
1946	 2.40934141901773E-02 
1947	 2.39052400292328E-02 
1948	 2.41935618801827E-02 
1949	 2.40590891164952E-02 
1950	 2.30495672448971E-02 
1951	 2.35416489418511E-02 
1952	 2.42239212526972E-02 
1953	 2.44924931388581E-02 
1954	 2.46871910277583E-02 
1955	 2.46945830932414E-02 
1956	 2.46863255661834E-02 
1957	 2.51113674835723E-02 
1958	 2.57042389408643E-02 
1959	 2.71600364456757E-02 
1960	 2.72285527816072E-02 
1961	 2.66645369809424E-02 
1962	 2.66142178695504E-02 
1963	 2.61509826536124E-02 
1964	 2.59485048397284E-02 
1965	 0.026520606885046 
1966	 2.66531701063841E-02 
1967	 2.66397599093301E-02 
1968	 2.67304780865057E-02 
1969	 2.69645324945677E-02 
1970	 2.73170812015156E-02 
1971	 2.74974598575202E-02 
1972	 2.77683743001348E-02 
1973	 2.80078408595667E-02 
1974	 2.78041791633287E-02 
1975	 2.76483835440693E-02 
1976	 2.77852043805073E-02 
1977	 2.82332503064869E-02 
1978	 2.84754497206584E-02 
1979	 2.86314643760447E-02 
1980	 2.90748856362399E-02 
1981	 2.90244609639291E-02 
1982	 2.91759923927942E-02 
1983	 2.94037033513159E-02 
1984	 0.029966952550997 
1985	 3.00679536983038E-02 
1986	 3.03876211646384E-02 
1987	 0.030830568466687 
1988	 3.11409623575693E-02 
1989	 3.15616506703267E-02 
1990	 3.19641724908992E-02 
1991	 3.21674195432617E-02 
1992	 3.23814687521441E-02 
1993	 3.27821307401213E-02 
1994	 3.30599750617002E-02 
1995	 3.34265719269385E-02 
1996	 3.39063646846611E-02 
1997	 3.45257777358837E-02 
1998	 3.49545668281944E-02 
1999	 3.53771080253361E-02 
2000	 3.58013295376484E-02 
2001	 3.61862248520337E-02 
2002	 3.63819412930452E-02 
2003	 3.65262450968954E-02 
2004	 3.64661183484181E-02 
2005	 3.61645486721502E-02 
2006	 3.62103760384299E-02 
2007	 3.63889686572275E-02 
2008	 3.66601301155162E-02 
2009	 3.69878410941879E-02 
2010	 3.74099324860884E-02 
2011	 3.76314504494892E-02 
2012	 3.74096742130973E-02 
2013	 3.70266599736548E-02 
2014	 3.70732828236185E-02 
2015	 3.70309463541424E-02 
2016	 3.71755072122082E-02 
2017	 0.038160977483222 
2018	 0.038717511310116 
2019	 3.90691414966573E-02 
2020	 3.92617194758942E-02 
2021	 3.97413239656969E-02 
2022	 3.96574776872277E-02 
2023	 3.97479472376579E-02 
2024	 4.03314111631141E-02 
2025	 4.06044069802177E-02 
2026	 4.08118493647876E-02 
2027	 0.041217271593229 
2028	 4.13148016324601E-02 
2029	 4.14374422935718E-02 
2030	 4.17822014964118E-02 
2031	 4.21797667778192E-02 
2032	 4.24770837886434E-02 
2033	 4.27664039709242E-02 
2034	 0.04287771627816 
2035	 4.31860568505365E-02 
2036	 0.0433535891213 
2037	 4.34429673007327E-02 
2038	 4.38371473095309E-02 
2039	 4.40706981752685E-02 
2040	 4.42464464074809E-02 
2041	 4.44706822761407E-02 
2042	 4.46316103538857E-02 
2043	 4.49185547019214E-02 
2044	 4.54386036084837E-02 
2045	 4.58069069593238E-02 
2046	 4.62073760518306E-02 
2047	 4.65371933851702E-02 
2048	 4.68709662687992E-02 
2049	 4.68912114663542E-02 
2050	 4.69038867629933E-02 
2051	 4.68708588624399E-02 
2052	 4.66149221163118E-02 
2053	 4.66060182110209E-02 
2054	 4.68037442386257E-02 
2055	 4.71908790755881E-02 
2056	 4.78259030725099E-02 
2057	 4.81625978673168E-02 
2058	 4.80712699371747E-02 
2059	 4.82819745280742E-02 
2060	 0.048537922813882 
2061	 0.048892447122966 
2062	 4.91635643186433E-02 
2063	 4.95438741967496E-02 
2064	 4.98065096790358E-02 
2065	 4.98544499366413E-02 
2066	 4.97990217549498E-02 
2067	 4.98519496076827E-02 
2068	 4.98210424627111E-02 
2069	 4.95006614591679E-02 
2070	 4.93015959833021E-02 
2071	 4.95698018055766E-02 
2072	 4.99333847779562E-02 
2073	 5.04953284605736E-02 
2074	 5.10346524096215E-02 
2075	 5.16064297708059E-02 
2076	 0.05173256239134 
2077	 5.14887011442517E-02 
2078	 5.14824505010253E-02 
2079	 0.051638703601859 
2080	 5.20292094094639E-02 
2081	 5.26234949722363E-02 
2082	 5.30788254957367E-02 
2083	 5.32466214167392E-02 
2084	 5.33868871652605E-02 
2085	 5.37285599066052E-02 
2086	 5.39450737207639E-02 
2087	 5.40214629732946E-02 
2088	 5.40469067439484E-02 
2089	 0.054140478069361 
2090	 5.42963392756334E-02 
2091	 5.47162414963471E-02 
2092	 5.55560116207302E-02 
2093	 5.62324180170191E-02 
2094	 5.64000999680694E-02 
2095	 5.63405008308378E-02 
2096	 0.056230616103753 
2097	 5.59228590506984E-02 
2098	 5.59223838930112E-02 
2099	 5.65204950576611E-02 
2100	 5.69014097525651E-02 
2101	 5.71937348794875E-02 
2102	 5.75748686180727E-02 
2103	 0.058049423645491 
2104	 5.80959899410538E-02 
2105	 0.058309711615651 
2106	 5.88518049500331E-02 
2107	 5.90840173428434E-02 
2108	 5.91573905485579E-02 
2109	 5.93394448721188E-02 
2110	 0.059634282485337 
2111	 5.99093478577905E-02 
2112	 6.02705415921374E-02 
2113	 6.04818153379259E-02 
2114	 6.06141449594411E-02 
2115	 6.08740477759396E-02 
2116	 6.10698082438383E-02 
2117	 6.13762655509866E-02 
2118	 6.17282684125736E-02 
2119	 6.20126652377572E-02 
2120	 6.23177701770995E-02 
2121	 6.28515526846342E-02 
2122	 6.30510226554487E-02 
2123	 6.32365361063973E-02 
2124	 6.31389998558391E-02 
2125	 6.29308968628717E-02 
2126	 6.27292064520806E-02 
2127	 6.26487976780829E-02 
2128	 6.28856344350839E-02 
2129	 6.32116066651212E-02 
2130	 6.35501324122761E-02 
2131	 6.39210599587731E-02 
2132	 6.43333015675144E-02 
2133	 6.44970440240746E-02 
2134	 6.46915057223166E-02 
2135	 6.47835673101032E-02 
2136	 6.50226933471813E-02 
2137	 6.52705766273404E-02 
2138	 0.065766508241264 
2139	 6.62095746686662E-02 
2140	 6.63927863881391E-02 
2141	 6.63117642743892E-02 
2142	 6.59637439623666E-02 
2143	 6.58073175719436E-02 
2144	 6.58047882180802E-02 
2145	 6.61828680386605E-02 
2146	 6.68634982422157E-02 
2147	 6.71792121730101E-02 
2148	 0.067508573702204 
2149	 6.76840760069399E-02 
2150	 6.77648702035322E-02 
2151	 6.79237245506608E-02 
2152	 6.81601047010198E-02 
2153	 6.82481367218435E-02 
2154	 6.83495411346371E-02 
2155	 6.82442186917843E-02 
2156	 6.83183322979133E-02 
2157	 6.84598953650048E-02 
2158	 6.84658915584139E-02 
2159	 6.85433012749878E-02 
2160	 6.83214537921959E-02 
2161	 6.84954510728315E-02 
2162	 6.88575566174162E-02 
2163	 6.93047472580279E-02 
2164	 6.96685803988195E-02 
2165	 6.95623586101825E-02 
2166	 6.96997415901651E-02 
2167	 6.97513244520234E-02 
2168	 6.97429088759073E-02 
2169	 6.99123503561494E-02 
2170	 0.06991377241722 
2171	 0.069675125594074 
2172	 6.94709085442617E-02 
2173	 0.069561633137117 
2174	 6.96602466777616E-02 
2175	 6.98609618505461E-02 
2176	 7.03205662283587E-02 
2177	 7.06959983130858E-02 
2178	 7.11361231750039E-02 
2179	 7.16052810537736E-02 
2180	 7.16213362978999E-02 
2181	 7.15056860429043E-02 
2182	 0.071198060120342 
2183	 7.05919777993765E-02 
2184	 7.02339110645123E-02 
2185	 7.04208774255735E-02 
2186	 0.070623260132919 
2187	 0.070735323289189 
2188	 0.071310720483479 
2189	 7.14701541990944E-02 
2190	 7.11992002130953E-02 
2191	 0.070960965609154 
2192	 7.13776744812944E-02 
2193	 7.16034716684156E-02 
2194	 7.22311070550579E-02 
2195	 7.29795539108451E-02 
2196	 7.30537837729596E-02 
2197	 7.28294693092918E-02 
2198	 7.28825183994644E-02 
2199	 7.30469088767986E-02 
2200	 7.32280901170602E-02 
2201	 7.34597386568574E-02 
2202	 7.30160071059111E-02 
2203	 7.25156316245835E-02 
2204	 7.20876879071613E-02 
2205	 0.072018082983022 
2206	 0.072542526219209 
2207	 7.24470629523802E-02 
2208	 7.24292888516159E-02 
2209	 0.072497128313294 
2210	 7.24736452447144E-02 
2211	 7.20955525542351E-02 
2212	 7.23811948133584E-02 
2213	 0.072963750846209 
2214	 7.29731378792777E-02 
2215	 7.28674373831862E-02 
2216	 7.28791321421332E-02 
2217	 7.23768746041838E-02 
2218	 7.21867187023379E-02 
2219	 7.25500003809551E-02 
2220	 7.26942348713735E-02 
2221	 7.29070623585081E-02 
2222	 7.28866947360338E-02 
2223	 7.24650455545913E-02 
2224	 7.21413437319801E-02 
2225	 7.16096249718572E-02 
2226	 7.11883725288507E-02 
2227	 7.12129212007596E-02 
2228	 7.13409367102265E-02 
2229	 7.14760067347675E-02 
2230	 7.13944545555652E-02 
2231	 7.12729568656765E-02 
2232	 7.09177377958124E-02 
2233	 7.03983480292445E-02 
2234	 0.069560944592176 
2235	 6.95080355258718E-02 
2236	 6.93304201280213E-02 
2237	 0.069303934010027 
2238	 6.98118590703911E-02 
2239	 6.99173463190538E-02 
2240	 6.96475260774768E-02 
2241	 6.93538912932071E-02 
2242	 6.88340970120921E-02 
2243	 6.84836817896648E-02 
2244	 0.06843463752885 
2245	 6.82390985419015E-02 
2246	 6.80595315090049E-02 
2247	 6.76744983201463E-02 
2248	 6.72199578110336E-02 
2249	 6.71950224882684E-02 
2250	 6.74327711240789E-02 
2251	 6.75661942854891E-02 
2252	 6.77141079867875E-02 
2253	 6.74755800334554E-02 
2254	 6.64570843543944E-02 
2255	 6.58691500580159E-02 
2256	 6.53665054128739E-02 
2257	 6.47793101993308E-02 
2258	 6.40472380756892E-02 
2259	 6.42645357321585E-02 
2260	 6.42095671766309E-02 
2261	 6.39072037153653E-02 
2262	 6.40777479254721E-02 
2263	 6.40187380204334E-02 
2264	 6.42709974377645E-02 
2265	 6.43050422825903E-02 
2266	 6.38381087717683E-02 
2267	 6.32537397842545E-02 
2268	 6.23396576686484E-02 
2269	 6.18580663584909E-02 
2270	 6.18322527997546E-02 
2271	 6.21157045619193E-02 
2272	 6.23447615211016E-02 
2273	 6.19955704818221E-02 
2274	 6.19623441899494E-02 
2275	 6.19278107419917E-02 
2276	 0.061746048745322 
2277	 0.061773101934271 
2278	 6.11945441442376E-02 
2279	 6.08806441969952E-02 
2280	 0.06020883458827 
2281	 5.95733534861398E-02 
2282	 5.96356797837431E-02 
2283	 5.87942619496466E-02 
2284	 5.84916739773032E-02 
2285	 0.058937843507288 
2286	 5.88462270606049E-02 
2287	 5.85359310593539E-02 
2288	 5.84495506894917E-02 
2289	 5.79770803780319E-02 
2290	 5.66430919175542E-02 
2291	 5.59170479343049E-02 
2292	 5.61269786458826E-02 
2293	 5.64113857787571E-02 
2294	 5.68479222519862E-02 
2295	 5.69387925310738E-02 
2296	 5.60639151877798E-02 
2297	 5.51921284955186E-02 
2298	 5.47233080720821E-02 
2299	 5.44952035319281E-02 
2300	 5.45303624627324E-02 
2301	 5.42992596397365E-02 
2302	 0.054161302943775 
2303	 5.38517751435904E-02 
2304	 5.42155246023844E-02 
2305	 5.52388995539168E-02 
2306	 5.53977655616213E-02 
2307	 5.54918163911949E-02 
2308	 5.55499664157991E-02 
2309	 5.50546652278755E-02 
2310	 5.44307040854392E-02 
2311	 5.42312783225885E-02 
2312	 0.054412113007828 
2313	 5.44350536389097E-02 
2314	 5.44295566795934E-02 
2315	 5.46336451572779E-02 
2316	 0.054998043525058 
2317	 0.055086518681051 
2318	 5.48426102452588E-02 
2319	 5.49828598782077E-02 
2320	 5.39286608720229E-02 
2321	 5.30333420708135E-02 
2322	 5.23108697009726E-02 
2323	 5.16973780685937E-02 
2324	 5.08156763848851E-02 
2325	 5.02907616380164E-02 
2326	 5.00963881363129E-02 
2327	 4.99874049086512E-02 
2328	 5.00586984290456E-02 
2329	 5.02921724258381E-02 
2330	 5.02358594349485E-02 
2331	 4.96346788393592E-02 
2332	 0.050010416180832 
2333	 5.01263801194222E-02 
2334	 5.02640365115417E-02 
2335	 5.09297607795696E-02 
2336	 5.03747939181744E-02 
2337	 4.96659978162107E-02 
2338	 4.85354037268352E-02 
2339	 4.81980378101345E-02 
2340	 4.85517804663416E-02 
2341	 4.73470057603831E-02 
2342	 4.77130727964267E-02 
2343	 4.80995717356229E-02 
2344	 4.62085202397296E-02 
2345	 4.57131569905726E-02 
2346	 4.57676895643616E-02 
2347	 4.49718227008911E-02 
2348	 4.54132710957085E-02 
2349	 4.65474898565591E-02 
2350	 4.72486960444362E-02 
2351	 4.72464904040613E-02 
2352	 4.67148763747438E-02 
2353	 4.68622900367837E-02 
2354	 4.71692014818073E-02 
2355	 4.68505874019174E-02 
2356	 4.66544799767043E-02 
2357	 4.61000419458189E-02 
2358	 4.57374791083822E-02 
2359	 4.60087746019034E-02 
2360	 4.53666429662233E-02 
2361	 4.49020585479007E-02 
2362	 4.44704959577362E-02 
2363	 4.35589459340977E-02 
2364	 4.41555711738332E-02 
2365	 4.60210293977758E-02 
2366	 4.80751711751456E-02 
2367	 4.79681227551904E-02 
2368	 4.66141048955442E-02 
2369	 0.045071322166552 
2370	 0.0417758340444 
2371	 4.07601177448284E-02 
2372	 3.99951362527073E-02 
2373	 0.039780658536263 
2374	 4.01714590942877E-02 
2375	 4.17152624790275E-02 
2376	 4.24173346565211E-02 
2377	 4.40516574636354E-02 
2378	 4.38829148602434E-02 
2379	 4.25701587653417E-02 
2380	 4.21621165542656E-02 
2381	 4.02933469839227E-02 
2382	 4.01302293182758E-02 
2383	 4.18644692473409E-02 
2384	 4.18320181984129E-02 
2385	 4.14995177279654E-02 
2386	 4.20940333368909E-02 
2387	 0.042687142321607 
2388	 4.22946408244988E-02 
2389	 4.15047245570747E-02 
2390	 4.16064299599709E-02 
2391	 4.12932015750152E-02 
2392	 4.12445734488861E-02 
2393	 4.37645392382513E-02 
2394	 4.36291402761393E-02 
2395	 4.02398353063803E-02 
2396	 0.039673212840194 
2397	 3.86623038592941E-02 
2398	 3.82275679578708E-02 
2399	 4.13672309903283E-02 
2400	 0.042467289814469 
2401	 4.28766968795577E-02 
2402	 4.20041164263973E-02 
2403	 3.94417705928924E-02 
2404	 3.47330285164613E-02 
2405	 3.09063863202642E-02 
2406	 2.98631366574697E-02 
2407	 3.10310486983493E-02 
2408	 3.27977557826369E-02 
2409	 3.23674768327208E-02 
2410	 3.09275973885189E-02 
2411	 3.12627099073166E-02 
2412	 0.031913324315561 
2413	 3.40428844460599E-02 
2414	 3.77518463549185E-02 
2415	 3.95643099161089E-02 
2416	 4.00855413465533E-02 
2417	 4.02526402889323E-02 
2418	 3.75926702947658E-02 
2419	 0.035258326406198 
2420	 3.58059815425392E-02 
2421	 3.57974545676067E-02 
2422	 3.72264354399815E-02 
2423	 3.90787810897873E-02 
2424	 3.82839187152834E-02 
2425	 3.70966188638547E-02 
2426	 3.47552118380396E-02 
2427	 3.28761839200613E-02 
2428	 3.24610067644215E-02 
2429	 3.22161169158309E-02 
2430	 3.22951090079682E-02 
2431	 0.030220916211376 
2432	 2.84281605121267E-02 
2433	 2.57189724434694E-02 
2434	 2.53311687698347E-02 
2435	 2.85630473974107E-02 
2436	 2.98193897207023E-02 
2437	 3.06804641418359E-02 
2438	 3.22676422242424E-02 
2439	 3.43708173526232E-02 
2440	 3.55815246697965E-02 
2441	 3.74608880633465E-02 
2442	 3.83212328945386E-02 
2443	 3.75252326941416E-02 
2444	 3.72699134727807E-02 
2445	 3.58655970123557E-02 
2446	 3.55763562932422E-02 
2447	 3.70950263091736E-02 
2448	 3.65033850255267E-02 
2449	 0.035487781109466 
2450	 3.37648313120643E-02 
2451	 2.72529649143722E-02 
2452	 2.58348916696077E-02 
2453	 2.90847038360273E-02 
2454	 3.01721958083493E-02 
2455	 3.46953479140357E-02 
2456	 3.46219683990895E-02 
2457	 2.85471948578532E-02 
2458	 2.78321683105771E-02 
2459	 2.85198448610453E-02 
2460	 2.88809683196741E-02 
2461	 3.25146574947976E-02 
2462	 3.33557169811025E-02 
2463	 3.10104916186512E-02 
2464	 0.030374693257203 
2465	 2.80673485055246E-02 
2466	 3.00861042387143E-02 
2467	 3.85295507096605E-02 
2468	 3.94816106447002E-02 
2469	 3.93050517933102E-02 
2470	 3.98913886578215E-02 
2471	 0.031620402267127 
2472	 0.031231505433577 
2473	 4.23819624478736E-02 
2474	 4.59146490228064E-02 
2475	 0.047899954698605 
2476	 4.40951334082435E-02 
2477	 0.03219221403564 
2478	 2.24022487673861E-02 
2479	 3.01211788474372E-03 
2480	 5.41926710444071E-03 
2481	 2.43186568357715E-02 
2482	 3.67464706776923E-02 
2483	 7.43000592026698E-02 
2484	 7.64931518930875E-02 
2485	 4.10338602386724E-02 
2486	 3.25267649172251E-02 
2487	 1.59979702353811E-02 
2488	 3.61082657662694E-02 
2489	 6.54714154706056E-02 
2490	 5.81433510444273E-02 
2491	 4.55737429496796E-02 
2492	 2.82326079149861E-02 
2493	 1.15519483394558E-02 
2494	 2.22595213270417E-03 
2495	 2.12671180219838E-02 
2496	 2.92796422864298E-02 
2497	 2.11634089955934E-02 
2498	 6.71876231427486E-02 
2499	 0.105423214474883 
2500	 0.103668111414361 
