Wavelength	ref00030.asd
350	 2.42790192645605E-02 
351	 0.024125171837232 
352	 2.38342975415595E-02 
353	 2.43978118010199E-02 
354	 2.42837912373133E-02 
355	 2.38518245496185E-02 
356	 2.36223264737376E-02 
357	 2.37273598064734E-02 
358	 2.35586159086431E-02 
359	 2.32834583594383E-02 
360	 0.023258928676246 
361	 2.35214388617973E-02 
362	 2.35951053058534E-02 
363	 2.34422634133097E-02 
364	 2.33179412478438E-02 
365	 2.31614771812136E-02 
366	 2.28825984120869E-02 
367	 2.26519581077422E-02 
368	 2.30112957234474E-02 
369	 2.28676735339375E-02 
370	 2.26352012920993E-02 
371	 2.27638815438182E-02 
372	 2.26368017593126E-02 
373	 2.25070306526682E-02 
374	 2.24294351502595E-02 
375	 0.022363954730296 
376	 2.23879244256078E-02 
377	 0.022386853250707 
378	 2.24089047653914E-02 
379	 2.26992534280209E-02 
380	 2.25428186742014E-02 
381	 2.23386905377088E-02 
382	 2.24398208994066E-02 
383	 2.23621994394818E-02 
384	 2.26242419891574E-02 
385	 2.27460063446628E-02 
386	 2.21350862573017E-02 
387	 2.25057374518094E-02 
388	 2.27163398459407E-02 
389	 2.24652856570778E-02 
390	 2.25219801258453E-02 
391	 2.26088699530442E-02 
392	 0.022594031810033 
393	 2.24980917118756E-02 
394	 2.26235092877673E-02 
395	 2.28645713091584E-02 
396	 2.30597053697999E-02 
397	 0.023075396345966 
398	 2.30542133431278E-02 
399	 2.28379887915197E-02 
400	 2.26434663731126E-02 
401	 2.29232195221422E-02 
402	 2.28281290219955E-02 
403	 2.28306099073532E-02 
404	 0.023190606803772 
405	 2.33722657550845E-02 
406	 2.33258818864126E-02 
407	 2.32887076497686E-02 
408	 2.34853181864523E-02 
409	 2.34210414315275E-02 
410	 2.34989509232847E-02 
411	 2.37458177388177E-02 
412	 2.38328779891263E-02 
413	 2.37568166614589E-02 
414	 2.37054573869025E-02 
415	 2.37882004983288E-02 
416	 0.023896499948147 
417	 2.39472285374173E-02 
418	 2.39933410835314E-02 
419	 2.41072618715164E-02 
420	 2.41746725998091E-02 
421	 2.42660450749689E-02 
422	 2.43448500999109E-02 
423	 2.42899458623217E-02 
424	 2.42623717703246E-02 
425	 2.43558449204999E-02 
426	 2.45374292092946E-02 
427	 2.45271656115199E-02 
428	 2.46164164233968E-02 
429	 2.46788162233163E-02 
430	 2.45443558120551E-02 
431	 2.45933520482791E-02 
432	 0.024741306246025 
433	 2.47861394500371E-02 
434	 2.45031563599273E-02 
435	 2.45584894070399E-02 
436	 2.46548865354064E-02 
437	 2.45823696207761E-02 
438	 2.46587806363487E-02 
439	 2.46092908831266E-02 
440	 2.45547473368195E-02 
441	 2.46717123076943E-02 
442	 2.46437542671701E-02 
443	 2.46461108223253E-02 
444	 2.47077005558354E-02 
445	 2.47012209800771E-02 
446	 2.47987576071063E-02 
447	 2.48439324150611E-02 
448	 2.47642230706227E-02 
449	 2.48358926031259E-02 
450	 2.48781791671975E-02 
451	 2.48609291323749E-02 
452	 2.48309871679386E-02 
453	 2.48870880745721E-02 
454	 2.49639819734262E-02 
455	 2.50128920583094E-02 
456	 2.50223263490301E-02 
457	 0.025036854733975 
458	 0.025053359540028 
459	 2.50529277954357E-02 
460	 2.49979271630365E-02 
461	 2.49911133176108E-02 
462	 2.49914163346671E-02 
463	 2.49043822812907E-02 
464	 2.49069513901804E-02 
465	 2.49915910240333E-02 
466	 2.50769342037272E-02 
467	 2.50036834210941E-02 
468	 2.49948171706045E-02 
469	 2.49827120360816E-02 
470	 2.48879220167068E-02 
471	 2.49131390171873E-02 
472	 0.024939355067828 
473	 0.024953017352171 
474	 2.50120829776945E-02 
475	 2.50470172167912E-02 
476	 2.50748473450693E-02 
477	 2.50928947112043E-02 
478	 2.50262740565524E-02 
479	 2.50920109448564E-02 
480	 2.52096567493745E-02 
481	 2.52275385692019E-02 
482	 2.52053641999209E-02 
483	 2.52254013006607E-02 
484	 2.53030941249696E-02 
485	 2.53799257312386E-02 
486	 2.53428946544789E-02 
487	 2.53435564632621E-02 
488	 0.025478087401688 
489	 2.55606295065057E-02 
490	 0.025637886886615 
491	 2.57450659884999E-02 
492	 2.58900108421764E-02 
493	 2.58929096247375E-02 
494	 0.025981670884375 
495	 2.62024550413553E-02 
496	 2.63427362141533E-02 
497	 2.64731433263587E-02 
498	 2.66710321746651E-02 
499	 0.02696799079551 
500	 2.72267861817276E-02 
501	 2.75463858870786E-02 
502	 2.79253999305072E-02 
503	 2.83026037345008E-02 
504	 2.86946040588015E-02 
505	 2.90812160636688E-02 
506	 2.95062449377444E-02 
507	 3.01212705320047E-02 
508	 3.08467626989627E-02 
509	 3.15597908311899E-02 
510	 3.22052235684615E-02 
511	 3.30744045031682E-02 
512	 3.41024497021566E-02 
513	 3.51586706078416E-02 
514	 3.60989977688555E-02 
515	 3.73319282517557E-02 
516	 0.038756517641933 
517	 4.02350535008907E-02 
518	 4.18025390934232E-02 
519	 4.34421978648181E-02 
520	 4.50707751201605E-02 
521	 4.66253940563614E-02 
522	 4.82667612675566E-02 
523	 4.99984889540616E-02 
524	 5.17405865606136E-02 
525	 5.33159510295211E-02 
526	 5.49975662643658E-02 
527	 5.67272229823188E-02 
528	 5.83730124448951E-02 
529	 5.98194784923869E-02 
530	 6.11800822165743E-02 
531	 6.24441636523443E-02 
532	 6.35557223004768E-02 
533	 6.46807870019061E-02 
534	 6.57596763129382E-02 
535	 6.66914862412375E-02 
536	 6.73534982155129E-02 
537	 6.80421575776202E-02 
538	 6.87515028150605E-02 
539	 6.93686460195938E-02 
540	 6.97671764798966E-02 
541	 7.02814297151205E-02 
542	 7.08738361314463E-02 
543	 7.12007093535423E-02 
544	 7.15933969963133E-02 
545	 7.19847288884474E-02 
546	 7.23116863380592E-02 
547	 7.26724960121665E-02 
548	 7.30313303275792E-02 
549	 7.33709917807595E-02 
550	 7.36681359771018E-02 
551	 0.073837046622425 
552	 7.39198667113718E-02 
553	 7.39228384113895E-02 
554	 7.37969087300459E-02 
555	 7.35940865749409E-02 
556	 7.33315086853294E-02 
557	 7.29934453065842E-02 
558	 7.25011129828868E-02 
559	 7.18305624317556E-02 
560	 7.10302250480044E-02 
561	 7.01890672607947E-02 
562	 6.93180185049308E-02 
563	 6.83333595668798E-02 
564	 6.72079141985989E-02 
565	 0.066038169634194 
566	 6.48957827340724E-02 
567	 6.37361312203345E-02 
568	 6.24955330191928E-02 
569	 6.12485495958966E-02 
570	 5.99596408836165E-02 
571	 5.87115704496621E-02 
572	 5.76738993989716E-02 
573	 5.65380968551067E-02 
574	 5.54722619728838E-02 
575	 5.45922802374618E-02 
576	 5.36808974932488E-02 
577	 5.28138816693101E-02 
578	 5.20255961101026E-02 
579	 5.13231210834899E-02 
580	 5.06644119519158E-02 
581	 5.00495879703458E-02 
582	 4.94595104853079E-02 
583	 4.88428198741843E-02 
584	 4.83561362761076E-02 
585	 0.047930775274679 
586	 4.74817489556084E-02 
587	 4.71069049797306E-02 
588	 4.66893014984594E-02 
589	 4.62496850901315E-02 
590	 4.59096867574911E-02 
591	 4.55517210445365E-02 
592	 4.52311809590214E-02 
593	 4.49698892718548E-02 
594	 4.47111304808229E-02 
595	 4.44518673533853E-02 
596	 4.42048119860083E-02 
597	 4.39923564153115E-02 
598	 4.38615219202576E-02 
599	 4.36952494861383E-02 
600	 4.34646459622391E-02 
601	 4.32387366823592E-02 
602	 4.30862260723345E-02 
603	 4.29160616767644E-02 
604	 4.26564257025047E-02 
605	 4.23652386671437E-02 
606	 4.21091338158161E-02 
607	 4.18397898020876E-02 
608	 4.14702868501114E-02 
609	 4.11023691481931E-02 
610	 4.07825125655486E-02 
611	 4.04949581339409E-02 
612	 4.01450710001548E-02 
613	 3.98089404423717E-02 
614	 0.039466851175708 
615	 3.91004717893719E-02 
616	 3.87903469968209E-02 
617	 3.84590694950053E-02 
618	 3.81079433504944E-02 
619	 3.77930010951269E-02 
620	 3.75624028092758E-02 
621	 0.037382527068472 
622	 3.72226954639902E-02 
623	 3.70816483689818E-02 
624	 0.036956031392392 
625	 3.68641343811194E-02 
626	 3.68235220099397E-02 
627	 3.68126736454212E-02 
628	 3.67852105166895E-02 
629	 3.67322299750524E-02 
630	 0.036683645949385 
631	 0.036671659152813 
632	 3.66140234367856E-02 
633	 3.64502880468591E-02 
634	 0.036219850713904 
635	 3.60291564177411E-02 
636	 3.58048013849684E-02 
637	 3.54128060942449E-02 
638	 3.49340347781094E-02 
639	 3.44503376429667E-02 
640	 3.39984775267166E-02 
641	 3.35703826916497E-02 
642	 0.033101440978654 
643	 3.25815230834839E-02 
644	 3.20553956695583E-02 
645	 3.17013590752962E-02 
646	 3.14227394178909E-02 
647	 3.11354276803343E-02 
648	 3.07891512363646E-02 
649	 3.05737305040896E-02 
650	 3.04197983052741E-02 
651	 3.02836188745965E-02 
652	 3.02066833652413E-02 
653	 3.02151410690333E-02 
654	 3.02181433996869E-02 
655	 3.01398109066188E-02 
656	 3.01512238065237E-02 
657	 3.00795648648973E-02 
658	 2.99090222467368E-02 
659	 2.97463208808498E-02 
660	 2.96499486274411E-02 
661	 2.95340248594363E-02 
662	 2.93805093960755E-02 
663	 2.93413599648901E-02 
664	 2.92159287622626E-02 
665	 2.90912573598761E-02 
666	 2.91018509095815E-02 
667	 2.90984889640382E-02 
668	 2.90285756066517E-02 
669	 2.89675191374147E-02 
670	 2.90843576708139E-02 
671	 2.91536347231574E-02 
672	 2.92654524392402E-02 
673	 2.94578928726248E-02 
674	 2.95025219551537E-02 
675	 2.96734071564822E-02 
676	 2.99155167614919E-02 
677	 3.00933207428462E-02 
678	 3.04248877131026E-02 
679	 3.07590448678739E-02 
680	 3.10747948188448E-02 
681	 3.15028181918789E-02 
682	 3.19517350891187E-02 
683	 3.24461729310309E-02 
684	 3.30314731319382E-02 
685	 3.37273218148528E-02 
686	 3.47059602633257E-02 
687	 3.59514254986714E-02 
688	 3.72166516856971E-02 
689	 3.83964152385428E-02 
690	 3.98410918386854E-02 
691	 4.17541824163124E-02 
692	 4.40431217414434E-02 
693	 4.68995693991855E-02 
694	 5.04019980013304E-02 
695	 5.45389797034639E-02 
696	 0.05917986159496 
697	 6.45285922980816E-02 
698	 7.05496167962684E-02 
699	 7.70939717912561E-02 
700	 8.42961893865892E-02 
701	 9.20042036653989E-02 
702	 0.100148782180088 
703	 0.108743525477229 
704	 0.117351094839999 
705	 0.126147866642767 
706	 0.135373031443379 
707	 0.144786285156718 
708	 0.154374062465468 
709	 0.164176161570394 
710	 0.174186537088593 
711	 0.184435029262077 
712	 0.19495520028246 
713	 0.205706999740603 
714	 0.216571084994089 
715	 0.227490287657012 
716	 0.238405868936693 
717	 0.249610643747665 
718	 0.261257452732666 
719	 0.273358980698812 
720	 0.285622981588202 
721	 0.297711533360685 
722	 0.30911119861884 
723	 0.320230445914744 
724	 0.331748728226205 
725	 0.34318364282636 
726	 0.354351414932174 
727	 0.365204017478545 
728	 0.375937687916094 
729	 0.386257458385425 
730	 0.396218940900223 
731	 0.405842471891932 
732	 0.41515844739037 
733	 0.423874846651369 
734	 0.432138516901886 
735	 0.44005485193536 
736	 0.447466817000275 
737	 0.454575285922222 
738	 0.461184846042486 
739	 0.467309895137758 
740	 0.473244613716878 
741	 0.478736474547755 
742	 0.483697185207447 
743	 0.488118951980152 
744	 0.492250465599433 
745	 0.496073666718517 
746	 0.499525101824557 
747	 0.502538616946234 
748	 0.505418242884768 
749	 0.508086515888138 
750	 0.510458642168343 
751	 0.51253615250372 
752	 0.514382268638624 
753	 0.515997862053722 
754	 0.517394904687485 
755	 0.518678780927978 
756	 0.519808474967461 
757	 0.520833498612446 
758	 0.522020505398549 
759	 0.524928988029524 
760	 0.529196662281506 
761	 0.532979463573372 
762	 0.53225522582433 
763	 0.531332170194835 
764	 0.530620077080427 
765	 0.52969854464749 
766	 0.528446392318368 
767	 0.527736215502408 
768	 0.527511539855999 
769	 0.527475572420474 
770	 0.527423289730043 
771	 0.527445353614074 
772	 0.527540822519413 
773	 0.527624260419801 
774	 0.527750385693094 
775	 0.527822971037776 
776	 0.527846669214139 
777	 0.52803153221601 
778	 0.528185016836392 
779	 0.528277672841846 
780	 0.528325110995566 
781	 0.528312958155988 
782	 0.528416580222517 
783	 0.528584538373445 
784	 0.528655340824513 
785	 0.528670096259347 
786	 0.528653280715007 
787	 0.528624231120327 
788	 0.528599632006718 
789	 0.528696940496655 
790	 0.528773355438396 
791	 0.528786472192962 
792	 0.529010055072599 
793	 0.529269949030257 
794	 0.529438711686023 
795	 0.52946002480199 
796	 0.529472420850451 
797	 0.529558576489711 
798	 0.529753125526789 
799	 0.5300168476281 
800	 0.530053975456125 
801	 0.53003103482519 
802	 0.530078825706634 
803	 0.530221021722238 
804	 0.530365537355126 
805	 0.530548064171159 
806	 0.530753210452467 
807	 0.530808655411587 
808	 0.530914265240874 
809	 0.530949544268794 
810	 0.530752717359206 
811	 0.530419636902126 
812	 0.529985654573751 
813	 0.529543098929266 
814	 0.529187284737868 
815	 0.528736934082117 
816	 0.528517403763133 
817	 0.528658093482636 
818	 0.52898960393856 
819	 0.529241963021019 
820	 0.529537654524949 
821	 0.529901147371587 
822	 0.530074884244515 
823	 0.530013551299124 
824	 0.530055687745977 
825	 0.530461761460183 
826	 0.531000955402237 
827	 0.531214884375485 
828	 0.531157893717853 
829	 0.531106975039594 
830	 0.531127644060133 
831	 0.531280456466642 
832	 0.531575793226972 
833	 0.531974150928465 
834	 0.53238216708623 
835	 0.532681673013326 
836	 0.532910530723437 
837	 0.533272731465637 
838	 0.533582217430948 
839	 0.533904581718593 
840	 0.534254129488394 
841	 0.534453782906382 
842	 0.534631668536196 
843	 0.534878552428222 
844	 0.535203313006692 
845	 0.535402310799021 
846	 0.535563890319576 
847	 0.535711585988344 
848	 0.53585776470186 
849	 0.536114205915638 
850	 0.536265830631624 
851	 0.536406916983412 
852	 0.536806349166713 
853	 0.537046061822276 
854	 0.537260298377612 
855	 0.537427314977534 
856	 0.537327328421956 
857	 0.537426495635644 
858	 0.537561555034759 
859	 0.537649676218687 
860	 0.537894600231391 
861	 0.538092105278936 
862	 0.538203993906265 
863	 0.538288010386269 
864	 0.538522355323053 
865	 0.538838404710372 
866	 0.539120963880168 
867	 0.539225793920511 
868	 0.538967121815162 
869	 0.538954433483747 
870	 0.53913030637583 
871	 0.53919267217926 
872	 0.539466799608674 
873	 0.539599956966176 
874	 0.539594961316053 
875	 0.539713282209389 
876	 0.539939232746134 
877	 0.540002533980211 
878	 0.539832091028697 
879	 0.539605800171791 
880	 0.539592726935957 
881	 0.539713691669659 
882	 0.53984136700773 
883	 0.539878194223863 
884	 0.53984225005311 
885	 0.539739583872113 
886	 0.539622727972626 
887	 0.539619798207618 
888	 0.539594682548117 
889	 0.539552170180101 
890	 0.539469681158627 
891	 0.539182793636722 
892	 0.538543432123637 
893	 0.537890455037445 
894	 0.537524773473217 
895	 0.537000821902628 
896	 0.536400076017878 
897	 0.535873538818634 
898	 0.535545246991524 
899	 0.535220827567055 
900	 0.535075134550788 
901	 0.534925332442259 
902	 0.53462490573984 
903	 0.535213657671309 
904	 0.535639010823808 
905	 0.53563117063983 
906	 0.535459710190198 
907	 0.534881772589531 
908	 0.534268913748806 
909	 0.533968719540598 
910	 0.534081641169688 
911	 0.533373779983799 
912	 0.533142946352865 
913	 0.533489655433959 
914	 0.533220680265035 
915	 0.532998204669495 
916	 0.532992190442871 
917	 0.533135153148641 
918	 0.533167641013221 
919	 0.533009801416731 
920	 0.532798736263644 
921	 0.532691522281908 
922	 0.532784751149179 
923	 0.532756631299858 
924	 0.532472065436138 
925	 0.531699488178199 
926	 0.530049409885253 
927	 0.528158292663504 
928	 0.5265902831686 
929	 0.525163187623732 
930	 0.522408106927271 
931	 0.520396033523813 
932	 0.518457424986933 
933	 0.51580989909533 
934	 0.513250899029798 
935	 0.510489331548178 
936	 0.509104595570227 
937	 0.509357852602434 
938	 0.508465412396959 
939	 0.508725619967632 
940	 0.508748936308024 
941	 0.507738623309361 
942	 0.507465366244783 
943	 0.50621970870306 
944	 0.505083337416988 
945	 0.504627619385917 
946	 0.502844509901761 
947	 0.502195778317278 
948	 0.500984400279282 
949	 0.498490920203466 
950	 0.4981505544929 
951	 0.496969156480072 
952	 0.49540780823258 
953	 0.494332367362158 
954	 0.493569619097063 
955	 0.492395611363444 
956	 0.491216065821455 
957	 0.490308972669927 
958	 0.489124805194387 
959	 0.487995490359863 
960	 0.487931710775927 
961	 0.488947626293108 
962	 0.489142248906378 
963	 0.489559644112691 
964	 0.489697236369584 
965	 0.48913965444707 
966	 0.488188197841122 
967	 0.48930143544066 
968	 0.490638035660957 
969	 0.490888701465721 
970	 0.491068839681411 
971	 0.490307212113546 
972	 0.489785599382603 
973	 0.490401942020748 
974	 0.491880658968251 
975	 0.491469829458876 
976	 0.491270812869248 
977	 0.492436319862728 
978	 0.493543260383939 
979	 0.493056042091598 
980	 0.492430867930852 
981	 0.492760917770515 
982	 0.493897479189187 
983	 0.493982909598549 
984	 0.494469199204854 
985	 0.495395084274481 
986	 0.495494745730929 
987	 0.497440370542012 
988	 0.497393623806911 
989	 0.496281515743502 
990	 0.498182996133662 
991	 0.499410346924893 
992	 0.499679124707895 
993	 0.499817728015627 
994	 0.500765830868994 
995	 0.500939504514948 
996	 0.501821485096086 
997	 0.502258545660839 
998	 0.501055613327045 
999	 0.502590175909996 
1000	 0.503455296048432 
1001	 0.509187972507382 
1002	 0.50992915483194 
1003	 0.510602446799097 
1004	 0.511351636776778 
1005	 0.512012586005598 
1006	 0.512516834978342 
1007	 0.513156367902284 
1008	 0.513884550791414 
1009	 0.514608347870269 
1010	 0.515402578987453 
1011	 0.51615554265273 
1012	 0.516854060469542 
1013	 0.517365042488959 
1014	 0.517844796884344 
1015	 0.518448248863908 
1016	 0.519209569189773 
1017	 0.520120444065416 
1018	 0.520823283507927 
1019	 0.521455410993887 
1020	 0.522122103454669 
1021	 0.522673771057944 
1022	 0.523270175916484 
1023	 0.523868200119266 
1024	 0.524691171995497 
1025	 0.525470377837103 
1026	 0.525983594532794 
1027	 0.526496410529674 
1028	 0.527068804117722 
1029	 0.527529347189634 
1030	 0.52803593188658 
1031	 0.528699825881402 
1032	 0.52927287912666 
1033	 0.529798624349161 
1034	 0.530278918738072 
1035	 0.530826560421977 
1036	 0.531356621480241 
1037	 0.531845421832361 
1038	 0.532382701132643 
1039	 0.532807449208653 
1040	 0.533180869695575 
1041	 0.533627869557143 
1042	 0.534133871901369 
1043	 0.534606568293527 
1044	 0.534900284023932 
1045	 0.535291528119134 
1046	 0.535680957188351 
1047	 0.53595353231942 
1048	 0.536364954152987 
1049	 0.536767017253075 
1050	 0.537182005475083 
1051	 0.537588089476239 
1052	 0.538052905745412 
1053	 0.538509205166799 
1054	 0.538926849925264 
1055	 0.539234840452402 
1056	 0.539602716928127 
1057	 0.539937902891308 
1058	 0.540234492914055 
1059	 0.540579571304277 
1060	 0.540770169275797 
1061	 0.540972208522671 
1062	 0.541256160427848 
1063	 0.541435024425853 
1064	 0.541609882823885 
1065	 0.541782108797077 
1066	 0.541942740229836 
1067	 0.542029540020447 
1068	 0.542142985196519 
1069	 0.542205404559892 
1070	 0.542224979430496 
1071	 0.54224184953647 
1072	 0.542184645789724 
1073	 0.542171785221557 
1074	 0.54216760541824 
1075	 0.542111787616245 
1076	 0.542155322195871 
1077	 0.542090022204767 
1078	 0.541892124048562 
1079	 0.541710133710912 
1080	 0.541458844224922 
1081	 0.541250119672132 
1082	 0.54108308846323 
1083	 0.540937418294038 
1084	 0.540749905728289 
1085	 0.540529799202787 
1086	 0.540139090677927 
1087	 0.53987512550349 
1088	 0.539661382768546 
1089	 0.539313468639041 
1090	 0.539019801033332 
1091	 0.538665978320449 
1092	 0.538095493607766 
1093	 0.53746164046904 
1094	 0.536926223038316 
1095	 0.536341221500581 
1096	 0.535744872292953 
1097	 0.535236763589536 
1098	 0.534637151369778 
1099	 0.533944109767164 
1100	 0.533213869992702 
1101	 0.532625719257575 
1102	 0.532015936035286 
1103	 0.531387411492393 
1104	 0.530782936000384 
1105	 0.530028304153618 
1106	 0.529110093448293 
1107	 0.528158792132797 
1108	 0.52718334617192 
1109	 0.526093926363831 
1110	 0.52490662621938 
1111	 0.523680097645697 
1112	 0.522337772662178 
1113	 0.520904194166072 
1114	 0.519274416537696 
1115	 0.517640713101766 
1116	 0.51593952927346 
1117	 0.513991184818673 
1118	 0.5120120240357 
1119	 0.510128057797922 
1120	 0.508172062083288 
1121	 0.506314776830163 
1122	 0.504639618177485 
1123	 0.503026611134453 
1124	 0.501443417282649 
1125	 0.499870020833505 
1126	 0.498510884420909 
1127	 0.497466358581009 
1128	 0.496282698986719 
1129	 0.495495240031546 
1130	 0.494202948064314 
1131	 0.492804469246767 
1132	 0.491159581570463 
1133	 0.48928336510307 
1134	 0.487309609610193 
1135	 0.485319536637418 
1136	 0.483207018447082 
1137	 0.480991754080758 
1138	 0.478648430572847 
1139	 0.476048967062259 
1140	 0.473199568400412 
1141	 0.470240305565109 
1142	 0.467285645402677 
1143	 0.464399358923234 
1144	 0.461500702863953 
1145	 0.458629019927269 
1146	 0.455725292060149 
1147	 0.453012636831693 
1148	 0.450289350366829 
1149	 0.447991231481648 
1150	 0.445939278176855 
1151	 0.444296165869087 
1152	 0.443022904371957 
1153	 0.442044486641684 
1154	 0.441450452975233 
1155	 0.440977159969843 
1156	 0.440591271882352 
1157	 0.440351220565794 
1158	 0.440037866765397 
1159	 0.43978569471968 
1160	 0.439664095885424 
1161	 0.4396786414902 
1162	 0.439585184808817 
1163	 0.439559847071322 
1164	 0.439487761442172 
1165	 0.439294089795504 
1166	 0.439190811620925 
1167	 0.439140434632672 
1168	 0.439097965814068 
1169	 0.439070177633411 
1170	 0.439091652734938 
1171	 0.439043951141214 
1172	 0.438864832611104 
1173	 0.438645179248186 
1174	 0.438463694459595 
1175	 0.438334154094592 
1176	 0.438197701941638 
1177	 0.438055699223937 
1178	 0.437948516679283 
1179	 0.437742418964452 
1180	 0.437466816867627 
1181	 0.437250118378044 
1182	 0.436968512544657 
1183	 0.436757867229897 
1184	 0.436666975360087 
1185	 0.436482405815262 
1186	 0.436251102405586 
1187	 0.436051417368081 
1188	 0.435814526853195 
1189	 0.435587468198071 
1190	 0.435470577510339 
1191	 0.435414391943426 
1192	 0.435430135412295 
1193	 0.435440594625794 
1194	 0.435428426309681 
1195	 0.435416106984567 
1196	 0.435411083399393 
1197	 0.435361526381006 
1198	 0.435405792490645 
1199	 0.435518514027436 
1200	 0.435601474411888 
1201	 0.435670666293441 
1202	 0.435837827662649 
1203	 0.436010250460295 
1204	 0.436258630749487 
1205	 0.436652655260689 
1206	 0.436995606773988 
1207	 0.437336760868891 
1208	 0.437685966328056 
1209	 0.438009289090608 
1210	 0.438403130961676 
1211	 0.438787037877498 
1212	 0.439224008402411 
1213	 0.439643727029043 
1214	 0.440099395926422 
1215	 0.440504138846149 
1216	 0.440887640116468 
1217	 0.441277826254701 
1218	 0.44162887489113 
1219	 0.442040284692986 
1220	 0.442454775579433 
1221	 0.442918685525333 
1222	 0.443491225566228 
1223	 0.443966918600041 
1224	 0.444434510450563 
1225	 0.444889025845517 
1226	 0.445276426291544 
1227	 0.445683758656068 
1228	 0.446096805782558 
1229	 0.446508141691115 
1230	 0.44696461331345 
1231	 0.447407972797126 
1232	 0.447826213665232 
1233	 0.448249125590935 
1234	 0.448689019239909 
1235	 0.449099028718759 
1236	 0.449526676071886 
1237	 0.450036352483095 
1238	 0.450435552093566 
1239	 0.450772114697484 
1240	 0.451110361344657 
1241	 0.451405279970797 
1242	 0.451705069310087 
1243	 0.451981368381098 
1244	 0.45227859869521 
1245	 0.452554789595797 
1246	 0.45286463748554 
1247	 0.453247458988102 
1248	 0.453563501177096 
1249	 0.453894930748512 
1250	 0.454171484575414 
1251	 0.45434184387925 
1252	 0.454562177427748 
1253	 0.45476365841859 
1254	 0.45494725327234 
1255	 0.455132509738283 
1256	 0.455326032292754 
1257	 0.455497829792311 
1258	 0.455668096354452 
1259	 0.455801846698199 
1260	 0.455915005487411 
1261	 0.456017870217496 
1262	 0.456110970171705 
1263	 0.456146851371871 
1264	 0.456139660025256 
1265	 0.456132155921708 
1266	 0.456040183051091 
1267	 0.456003795597041 
1268	 0.456055282405125 
1269	 0.456007997100237 
1270	 0.455917443688309 
1271	 0.455825615581406 
1272	 0.455667488651562 
1273	 0.455512548312524 
1274	 0.45537795206102 
1275	 0.455323933443273 
1276	 0.455067147898122 
1277	 0.454699145235467 
1278	 0.454414764073372 
1279	 0.45405052610951 
1280	 0.453720054651003 
1281	 0.453513523531064 
1282	 0.453145404086732 
1283	 0.45269421552953 
1284	 0.45218719876929 
1285	 0.45158033479727 
1286	 0.451010986610848 
1287	 0.450404094082776 
1288	 0.449779054360709 
1289	 0.449214366756017 
1290	 0.448534157242917 
1291	 0.447791518853585 
1292	 0.446973298556027 
1293	 0.446006279989191 
1294	 0.445086093515083 
1295	 0.444167158174295 
1296	 0.443181614051717 
1297	 0.442110443183528 
1298	 0.441024543672554 
1299	 0.439852990178961 
1300	 0.438548473613713 
1301	 0.437237570741955 
1302	 0.435913938717523 
1303	 0.434498852393495 
1304	 0.432959990359921 
1305	 0.431448409445222 
1306	 0.429930594473482 
1307	 0.428327290369402 
1308	 0.426694497885762 
1309	 0.424974578201245 
1310	 0.423137995669618 
1311	 0.421294094983263 
1312	 0.419398289655479 
1313	 0.417468111786299 
1314	 0.41549916260348 
1315	 0.413510854393626 
1316	 0.411518673262748 
1317	 0.409455201489151 
1318	 0.407323088926015 
1319	 0.405187393622392 
1320	 0.403007389741453 
1321	 0.400750651127885 
1322	 0.3984615325668 
1323	 0.396134166949048 
1324	 0.393714019366089 
1325	 0.391131289161558 
1326	 0.388589671262466 
1327	 0.385928327271035 
1328	 0.383323854688163 
1329	 0.380721219456052 
1330	 0.378077857984979 
1331	 0.375448673254888 
1332	 0.372810482413199 
1333	 0.370139090006892 
1334	 0.367575073632676 
1335	 0.364989254115431 
1336	 0.36262662734535 
1337	 0.360388292586244 
1338	 0.358211220003115 
1339	 0.356163822413184 
1340	 0.35408404295314 
1341	 0.351797730958183 
1342	 0.349621911542944 
1343	 0.347269304916781 
1344	 0.34490755947467 
1345	 0.342299605342156 
1346	 0.339683984988893 
1347	 0.336826141086231 
1348	 0.333756192358374 
1349	 0.33078546820798 
1350	 0.327954599758136 
1351	 0.324692576881475 
1352	 0.322063672344743 
1353	 0.318193032744946 
1354	 0.314033477845137 
1355	 0.308743697988896 
1356	 0.303762417767507 
1357	 0.297150689565012 
1358	 0.294662499215789 
1359	 0.287795939360716 
1360	 0.285576957359287 
1361	 0.281100299399028 
1362	 0.286752379705907 
1363	 0.282364387505627 
1364	 0.281289554294216 
1365	 0.271409945391934 
1366	 0.245562147821457 
1367	 0.233867770035094 
1368	 0.230882737821855 
1369	 0.228853720331947 
1370	 0.235736931560432 
1371	 0.233820491741702 
1372	 0.226721778437983 
1373	 0.224116345546323 
1374	 0.22178865657703 
1375	 0.217018677465781 
1376	 0.21831589848643 
1377	 0.219872735245497 
1378	 0.217889211065843 
1379	 0.21540764905555 
1380	 0.209395427590965 
1381	 0.199196511767817 
1382	 0.191387430616279 
1383	 0.18266921241719 
1384	 0.175616423665742 
1385	 0.170270004327425 
1386	 0.16587826217505 
1387	 0.162952307909635 
1388	 0.159272398569027 
1389	 0.157035731418752 
1390	 0.153270579291957 
1391	 0.148351582800966 
1392	 0.144490497448098 
1393	 0.141218309986232 
1394	 0.136578064321042 
1395	 0.130315066423427 
1396	 0.126626105026932 
1397	 0.123410484814903 
1398	 0.120339796533534 
1399	 0.119638430960306 
1400	 0.117087685431575 
1401	 0.113126379221639 
1402	 0.109776032637922 
1403	 0.106360715989569 
1404	 0.103392596942101 
1405	 0.101025703843917 
1406	 9.85057649207055E-02 
1407	 9.58187399270027E-02 
1408	 9.40066263786134E-02 
1409	 9.26432321784377E-02 
1410	 9.10908142185692E-02 
1411	 9.00703658131928E-02 
1412	 0.089807258183625 
1413	 8.85742840621985E-02 
1414	 8.69895755185024E-02 
1415	 8.60403361988566E-02 
1416	 8.49022921710049E-02 
1417	 8.41904773989969E-02 
1418	 8.40692650223248E-02 
1419	 8.34871616373442E-02 
1420	 8.26938445722752E-02 
1421	 8.21569327284355E-02 
1422	 8.16957734518518E-02 
1423	 8.11241428112849E-02 
1424	 8.06508716448784E-02 
1425	 8.00653463340412E-02 
1426	 7.91329629468713E-02 
1427	 7.86632014747432E-02 
1428	 7.83187740817334E-02 
1429	 7.80685246394048E-02 
1430	 0.078229114917605 
1431	 7.80304191156773E-02 
1432	 7.76760414945009E-02 
1433	 7.73328997451162E-02 
1434	 7.66761538006324E-02 
1435	 7.63504677752863E-02 
1436	 7.63509322998097E-02 
1437	 7.61346444544429E-02 
1438	 7.58485194569047E-02 
1439	 7.57298004572421E-02 
1440	 7.55444620694651E-02 
1441	 7.54417026721846E-02 
1442	 7.54382298499675E-02 
1443	 7.56398149655288E-02 
1444	 0.075793884033326 
1445	 7.58582083936283E-02 
1446	 7.59424063142394E-02 
1447	 7.60706250239086E-02 
1448	 7.62242442187387E-02 
1449	 7.63575486403776E-02 
1450	 7.64654650690443E-02 
1451	 7.66068459472645E-02 
1452	 7.67480324239743E-02 
1453	 7.67860495529056E-02 
1454	 7.70085574470353E-02 
1455	 7.73897935364763E-02 
1456	 7.76127384688393E-02 
1457	 7.78531400997429E-02 
1458	 7.80533210873675E-02 
1459	 7.81946486649289E-02 
1460	 7.83426749209747E-02 
1461	 7.84746018711651E-02 
1462	 7.86677306302583E-02 
1463	 7.88510330135291E-02 
1464	 7.90987267430361E-02 
1465	 7.94816603342768E-02 
1466	 7.98130168600413E-02 
1467	 7.99694409919489E-02 
1468	 8.04886989431521E-02 
1469	 8.12077716785223E-02 
1470	 8.19136375076248E-02 
1471	 8.28927879182214E-02 
1472	 8.37089831325251E-02 
1473	 8.42650394457336E-02 
1474	 8.50414380054646E-02 
1475	 8.58958357153581E-02 
1476	 8.67189442778356E-02 
1477	 8.75669102015946E-02 
1478	 8.84699537143334E-02 
1479	 8.93459688884693E-02 
1480	 0.090278984701506 
1481	 9.12496902632202E-02 
1482	 9.22720218337282E-02 
1483	 9.33339050583472E-02 
1484	 9.43650611259259E-02 
1485	 9.53520539043228E-02 
1486	 9.64393765344694E-02 
1487	 9.75453848240914E-02 
1488	 9.86677660740169E-02 
1489	 9.97033594981771E-02 
1490	 0.100785909802111 
1491	 0.101865778441616 
1492	 0.102921529138743 
1493	 0.104011841580385 
1494	 0.105134084270258 
1495	 0.106200500376596 
1496	 0.107189466260305 
1497	 0.108261435268694 
1498	 0.109417967822544 
1499	 0.110492573145019 
1500	 0.111531563013048 
1501	 0.11268931290114 
1502	 0.113874288965052 
1503	 0.115099876990258 
1504	 0.116460075596882 
1505	 0.117685519286996 
1506	 0.118844462074215 
1507	 0.120034844699691 
1508	 0.121196767730333 
1509	 0.122367175098591 
1510	 0.123540577545966 
1511	 0.124736443101166 
1512	 0.125943913749675 
1513	 0.127141503219764 
1514	 0.128349764299303 
1515	 0.129588930966795 
1516	 0.130824818797572 
1517	 0.132103517860666 
1518	 0.133489929591609 
1519	 0.134769297311405 
1520	 0.13599738561698 
1521	 0.137270531131652 
1522	 0.138554309863351 
1523	 0.139783690991487 
1524	 0.140986663473593 
1525	 0.142246483406418 
1526	 0.143473077387154 
1527	 0.144738991481022 
1528	 0.146135751818614 
1529	 0.147431489382038 
1530	 0.148631972111524 
1531	 0.149905357949167 
1532	 0.151218015773435 
1533	 0.15248662539383 
1534	 0.153769313759384 
1535	 0.155044808833153 
1536	 0.156271131421372 
1537	 0.157519428794492 
1538	 0.158791466529803 
1539	 0.16006641339336 
1540	 0.161364431220629 
1541	 0.162617814157366 
1542	 0.163839707843016 
1543	 0.165089359896159 
1544	 0.166327988685882 
1545	 0.167557862341926 
1546	 0.16883912344175 
1547	 0.170070638560257 
1548	 0.171223532623035 
1549	 0.172425849511792 
1550	 0.173634707476378 
1551	 0.174860443950002 
1552	 0.176161327566051 
1553	 0.177396090894757 
1554	 0.178626594079865 
1555	 0.179805443473122 
1556	 0.180863726918838 
1557	 0.181998443856473 
1558	 0.18317685225487 
1559	 0.184311189846196 
1560	 0.185489052281293 
1561	 0.186625650664356 
1562	 0.187705012133156 
1563	 0.18876951419578 
1564	 0.189807194132158 
1565	 0.19085854867525 
1566	 0.191921761714848 
1567	 0.192947556349991 
1568	 0.194029262491028 
1569	 0.195167517065156 
1570	 0.196231309784815 
1571	 0.197272121267308 
1572	 0.198338503696 
1573	 0.19937834174737 
1574	 0.200415615421774 
1575	 0.201459017532166 
1576	 0.202508424501335 
1577	 0.203522663847876 
1578	 0.204539371983565 
1579	 0.205587533783752 
1580	 0.20655741458683 
1581	 0.207444032428885 
1582	 0.208413397030347 
1583	 0.209400842665769 
1584	 0.210348420329435 
1585	 0.211337927251982 
1586	 0.212227869231778 
1587	 0.213055008689245 
1588	 0.213862468915954 
1589	 0.214584473657534 
1590	 0.215446891148085 
1591	 0.216356672258593 
1592	 0.217207150094269 
1593	 0.218137895494653 
1594	 0.218966896168539 
1595	 0.219684738670501 
1596	 0.220472701336525 
1597	 0.221282203645074 
1598	 0.222084765977339 
1599	 0.222890484419095 
1600	 0.223679041937866 
1601	 0.224471475777596 
1602	 0.225262257652061 
1603	 0.22602579236555 
1604	 0.226820698131092 
1605	 0.227672550677533 
1606	 0.228389676652442 
1607	 0.229026759833116 
1608	 0.229736727838484 
1609	 0.230388588073625 
1610	 0.231079878023679 
1611	 0.231864353405092 
1612	 0.232544827566182 
1613	 0.233142540585924 
1614	 0.233784378798674 
1615	 0.234406284211211 
1616	 0.235080821624749 
1617	 0.235805249650484 
1618	 0.236454969259536 
1619	 0.237107187386952 
1620	 0.237737026666902 
1621	 0.238314453839833 
1622	 0.238891199641069 
1623	 0.239504451797109 
1624	 0.240022503925891 
1625	 0.240457353758958 
1626	 0.240923335399435 
1627	 0.241332839205143 
1628	 0.241843548177335 
1629	 0.242391879645931 
1630	 0.24297466528087 
1631	 0.243680780523787 
1632	 0.244221854205692 
1633	 0.244712058236668 
1634	 0.245206836332313 
1635	 0.245585071637756 
1636	 0.24609786787534 
1637	 0.246746797802993 
1638	 0.247201517052499 
1639	 0.247594315987168 
1640	 0.248021198685997 
1641	 0.248335335216441 
1642	 0.24873473676154 
1643	 0.249241209793371 
1644	 0.249646560047964 
1645	 0.249974088720851 
1646	 0.250367115803341 
1647	 0.250809626967694 
1648	 0.251105198863815 
1649	 0.251348967778893 
1650	 0.251622842271004 
1651	 0.251793765365616 
1652	 0.252068567169703 
1653	 0.252450626948952 
1654	 0.25271939957316 
1655	 0.252954027537723 
1656	 0.253130534691954 
1657	 0.253245777117791 
1658	 0.253383144543181 
1659	 0.253574329115901 
1660	 0.253828952370626 
1661	 0.253967609567637 
1662	 0.254072613002943 
1663	 0.254275831888797 
1664	 0.254491453766566 
1665	 0.254649153166954 
1666	 0.25471457578552 
1667	 0.254700231785066 
1668	 0.254721161607059 
1669	 0.254836243875904 
1670	 0.255044777007389 
1671	 0.255291539280806 
1672	 0.255366472738663 
1673	 0.255353598509197 
1674	 0.255448195815869 
1675	 0.255478721762828 
1676	 0.255507256970847 
1677	 0.255602598516821 
1678	 0.255531919241804 
1679	 0.255402764820283 
1680	 0.255320540813658 
1681	 0.255148374848682 
1682	 0.255015699395924 
1683	 0.254969872753207 
1684	 0.254897554621101 
1685	 0.25472584916091 
1686	 0.254419948550434 
1687	 0.254063774625617 
1688	 0.253662891283175 
1689	 0.253380337994311 
1690	 0.253237712421524 
1691	 0.253018642429194 
1692	 0.252858663728428 
1693	 0.252576133128425 
1694	 0.252162689813069 
1695	 0.25179947736117 
1696	 0.251352563952597 
1697	 0.250988780322484 
1698	 0.250747355060248 
1699	 0.250392944779048 
1700	 0.249985266418452 
1701	 0.249604699682958 
1702	 0.249165154268134 
1703	 0.248782702592763 
1704	 0.248471231762389 
1705	 0.248126034999207 
1706	 0.247810688063149 
1707	 0.247405861305747 
1708	 0.246932939586283 
1709	 0.24646997777762 
1710	 0.245902154115236 
1711	 0.245463561602323 
1712	 0.245156224853413 
1713	 0.244754178449278 
1714	 0.244443560584989 
1715	 0.243931875580282 
1716	 0.243200251949578 
1717	 0.242571090887124 
1718	 0.241896941957375 
1719	 0.241217804935325 
1720	 0.2405666186854 
1721	 0.239942284188184 
1722	 0.239272813130166 
1723	 0.238635489858974 
1724	 0.238101394794139 
1725	 0.237438724490156 
1726	 0.236649654525574 
1727	 0.236016077978851 
1728	 0.235422169307193 
1729	 0.234786912763725 
1730	 0.234258782152947 
1731	 0.233484478581379 
1732	 0.232750654994894 
1733	 0.232027832429419 
1734	 0.231297341040445 
1735	 0.230636910507859 
1736	 0.22986235387644 
1737	 0.228981293335125 
1738	 0.228230002911153 
1739	 0.22752133874965 
1740	 0.226660202356279 
1741	 0.22584165261475 
1742	 0.224948373003478 
1743	 0.223825241556534 
1744	 0.222836983462179 
1745	 0.221985906945864 
1746	 0.22101071082168 
1747	 0.220065967435263 
1748	 0.219292045006595 
1749	 0.218563309224926 
1750	 0.217789904899995 
1751	 0.217043241445959 
1752	 0.21620408659189 
1753	 0.21520045558293 
1754	 0.214147364994318 
1755	 0.213032878671544 
1756	 0.211970794831935 
1757	 0.210932626495121 
1758	 0.209977285290004 
1759	 0.209254837158509 
1760	 0.208310107305446 
1761	 0.20712292721516 
1762	 0.206261701075688 
1763	 0.205524405975782 
1764	 0.204734107385934 
1765	 0.204154766617371 
1766	 0.203426463441945 
1767	 0.202568285275229 
1768	 0.201712360415731 
1769	 0.200813527612398 
1770	 0.200062261577509 
1771	 0.199217089139693 
1772	 0.198471748776233 
1773	 0.197963822605615 
1774	 0.197164509955622 
1775	 0.196554920851445 
1776	 0.195809958841343 
1777	 0.195280319854289 
1778	 0.19514157919205 
1779	 0.194845873309397 
1780	 0.1944931242845 
1781	 0.19401550349491 
1782	 0.193195636698861 
1783	 0.192400863458841 
1784	 0.192024384270754 
1785	 0.191853186159901 
1786	 0.191583608921021 
1787	 0.19147464385355 
1788	 0.191211414774225 
1789	 0.190630252912376 
1790	 0.190458882697213 
1791	 0.190074978884218 
1792	 0.189261698857925 
1793	 0.188684391634575 
1794	 0.187997289111858 
1795	 0.187333759496838 
1796	 0.187025001858354 
1797	 0.186716982649459 
1798	 0.186263973052717 
1799	 0.186007526869482 
1800	 0.18577578441218 
1801	 0.184437310046759 
1802	 0.183943190655396 
1803	 0.183396618208611 
1804	 0.182561786460426 
1805	 0.181918893752638 
1806	 0.181507073311935 
1807	 0.180746988751426 
1808	 0.179841248930836 
1809	 0.178546621540315 
1810	 0.177697518400665 
1811	 0.176526202357497 
1812	 0.176272818688235 
1813	 0.177306154897775 
1814	 0.177464025707092 
1815	 0.178072837818244 
1816	 0.178225475855552 
1817	 0.17785982410743 
1818	 0.177346522217497 
1819	 0.176550453530502 
1820	 0.175501418179473 
1821	 0.174103787466153 
1822	 0.171599690677525 
1823	 0.169672380661085 
1824	 0.16737701345197 
1825	 0.165527469759569 
1826	 0.164383125791897 
1827	 0.162584068739224 
1828	 0.160620831812006 
1829	 0.157451338286306 
1830	 0.158172434045266 
1831	 0.163051596915645 
1832	 0.167645604897177 
1833	 0.186845538522233 
1834	 0.197835152406759 
1835	 0.19257068365379 
1836	 0.192874431015348 
1837	 0.173805054263368 
1838	 0.167683349516393 
1839	 0.168677170122152 
1840	 0.187164652260976 
1841	 0.184841877984952 
1842	 0.182051849776473 
1843	 0.178835048086062 
1844	 0.161388477453384 
1845	 0.154680758668913 
1846	 0.147835349932455 
1847	 0.15468802024993 
1848	 0.168253956315521 
1849	 0.195243521767181 
1850	 0.201857944593886 
1851	 0.217082158281505 
1852	 0.214618772832188 
1853	 0.17744249574578 
1854	 0.169115945397862 
1855	 0.17836435936635 
1856	 0.173654731324923 
1857	 0.158662083788899 
1858	 0.173833288933195 
1859	 0.160897687153049 
1860	 0.12680503223175 
1861	 0.115603199261985 
1862	 0.102272879469531 
1863	 9.83521360997728E-02 
1864	 0.112246690172149 
1865	 0.117659391997282 
1866	 0.12556630822643 
1867	 0.132236662750061 
1868	 0.126347794913969 
1869	 0.11486908117933 
1870	 0.122093284732598 
1871	 0.153554169057811 
1872	 0.144408633332368 
1873	 0.136434698878836 
1874	 0.115987806711345 
1875	 6.26534048861126E-02 
1876	 4.42076417355009E-02 
1877	 3.05938198673113E-02 
1878	 4.19425448175736E-02 
1879	 5.24140372774868E-02 
1880	 5.13340839824207E-02 
1881	 5.45497081721742E-02 
1882	 0.061148323915335 
1883	 6.08703041857245E-02 
1884	 0.060225384688356 
1885	 5.81051609584436E-02 
1886	 5.51842314225006E-02 
1887	 4.42295145359833E-02 
1888	 0.039017933929643 
1889	 4.17505569614366E-02 
1890	 4.03398488398066E-02 
1891	 3.92755177124191E-02 
1892	 4.18433302460356E-02 
1893	 4.58088207575874E-02 
1894	 4.51331514792907E-02 
1895	 4.65071794413195E-02 
1896	 4.83954948639946E-02 
1897	 4.42495993345505E-02 
1898	 4.48047483081945E-02 
1899	 5.31484853096738E-02 
1900	 5.81897412472772E-02 
1901	 0.055343151316768 
1902	 3.58993910889186E-02 
1903	 3.66784919720026E-02 
1904	 4.44621815790187E-02 
1905	 4.24965032542644E-02 
1906	 5.17061967986469E-02 
1907	 5.77311519380544E-02 
1908	 4.27169287550629E-02 
1909	 1.64746044512087E-02 
1910	 3.24457316773041E-03 
1911	 2.97420757182258E-03 
1912	 9.87250899642568E-03 
1913	 2.56376510732518E-02 
1914	 2.97117142013089E-02 
1915	 3.68478128446788E-02 
1916	 3.66901328627461E-02 
1917	 3.04083658860627E-02 
1918	 2.67092379194772E-02 
1919	 2.42245007672339E-02 
1920	 0.019755846866611 
1921	 1.91625752683462E-02 
1922	 0.018330807863873 
1923	 1.94739999784387E-02 
1924	 2.52008014486366E-02 
1925	 2.71412774304604E-02 
1926	 2.73701554181695E-02 
1927	 0.028130666113038 
1928	 2.89177815414429E-02 
1929	 2.80732564298715E-02 
1930	 0.028062901905635 
1931	 2.90916219089789E-02 
1932	 2.80705056624156E-02 
1933	 2.62411412905652E-02 
1934	 2.46453471464192E-02 
1935	 2.21937282633845E-02 
1936	 2.10388264203181E-02 
1937	 1.96281693677808E-02 
1938	 1.92700706407478E-02 
1939	 1.98252260423559E-02 
1940	 2.01223484946678E-02 
1941	 1.99110192004165E-02 
1942	 2.11302084417459E-02 
1943	 2.14960201939134E-02 
1944	 0.02104561929199 
1945	 2.10658747588556E-02 
1946	 2.11037983782012E-02 
1947	 2.13905548083418E-02 
1948	 2.17414639730779E-02 
1949	 2.22549912398323E-02 
1950	 2.31758759437906E-02 
1951	 2.40547328408393E-02 
1952	 2.38887248926049E-02 
1953	 2.36403621443901E-02 
1954	 0.024296372510448 
1955	 2.43280367831635E-02 
1956	 2.40110722033999E-02 
1957	 2.47996144230376E-02 
1958	 2.48967867474937E-02 
1959	 2.38227389022226E-02 
1960	 2.38463050424767E-02 
1961	 2.45272482709159E-02 
1962	 2.46306922660143E-02 
1963	 2.50301137966378E-02 
1964	 2.55220948642996E-02 
1965	 2.55213173027892E-02 
1966	 0.02592339651964 
1967	 2.63290681972798E-02 
1968	 2.64910722065639E-02 
1969	 2.65993653981612E-02 
1970	 2.66723669057863E-02 
1971	 2.68302167922359E-02 
1972	 2.68338249711621E-02 
1973	 2.70244553725776E-02 
1974	 0.027496646636755 
1975	 2.77838607375977E-02 
1976	 2.79077307155884E-02 
1977	 2.79447081098238E-02 
1978	 2.82003673244132E-02 
1979	 2.85145392997786E-02 
1980	 2.85966784285429E-02 
1981	 2.89331060404049E-02 
1982	 2.92457882283674E-02 
1983	 2.95053933260688E-02 
1984	 2.96837910717481E-02 
1985	 3.00795975351904E-02 
1986	 0.030511087264024 
1987	 3.11425133074915E-02 
1988	 3.15550590890051E-02 
1989	 3.16986130345693E-02 
1990	 0.031883413214115 
1991	 3.19554672954508E-02 
1992	 3.20864992759171E-02 
1993	 3.24235089768044E-02 
1994	 3.25587417717912E-02 
1995	 3.27155634805063E-02 
1996	 3.26767774434228E-02 
1997	 3.26995496189271E-02 
1998	 3.27721353632243E-02 
1999	 3.35584156936568E-02 
2000	 3.41063998329936E-02 
2001	 3.42951032284476E-02 
2002	 3.48953518680068E-02 
2003	 3.48637252379976E-02 
2004	 3.49678832973269E-02 
2005	 3.52185123544586E-02 
2006	 3.55548168358667E-02 
2007	 3.58248422182427E-02 
2008	 3.64484046281553E-02 
2009	 3.70111253724393E-02 
2010	 3.78835320912343E-02 
2011	 3.82386859063089E-02 
2012	 3.84758313766764E-02 
2013	 3.88520564924948E-02 
2014	 3.89360110774547E-02 
2015	 0.039538206088519 
2016	 4.03602118242421E-02 
2017	 4.09943352017038E-02 
2018	 4.11483948738654E-02 
2019	 4.13398328856186E-02 
2020	 4.13421595395082E-02 
2021	 4.14643211824394E-02 
2022	 4.16137276077711E-02 
2023	 4.21612606559043E-02 
2024	 4.26123595121812E-02 
2025	 4.26054109947351E-02 
2026	 4.30311194672723E-02 
2027	 4.34527976236331E-02 
2028	 4.38416145390921E-02 
2029	 4.47963156220971E-02 
2030	 4.53355156076483E-02 
2031	 4.55325463625372E-02 
2032	 4.58158132288941E-02 
2033	 4.60978199011591E-02 
2034	 4.62146418732162E-02 
2035	 4.65049195099975E-02 
2036	 4.69612174619235E-02 
2037	 0.047472846235016 
2038	 0.047867473504708 
2039	 4.80744036108533E-02 
2040	 4.82456294130332E-02 
2041	 4.85626813602101E-02 
2042	 4.91305579205122E-02 
2043	 4.95983387467147E-02 
2044	 0.049891470516941 
2045	 0.050303135792843 
2046	 5.07367176749718E-02 
2047	 5.10491500934473E-02 
2048	 5.12833307202006E-02 
2049	 5.18097035069668E-02 
2050	 5.23591712577358E-02 
2051	 5.24785484102923E-02 
2052	 5.28329006342084E-02 
2053	 5.34129088200487E-02 
2054	 5.38829862563927E-02 
2055	 5.45570803585717E-02 
2056	 5.51376514880414E-02 
2057	 5.58631816704235E-02 
2058	 5.63004967344832E-02 
2059	 5.67859993576152E-02 
2060	 5.71698444157803E-02 
2061	 5.80107691544517E-02 
2062	 5.82912055378893E-02 
2063	 5.86092645222798E-02 
2064	 5.91465760632365E-02 
2065	 5.94590182280668E-02 
2066	 5.96810982698184E-02 
2067	 5.99181348794131E-02 
2068	 6.03199923927638E-02 
2069	 6.04249933165836E-02 
2070	 6.06166805850972E-02 
2071	 6.14134488991535E-02 
2072	 6.21152714928549E-02 
2073	 6.28986449281242E-02 
2074	 6.33879440494873E-02 
2075	 6.40441750357548E-02 
2076	 6.44715372036627E-02 
2077	 6.42787356786161E-02 
2078	 0.064566857554649 
2079	 6.51350381595113E-02 
2080	 6.54601379998446E-02 
2081	 6.61228327111556E-02 
2082	 6.67126761815984E-02 
2083	 0.067099787055121 
2084	 6.77555844882974E-02 
2085	 6.86359439069666E-02 
2086	 6.93219820631513E-02 
2087	 6.98636596070346E-02 
2088	 7.03415376193674E-02 
2089	 7.07061767788508E-02 
2090	 7.09003998098662E-02 
2091	 7.14733429574527E-02 
2092	 0.071997248943343 
2093	 7.24478979205517E-02 
2094	 7.29154510471749E-02 
2095	 7.31500689917907E-02 
2096	 7.39333280590738E-02 
2097	 7.46764208570663E-02 
2098	 7.52177569807624E-02 
2099	 7.59074260138264E-02 
2100	 7.60997100544625E-02 
2101	 7.60304273770059E-02 
2102	 7.62648990357147E-02 
2103	 0.076575132284093 
2104	 7.69903989911602E-02 
2105	 7.75452119610549E-02 
2106	 7.83979257442784E-02 
2107	 7.91039770975868E-02 
2108	 7.96527767471936E-02 
2109	 8.02317236043161E-02 
2110	 8.06255698452914E-02 
2111	 8.09804206930598E-02 
2112	 8.13019438300449E-02 
2113	 8.14380641951458E-02 
2114	 8.17468923821723E-02 
2115	 8.23943068304767E-02 
2116	 8.30437393896793E-02 
2117	 8.36589901702051E-02 
2118	 8.44299699189827E-02 
2119	 8.51010544544784E-02 
2120	 8.57502812209327E-02 
2121	 0.086159932590674 
2122	 8.64444023565715E-02 
2123	 8.69132173765523E-02 
2124	 8.71920686815233E-02 
2125	 8.77595076681987E-02 
2126	 8.84873716302824E-02 
2127	 0.088900254531128 
2128	 8.91837103655665E-02 
2129	 8.92426537052308E-02 
2130	 0.089559962030512 
2131	 9.00491085755585E-02 
2132	 9.04803412904219E-02 
2133	 9.10166832561675E-02 
2134	 9.13687628987661E-02 
2135	 9.14774868010356E-02 
2136	 9.17720111633672E-02 
2137	 9.22766940390684E-02 
2138	 0.09239068365849 
2139	 9.27507144003569E-02 
2140	 9.30522021962583E-02 
2141	 0.093007490733904 
2142	 0.093403607569193 
2143	 9.41159551363468E-02 
2144	 9.49408048879657E-02 
2145	 9.55805733631577E-02 
2146	 9.61680245493951E-02 
2147	 9.66436227724952E-02 
2148	 9.64940174642056E-02 
2149	 9.64790927442858E-02 
2150	 9.64628689193738E-02 
2151	 9.64554745876777E-02 
2152	 9.62653509286113E-02 
2153	 9.65295754286667E-02 
2154	 9.70112446913173E-02 
2155	 9.76246111154894E-02 
2156	 9.81730316869505E-02 
2157	 9.85425176504254E-02 
2158	 9.88493933748967E-02 
2159	 9.89773875609131E-02 
2160	 0.099101554401741 
2161	 9.89441243187879E-02 
2162	 9.89738420428837E-02 
2163	 0.099025598368572 
2164	 9.93017147115275E-02 
2165	 0.100042957393995 
2166	 0.100071659879807 
2167	 9.99944755920659E-02 
2168	 0.100016227205813 
2169	 0.099543355328828 
2170	 9.97227234282451E-02 
2171	 0.100363566879373 
2172	 0.101023534661652 
2173	 0.101413457238862 
2174	 0.101561443340314 
2175	 0.101391563440928 
2176	 0.101253722098829 
2177	 0.101686425821869 
2178	 0.102234874998344 
2179	 0.102572680101853 
2180	 0.102505917881202 
2181	 0.102597671245869 
2182	 0.103036972015553 
2183	 0.103070597256818 
2184	 0.103515823979599 
2185	 0.103499778807182 
2186	 0.103001670708899 
2187	 0.10293842479306 
2188	 0.103322369902101 
2189	 0.103250947840868 
2190	 0.103081497453639 
2191	 0.102980828705789 
2192	 0.10295427101423 
2193	 0.102553385494682 
2194	 0.102611039260313 
2195	 0.102893804443809 
2196	 0.102644875374669 
2197	 0.102919191293469 
2198	 0.103703381956901 
2199	 0.104588945682132 
2200	 0.105446221248472 
2201	 0.105687908766112 
2202	 0.105391443122266 
2203	 0.104719448894711 
2204	 0.104127976985925 
2205	 0.104389734816599 
2206	 0.104821804861433 
2207	 0.104954176177801 
2208	 0.105218597113692 
2209	 0.105550990196311 
2210	 0.105797693527081 
2211	 0.106002325909833 
2212	 0.106407842627509 
2213	 0.106473854722962 
2214	 0.106075218037538 
2215	 0.105595559954715 
2216	 0.105016249413767 
2217	 0.104918090249278 
2218	 0.105357555896817 
2219	 0.105642055497233 
2220	 0.105783338710224 
2221	 0.105737583671078 
2222	 0.105274297518841 
2223	 0.105057089196168 
2224	 0.105355837066131 
2225	 0.105182212236283 
2226	 0.104519917717149 
2227	 0.103908513606012 
2228	 0.10337285813287 
2229	 0.103096315284253 
2230	 0.103301582763406 
2231	 0.103408125578693 
2232	 0.103723771331823 
2233	 0.10345431977545 
2234	 0.102894557292278 
2235	 0.102337148058674 
2236	 0.102131564816661 
2237	 0.10205118609901 
2238	 0.102130091349062 
2239	 0.102474589938198 
2240	 0.102109619304543 
2241	 0.101303617956007 
2242	 0.100946160274086 
2243	 0.100705362298777 
2244	 0.1006405097035 
2245	 0.100983219067358 
2246	 0.100889311934088 
2247	 0.100562184084728 
2248	 0.100258337954146 
2249	 9.92781075819181E-02 
2250	 9.81323614273503E-02 
2251	 9.74788321850708E-02 
2252	 9.65993069874295E-02 
2253	 9.57139553684692E-02 
2254	 9.58219603348287E-02 
2255	 9.59643875372355E-02 
2256	 9.59757991769693E-02 
2257	 9.61040496516931E-02 
2258	 9.63286054312385E-02 
2259	 9.59256234857523E-02 
2260	 9.51878682726054E-02 
2261	 9.41782749429296E-02 
2262	 0.093273132940406 
2263	 9.22949316908827E-02 
2264	 0.091793894018791 
2265	 9.16462011688354E-02 
2266	 9.12034420935029E-02 
2267	 9.12305494368127E-02 
2268	 9.07151048067576E-02 
2269	 9.00461917653152E-02 
2270	 0.090004962098268 
2271	 8.94991438057449E-02 
2272	 0.0893376273068 
2273	 8.86581611664969E-02 
2274	 8.72079826745662E-02 
2275	 8.68123573063414E-02 
2276	 8.62257427956153E-02 
2277	 8.59927483196258E-02 
2278	 0.086466944425506 
2279	 8.55757022102176E-02 
2280	 8.51861898542309E-02 
2281	 8.57474038012399E-02 
2282	 8.55910071217123E-02 
2283	 8.58595446984212E-02 
2284	 8.60012401019764E-02 
2285	 8.47858724047821E-02 
2286	 8.40318174551269E-02 
2287	 8.32973150453899E-02 
2288	 8.30916920190692E-02 
2289	 8.22036634706954E-02 
2290	 8.22531912733546E-02 
2291	 8.25549787268843E-02 
2292	 8.19926269262559E-02 
2293	 8.22257690920513E-02 
2294	 8.17729346135933E-02 
2295	 8.08098093555143E-02 
2296	 8.06163085831088E-02 
2297	 8.05464941377913E-02 
2298	 8.09439421244935E-02 
2299	 8.11463070799837E-02 
2300	 8.07221050984739E-02 
2301	 7.96658115511526E-02 
2302	 7.83388271071248E-02 
2303	 7.73093762824243E-02 
2304	 7.61860960506507E-02 
2305	 7.54814989516323E-02 
2306	 7.59386338524054E-02 
2307	 0.075970605882338 
2308	 7.60581509035528E-02 
2309	 7.64164255084409E-02 
2310	 7.53230893983819E-02 
2311	 7.44913226173329E-02 
2312	 7.40299229031353E-02 
2313	 7.32911283909735E-02 
2314	 7.31164687782695E-02 
2315	 7.24144191350624E-02 
2316	 7.15871458374249E-02 
2317	 7.15706870675422E-02 
2318	 7.09864068188109E-02 
2319	 7.09377498093271E-02 
2320	 7.14162197373067E-02 
2321	 7.10439074828428E-02 
2322	 0.069926585682626 
2323	 6.91435407306555E-02 
2324	 6.79995461014572E-02 
2325	 6.70665385528198E-02 
2326	 6.69748361567167E-02 
2327	 6.73328904802462E-02 
2328	 0.06817642326232 
2329	 6.86966705616148E-02 
2330	 6.81559488170339E-02 
2331	 6.82159824075595E-02 
2332	 6.88760584653609E-02 
2333	 6.84570965567644E-02 
2334	 6.80556653744463E-02 
2335	 6.69274874573551E-02 
2336	 0.065056717506562 
2337	 6.39846247759362E-02 
2338	 0.063333134937713 
2339	 6.36575257913802E-02 
2340	 6.38265864837189E-02 
2341	 6.27945750110392E-02 
2342	 6.27122942488418E-02 
2343	 6.25689561865651E-02 
2344	 6.11220530802544E-02 
2345	 6.10253672502359E-02 
2346	 6.10944819142237E-02 
2347	 6.10036109619963E-02 
2348	 6.16493082201037E-02 
2349	 6.08856666625715E-02 
2350	 0.059781764891171 
2351	 5.84595782009833E-02 
2352	 0.057130512867964 
2353	 5.69425409230531E-02 
2354	 5.61189489140436E-02 
2355	 5.50301202462442E-02 
2356	 5.44230090226921E-02 
2357	 5.32045776323449E-02 
2358	 0.05230631673626 
2359	 5.32570641831397E-02 
2360	 5.46263633341694E-02 
2361	 0.055975830406209 
2362	 5.79327865462863E-02 
2363	 5.70983166689856E-02 
2364	 5.46188750631017E-02 
2365	 5.34568449613576E-02 
2366	 5.25642356161768E-02 
2367	 5.24569987887096E-02 
2368	 0.05260256718717 
2369	 5.24334132581811E-02 
2370	 5.12118960052994E-02 
2371	 4.99495494650392E-02 
2372	 4.97858225339878E-02 
2373	 5.12112692068368E-02 
2374	 5.08468469877262E-02 
2375	 5.03115999376445E-02 
2376	 4.97060381913631E-02 
2377	 4.71851832752801E-02 
2378	 4.67163512802295E-02 
2379	 4.81787662990629E-02 
2380	 0.048278524780456 
2381	 4.93896439737842E-02 
2382	 4.93536511781745E-02 
2383	 4.69436498665955E-02 
2384	 4.63449180122755E-02 
2385	 4.58075778365235E-02 
2386	 4.45863965177126E-02 
2387	 0.044085754770863 
2388	 4.45661965492523E-02 
2389	 4.54141713300824E-02 
2390	 4.63161331456265E-02 
2391	 4.94805594785082E-02 
2392	 4.94138154192305E-02 
2393	 4.59671556397653E-02 
2394	 4.50136922529855E-02 
2395	 0.043482848707921 
2396	 4.24577904992164E-02 
2397	 4.36954204511475E-02 
2398	 0.043647788821246 
2399	 4.32233741469664E-02 
2400	 4.20962437419551E-02 
2401	 3.93924942439732E-02 
2402	 0.039018681925733 
2403	 3.92268226339567E-02 
2404	 3.78401024128983E-02 
2405	 3.93452708615427E-02 
2406	 4.01976176222328E-02 
2407	 4.07193843447809E-02 
2408	 4.35274813361604E-02 
2409	 0.045124465489767 
2410	 4.53248098063061E-02 
2411	 4.35837296004194E-02 
2412	 3.96289090377733E-02 
2413	 3.71509136152998E-02 
2414	 3.49307368716498E-02 
2415	 3.22290024851457E-02 
2416	 3.32179063219841E-02 
2417	 3.55102772825638E-02 
2418	 3.84308521343065E-02 
2419	 4.09246282212832E-02 
2420	 3.86267918781646E-02 
2421	 3.52614275450422E-02 
2422	 3.19667737661183E-02 
2423	 2.95546706580445E-02 
2424	 3.15137104819091E-02 
2425	 3.44999607768509E-02 
2426	 3.58684514507457E-02 
2427	 3.61897907478629E-02 
2428	 3.41680140416678E-02 
2429	 3.26007086953759E-02 
2430	 3.28669143035693E-02 
2431	 0.031492567742322 
2432	 3.22191146221228E-02 
2433	 3.31694175749516E-02 
2434	 3.22932083011959E-02 
2435	 3.17261641834294E-02 
2436	 3.23965412468799E-02 
2437	 3.44013285605604E-02 
2438	 3.21540405353428E-02 
2439	 2.64147975403311E-02 
2440	 2.52146532913902E-02 
2441	 2.16220055125845E-02 
2442	 1.88225667531049E-02 
2443	 2.27527815974059E-02 
2444	 2.51531961989433E-02 
2445	 2.43703576423403E-02 
2446	 2.60318513029048E-02 
2447	 3.35845789480835E-02 
2448	 3.39081862564158E-02 
2449	 2.89795352664826E-02 
2450	 2.69391532726066E-02 
2451	 1.86498958781512E-02 
2452	 1.69364074250325E-02 
2453	 2.22547385437975E-02 
2454	 2.30695089707239E-02 
2455	 2.46506733270463E-02 
2456	 2.78512106811042E-02 
2457	 3.07978613673036E-02 
2458	 3.12894417111371E-02 
2459	 3.39054184920957E-02 
2460	 3.26461507045333E-02 
2461	 2.45364871774757E-02 
2462	 2.14229442353653E-02 
2463	 1.90537689803449E-02 
2464	 1.76468050741034E-02 
2465	 1.88523274109678E-02 
2466	 1.79382991318842E-02 
2467	 1.65830867441489E-02 
2468	 1.73040218449928E-02 
2469	 1.98790034861966E-02 
2470	 2.16404326121063E-02 
2471	 2.44950792843253E-02 
2472	 2.43529562326152E-02 
2473	 2.01144108441373E-02 
2474	 1.50682009582819E-02 
2475	 5.84169206643135E-03 
2476	 7.56486494886264E-03 
2477	 1.43029778761426E-02 
2478	 2.45092247267841E-02 
2479	 5.04139792353455E-02 
2480	 6.07026691174256E-02 
2481	 6.34759492527082E-02 
2482	 6.56881730535087E-02 
2483	 0.059438446472085 
2484	 5.73465913984711E-02 
2485	 5.45623989119785E-02 
2486	 6.64351070468015E-02 
2487	 6.09716117929572E-02 
2488	 7.97463321827619E-02 
2489	 8.40355378481462E-02 
2490	 7.94201191158234E-02 
2491	 9.25655658640066E-02 
2492	 5.02692097067534E-02 
2493	-6.39389233679467E-03 
2494	-3.96488153674203E-02 
2495	-5.76945045876866E-02 
2496	 1.85945649223811E-03 
2497	 6.26910343494767E-02 
2498	 6.17152291827568E-02 
2499	 8.22797489640993E-02 
2500	 4.79016451828588E-02 
