Wavelength	ref00041.asd
350	 1.85300994703179E-02 
351	 1.86710209762307E-02 
352	 1.93878774861245E-02 
353	 1.94476526010421E-02 
354	 1.95400440093084E-02 
355	 1.94506850263377E-02 
356	 0.019091341493674 
357	 1.88813452729186E-02 
358	 1.92191407442698E-02 
359	 1.93673259017048E-02 
360	 1.88136154474891E-02 
361	 1.96113243092722E-02 
362	 1.98100933342532E-02 
363	 1.91800982922611E-02 
364	 0.018712217175237 
365	 0.018485932211089 
366	 1.85414818502672E-02 
367	 1.87178508883266E-02 
368	 1.86118439023768E-02 
369	 1.89897927214942E-02 
370	 0.019226959434056 
371	 1.88409165097593E-02 
372	 1.87877234876742E-02 
373	 1.87243363960264E-02 
374	 1.86960192409928E-02 
375	 1.88695005528703E-02 
376	 1.87799294363227E-02 
377	 1.84800902487188E-02 
378	 0.018330686069352 
379	 1.89482675432295E-02 
380	 1.87182850851409E-02 
381	 1.85805694283156E-02 
382	 1.92152587275276E-02 
383	 1.90354566621045E-02 
384	 0.019074081225636 
385	 1.93960942378308E-02 
386	 1.96532229925329E-02 
387	 1.98574148709913E-02 
388	 1.96874872513262E-02 
389	 1.93672272144793E-02 
390	 1.96342163823611E-02 
391	 1.96806926817287E-02 
392	 1.98046696106846E-02 
393	 2.01348840320052E-02 
394	 1.98812076725684E-02 
395	 2.03058392613245E-02 
396	 2.08421215850652E-02 
397	 2.05830826978898E-02 
398	 2.04424008395884E-02 
399	 2.02075801781795E-02 
400	 2.00032449922858E-02 
401	 2.02226839724849E-02 
402	 2.04741129796531E-02 
403	 2.05950980471427E-02 
404	 2.06464448674676E-02 
405	 2.10863305399131E-02 
406	 2.13035154119917E-02 
407	 2.11669399707578E-02 
408	 2.08544423134679E-02 
409	 0.021131755019028 
410	 2.12664846209008E-02 
411	 2.12381883241828E-02 
412	 2.16513061538151E-02 
413	 0.021836364649725 
414	 2.18711754106588E-02 
415	 2.18671973735679E-02 
416	 2.17069474072313E-02 
417	 2.18462360852711E-02 
418	 2.19791271482976E-02 
419	 2.17470501233059E-02 
420	 2.19477072081172E-02 
421	 2.22078583311769E-02 
422	 2.23224790154237E-02 
423	 2.23023729296391E-02 
424	 2.23118167322019E-02 
425	 2.24771238013061E-02 
426	 2.27594140248975E-02 
427	 2.27940445940177E-02 
428	 2.28174674587265E-02 
429	 2.29506203768219E-02 
430	 2.31945438081538E-02 
431	 2.31603872439566E-02 
432	 2.32545931126255E-02 
433	 2.34721993716266E-02 
434	 2.34464709292573E-02 
435	 2.34437541830148E-02 
436	 2.35564230932536E-02 
437	 0.023744216583435 
438	 2.37494771843173E-02 
439	 2.38359702491426E-02 
440	 2.39526864399266E-02 
441	 2.39704661052707E-02 
442	 2.39685969241935E-02 
443	 2.40298939516215E-02 
444	 2.41680567407019E-02 
445	 2.43299414458847E-02 
446	 2.44449437415084E-02 
447	 0.024444351460283 
448	 2.43815225207988E-02 
449	 2.46203775518766E-02 
450	 2.46626773866567E-02 
451	 2.45849170734229E-02 
452	 2.46788139303657E-02 
453	 2.48823356742023E-02 
454	 0.025038523253006 
455	 2.50957757893754E-02 
456	 2.51355965835215E-02 
457	 2.51898775632052E-02 
458	 2.52302131782606E-02 
459	 2.52468463385141E-02 
460	 2.53300174177862E-02 
461	 0.025474542767272 
462	 2.55799885768199E-02 
463	 2.55291897487327E-02 
464	 2.55337806220193E-02 
465	 2.56224206461873E-02 
466	 2.57666598401354E-02 
467	 2.58903968627875E-02 
468	 2.59000642622924E-02 
469	 2.59371912191075E-02 
470	 2.61057931793701E-02 
471	 2.60870235541403E-02 
472	 2.61143785017152E-02 
473	 2.62317516706206E-02 
474	 2.63362350558695E-02 
475	 2.63702239417662E-02 
476	 2.64249961839508E-02 
477	 2.65318349596835E-02 
478	 2.65637400176529E-02 
479	 2.66521695321509E-02 
480	 2.67590800298847E-02 
481	 0.026812456465987 
482	 2.68769273931572E-02 
483	 2.69361966683686E-02 
484	 2.70725838822789E-02 
485	 2.74369804367633E-02 
486	 2.74912918719651E-02 
487	 0.027434110705411 
488	 2.74889179931262E-02 
489	 2.75286343857113E-02 
490	 2.75757760387675E-02 
491	 2.76814933183412E-02 
492	 2.78707632125818E-02 
493	 2.78940268539057E-02 
494	 2.79956298231503E-02 
495	 2.82198869915758E-02 
496	 2.83221236145793E-02 
497	 2.83727565715779E-02 
498	 2.84665070452939E-02 
499	 2.86490769203812E-02 
500	 2.87686059868266E-02 
501	 2.89429084882831E-02 
502	 2.91529802653523E-02 
503	 2.92978263336299E-02 
504	 2.93782497567492E-02 
505	 2.94639573417194E-02 
506	 2.95729353181661E-02 
507	 2.96158110168597E-02 
508	 2.98534818489367E-02 
509	 3.01169748318708E-02 
510	 3.01910972875686E-02 
511	 3.02861334829387E-02 
512	 3.04743269117667E-02 
513	 3.06917283170193E-02 
514	 3.07777703465594E-02 
515	 3.09517369456129E-02 
516	 3.12393319744191E-02 
517	 3.15667046791898E-02 
518	 3.17154947003943E-02 
519	 3.18715346533131E-02 
520	 3.19463059258657E-02 
521	 3.18440355994765E-02 
522	 3.20486410583616E-02 
523	 3.22862303522943E-02 
524	 3.24276101676232E-02 
525	 0.032559727253281 
526	 3.27915723619793E-02 
527	 3.30613245165803E-02 
528	 3.32490068113771E-02 
529	 3.31667955451358E-02 
530	 3.32509205085906E-02 
531	 3.35098900430308E-02 
532	 3.37181465256141E-02 
533	 3.39411241476866E-02 
534	 3.42024422112747E-02 
535	 3.44400580654849E-02 
536	 3.44489053393859E-02 
537	 3.45816762817761E-02 
538	 3.48509502938511E-02 
539	 3.51470566934761E-02 
540	 3.53387552012954E-02 
541	 3.56249493540574E-02 
542	 0.035948258542755 
543	 3.60499803770434E-02 
544	 3.62524351046326E-02 
545	 3.65770282601938E-02 
546	 3.69447590468211E-02 
547	 3.71582308790536E-02 
548	 3.74665533549887E-02 
549	 0.03778919184382 
550	 3.79634386852197E-02 
551	 0.038240077721093 
552	 3.85531697757502E-02 
553	 3.88166373611082E-02 
554	 3.89523038025018E-02 
555	 3.91577968000409E-02 
556	 3.94549577205574E-02 
557	 3.98069674480031E-02 
558	 4.01388170170495E-02 
559	 4.05584315953982E-02 
560	 4.09415202138499E-02 
561	 4.10843709318868E-02 
562	 4.15522569765942E-02 
563	 4.21142615288556E-02 
564	 4.25877584290858E-02 
565	 4.30522099108344E-02 
566	 4.35803671784355E-02 
567	 4.40868498714145E-02 
568	 4.45005832507976E-02 
569	 4.51121158386501E-02 
570	 4.56518817108853E-02 
571	 4.60119554212795E-02 
572	 4.62667994960876E-02 
573	 4.64326184780148E-02 
574	 4.66582330638392E-02 
575	 4.69891143549266E-02 
576	 4.71558594571667E-02 
577	 4.72688748244593E-02 
578	 4.75200735428731E-02 
579	 4.80682482695876E-02 
580	 4.85019216369926E-02 
581	 4.89768331239516E-02 
582	 4.95329571335388E-02 
583	 0.049991996512658 
584	 5.04213350582559E-02 
585	 5.08388526852844E-02 
586	 5.12347636005047E-02 
587	 5.15369642621679E-02 
588	 5.18523437087409E-02 
589	 5.21877533887484E-02 
590	 5.24544086924825E-02 
591	 5.24712257762715E-02 
592	 5.25900908629095E-02 
593	 5.29893738657727E-02 
594	 5.34154995830066E-02 
595	 5.39180098063563E-02 
596	 5.43027930315778E-02 
597	 0.054396378010966 
598	 5.44749774683927E-02 
599	 5.46011417211802E-02 
600	 5.47799597538152E-02 
601	 0.054967589644234 
602	 5.51244586290261E-02 
603	 5.52880874843995E-02 
604	 5.54733982067602E-02 
605	 5.55925148081211E-02 
606	 5.56774705602363E-02 
607	 5.57779202604594E-02 
608	 5.59528445408049E-02 
609	 5.62354096658971E-02 
610	 5.65557042443946E-02 
611	 5.68564551287216E-02 
612	 5.71170202876761E-02 
613	 5.74007560781395E-02 
614	 5.76529993256121E-02 
615	 0.057822914249632 
616	 5.79963390356823E-02 
617	 0.058184050741656 
618	 5.83487104992495E-02 
619	 5.84403701421932E-02 
620	 5.86204293038744E-02 
621	 0.058813171913122 
622	 5.89620049853088E-02 
623	 5.91107763785538E-02 
624	 5.92355185831197E-02 
625	 5.93616225115096E-02 
626	 5.95243004377331E-02 
627	 5.97194364914951E-02 
628	 5.99066850562791E-02 
629	 0.06006667749683 
630	 6.02001890856177E-02 
631	 6.02803445047714E-02 
632	 6.03559818370648E-02 
633	 6.04773728037916E-02 
634	 6.06783349729542E-02 
635	 6.07642752393914E-02 
636	 6.08103034168837E-02 
637	 6.09790956498437E-02 
638	 0.061083505863385 
639	 6.11720118297564E-02 
640	 6.13036785972483E-02 
641	 6.15210898685693E-02 
642	 6.15463906015358E-02 
643	 6.15722338716052E-02 
644	 6.17762839457646E-02 
645	 6.18795390613136E-02 
646	 6.19903268812687E-02 
647	 6.21395660204196E-02 
648	 6.23006838346655E-02 
649	 6.23718348695254E-02 
650	 6.24987265168216E-02 
651	 6.26843785979141E-02 
652	 6.26615095708985E-02 
653	 6.27903104947481E-02 
654	 0.062925744471764 
655	 6.29245634198113E-02 
656	 6.33611109174175E-02 
657	 6.36609226387102E-02 
658	 6.36885427049105E-02 
659	 6.37424168984425E-02 
660	 6.37473569288278E-02 
661	 6.37782135008176E-02 
662	 6.38953588601471E-02 
663	 6.41165949582096E-02 
664	 6.42960883115769E-02 
665	 6.44087536157162E-02 
666	 6.45014299304557E-02 
667	 6.47192464175292E-02 
668	 6.48244636186183E-02 
669	 6.48287155107848E-02 
670	 6.49764688559206E-02 
671	 6.51523449351227E-02 
672	 6.53236195306349E-02 
673	 6.54565975144819E-02 
674	 6.54721902834669E-02 
675	 6.56062053163738E-02 
676	 6.58106084657373E-02 
677	 0.065960772108277 
678	 6.62495615243903E-02 
679	 6.63901953437354E-02 
680	 6.63687759230471E-02 
681	 6.64766762322792E-02 
682	 6.66582161509888E-02 
683	 6.69174918405773E-02 
684	 6.72020246421414E-02 
685	 6.72752235973589E-02 
686	 0.067452420160876 
687	 6.77732254214072E-02 
688	 6.80850748036028E-02 
689	 6.81794675714826E-02 
690	 6.82870945255991E-02 
691	 6.85584119466008E-02 
692	 6.89958914841662E-02 
693	 0.069221609850248 
694	 6.93576935517807E-02 
695	 6.95545800631496E-02 
696	 6.97223519128516E-02 
697	 6.99806145275946E-02 
698	 7.03242292906382E-02 
699	 7.06723561135989E-02 
700	 7.08814091247087E-02 
701	 7.11059949408511E-02 
702	 7.13718097419179E-02 
703	 7.15250347167105E-02 
704	 7.17367128863352E-02 
705	 7.19487659512222E-02 
706	 7.21247758054527E-02 
707	 7.24273461947036E-02 
708	 7.26938221266127E-02 
709	 7.28230881787873E-02 
710	 7.28164444338585E-02 
711	 7.30994993141627E-02 
712	 7.34727324932144E-02 
713	 7.37628578752785E-02 
714	 7.39030902129608E-02 
715	 7.41838577618501E-02 
716	 7.44956397748252E-02 
717	 7.47365615379969E-02 
718	 0.075096554771335 
719	 7.53306212346578E-02 
720	 7.55128775670129E-02 
721	 7.58216348236182E-02 
722	 7.59816405892632E-02 
723	 7.61435062447706E-02 
724	 7.63846401517156E-02 
725	 7.66524195889351E-02 
726	 7.67642815862713E-02 
727	 7.68735301062666E-02 
728	 0.077120407310778 
729	 0.077437289358729 
730	 7.77757509125093E-02 
731	 7.80682739988348E-02 
732	 7.82439974487605E-02 
733	 7.81823083484896E-02 
734	 7.82781610451886E-02 
735	 7.85708740660495E-02 
736	 7.87703787622941E-02 
737	 7.89652836344244E-02 
738	 7.90725692404049E-02 
739	 0.079125975848353 
740	 7.94667851086226E-02 
741	 7.95712715808539E-02 
742	 7.96217999511078E-02 
743	 0.079909296800013 
744	 8.00574360744974E-02 
745	 8.01761338887501E-02 
746	 8.02917438671699E-02 
747	 8.03690756342526E-02 
748	 8.05519452123518E-02 
749	 8.07537884837855E-02 
750	 8.09026658685206E-02 
751	 8.10069616894176E-02 
752	 8.10712125579182E-02 
753	 8.12227068473938E-02 
754	 8.15033483238474E-02 
755	 8.15676007072627E-02 
756	 8.15018637094475E-02 
757	 8.14381803258567E-02 
758	 8.15527343636484E-02 
759	 8.21809374133862E-02 
760	 8.30997904511803E-02 
761	 8.37795194737448E-02 
762	 8.34374413779683E-02 
763	 8.35286301492208E-02 
764	 8.36557602124355E-02 
765	 8.34272341591158E-02 
766	 8.31234231058189E-02 
767	 0.083161403517645 
768	 8.33374694522365E-02 
769	 8.33624173192296E-02 
770	 8.34045535023103E-02 
771	 8.34664703505718E-02 
772	 0.083577911627434 
773	 8.37805074683481E-02 
774	 8.39390305123942E-02 
775	 8.40313505711211E-02 
776	 8.40985054426569E-02 
777	 8.42570473110342E-02 
778	 8.42695891881571E-02 
779	 8.43031266797594E-02 
780	 8.45076652778288E-02 
781	 8.45616250940277E-02 
782	 8.46588582330983E-02 
783	 0.084836086478109 
784	 8.50281781658775E-02 
785	 0.085119805075224 
786	 8.52673143958508E-02 
787	 8.54700198520885E-02 
788	 0.085545129487517 
789	 8.56254529011073E-02 
790	 8.57189194219448E-02 
791	 8.58219679050121E-02 
792	 8.59557036654015E-02 
793	 8.60991279004518E-02 
794	 8.62448840951735E-02 
795	 8.64029008964697E-02 
796	 8.66557989956508E-02 
797	 8.67212544492444E-02 
798	 8.66836940608626E-02 
799	 0.086814506100317 
800	 8.69681891913882E-02 
801	 0.08708595273435 
802	 8.71597707306637E-02 
803	 8.72366020325994E-02 
804	 8.73762202937717E-02 
805	 8.75866858435237E-02 
806	 8.78071101758132E-02 
807	 8.78662161204784E-02 
808	 8.79426228163716E-02 
809	 8.80603584231103E-02 
810	 8.82140809837294E-02 
811	 8.85182011898382E-02 
812	 0.088598195641777 
813	 8.86216846534341E-02 
814	 8.89908957365085E-02 
815	 8.91764055626369E-02 
816	 8.94267894737469E-02 
817	 8.97661829702677E-02 
818	 8.99102620837996E-02 
819	 8.97751259494734E-02 
820	 8.96516130999469E-02 
821	 8.97859429387281E-02 
822	 9.02540633247619E-02 
823	 9.04672371738493E-02 
824	 9.03191672625954E-02 
825	 9.00360311853063E-02 
826	 0.09024168186613 
827	 9.07575807953721E-02 
828	 9.11445527465692E-02 
829	 9.10208219191577E-02 
830	 9.10563072241466E-02 
831	 9.12076810205364E-02 
832	 9.14503728175298E-02 
833	 9.17588896554132E-02 
834	 9.18224892909092E-02 
835	 9.17627787308433E-02 
836	 9.17242852903845E-02 
837	 9.18015503725051E-02 
838	 0.092046051458525 
839	 9.23707427550344E-02 
840	 9.26497769251099E-02 
841	 9.27500103699638E-02 
842	 9.27868560107866E-02 
843	 0.092774901682172 
844	 9.27598912500647E-02 
845	 0.09297410477861 
846	 9.32907087507643E-02 
847	 9.34818266860511E-02 
848	 9.34016753554815E-02 
849	 9.35168863848351E-02 
850	 9.38030513941549E-02 
851	 0.094037386964584 
852	 9.39744977845559E-02 
853	 0.094272530328453 
854	 9.47995937731033E-02 
855	 9.50885366533842E-02 
856	 9.45460621028342E-02 
857	 9.43398841054368E-02 
858	 9.46099734451161E-02 
859	 9.51089626207561E-02 
860	 9.53148620242254E-02 
861	 0.095453332734311 
862	 9.56259793419481E-02 
863	 9.58369731421019E-02 
864	 9.58593583614551E-02 
865	 9.64325883675176E-02 
866	 9.68872344259796E-02 
867	 9.65122262007454E-02 
868	 9.64680982223024E-02 
869	 9.63687657314247E-02 
870	 9.63385005163993E-02 
871	 9.66597020903678E-02 
872	 9.72057847941121E-02 
873	 9.73293933410724E-02 
874	 9.72239056771008E-02 
875	 9.75809061540124E-02 
876	 9.78355569941098E-02 
877	 9.80016849795007E-02 
878	 9.81016599050445E-02 
879	 9.81351176721079E-02 
880	 9.83071639733293E-02 
881	 9.85971855374457E-02 
882	 9.89179715913887E-02 
883	 9.91515167993038E-02 
884	 9.92142437084829E-02 
885	 9.93608195346821E-02 
886	 9.96336339930197E-02 
887	 9.95746032280699E-02 
888	 9.96821513348726E-02 
889	 9.98510954054064E-02 
890	 9.99430141206187E-02 
891	 0.100148883641884 
892	 0.100297470217042 
893	 0.10047057858283 
894	 0.100800784625462 
895	 0.101293426902106 
896	 0.101776931282353 
897	 0.102305783835606 
898	 0.102876114531231 
899	 0.102802940354971 
900	 0.102485077025144 
901	 0.102133690634494 
902	 0.101900775648862 
903	 0.102373371849217 
904	 0.10219961289179 
905	 0.101975293085299 
906	 0.103126611295254 
907	 0.103718595880714 
908	 0.103872346536167 
909	 0.10393626086688 
910	 0.104200082808728 
911	 0.103772984926511 
912	 0.103752523870861 
913	 0.104404368307553 
914	 0.10496634083602 
915	 0.10509319012567 
916	 0.10509825567965 
917	 0.105148408788654 
918	 0.105120900954364 
919	 0.104951326903455 
920	 0.104812110843351 
921	 0.104864617472084 
922	 0.10518398484507 
923	 0.105671894130949 
924	 0.105813353568329 
925	 0.10556201852179 
926	 0.105671514470415 
927	 0.105784023340856 
928	 0.106163883767135 
929	 0.106967834369873 
930	 0.107895674179256 
931	 0.109537372438924 
932	 0.11063760389752 
933	 0.110432281538114 
934	 0.110572843479174 
935	 0.109792419635841 
936	 0.108571098007841 
937	 0.107771600161418 
938	 0.107896189931636 
939	 0.108508876453817 
940	 0.108477885294938 
941	 0.107691901509193 
942	 0.108047397869636 
943	 0.109458797063291 
944	 0.110544067776647 
945	 0.110646086267876 
946	 0.111467529359919 
947	 0.110312897271355 
948	 0.109647401748044 
949	 0.111076089290779 
950	 0.111679222496345 
951	 0.109813771237362 
952	 0.109435977581558 
953	 0.112356918471616 
954	 0.113246190509224 
955	 0.112841107911511 
956	 0.112349287605591 
957	 0.112347668726799 
958	 0.111777831452641 
959	 0.110696218058238 
960	 0.111289642646274 
961	 0.113659749546913 
962	 0.113592103812837 
963	 0.113705694981683 
964	 0.11402137159229 
965	 0.113870533724232 
966	 0.112513743089173 
967	 0.112941294134684 
968	 0.113141642533605 
969	 0.112242216217212 
970	 0.112670365208934 
971	 0.113077105176285 
972	 0.113538705139414 
973	 0.114245544866255 
974	 0.115114167092997 
975	 0.114877100407476 
976	 0.115310624195718 
977	 0.116368095966995 
978	 0.115330473361291 
979	 0.11480755973694 
980	 0.1150259558758 
981	 0.115409030277101 
982	 0.11515675865526 
983	 0.115580143076869 
984	 0.115517370018132 
985	 0.114796173327901 
986	 0.114492903653523 
987	 0.115471729538243 
988	 0.116680078337071 
989	 0.117257536740681 
990	 0.117008954762046 
991	 0.117201432595492 
992	 0.116895403317007 
993	 0.116676292438052 
994	 0.117331596526186 
995	 0.114847580714987 
996	 0.116259761582762 
997	 0.11859299295393 
998	 0.116444435221 
999	 0.117585947143962 
1000	 0.117978818216387 
1001	 0.132579880996943 
1002	 0.132819732558668 
1003	 0.133022088877021 
1004	 0.133136198783422 
1005	 0.133289302113065 
1006	 0.133462697216296 
1007	 0.133634156038759 
1008	 0.133841779352522 
1009	 0.133998376986682 
1010	 0.134169617057088 
1011	 0.134250622924502 
1012	 0.134213723013918 
1013	 0.134050299566937 
1014	 0.134108914298681 
1015	 0.134270012549877 
1016	 0.134524555485609 
1017	 0.134904152411874 
1018	 0.135147657804665 
1019	 0.135364663571023 
1020	 0.135458204722535 
1021	 0.13536043086085 
1022	 0.135464661213207 
1023	 0.135588920594215 
1024	 0.135696414239258 
1025	 0.13595733123271 
1026	 0.136181063152704 
1027	 0.136333503734047 
1028	 0.136476911642211 
1029	 0.136445104461275 
1030	 0.13648363001186 
1031	 0.136527720328084 
1032	 0.136508933879966 
1033	 0.136590192903402 
1034	 0.136789683001189 
1035	 0.136932254094204 
1036	 0.137100827713968 
1037	 0.137258926258434 
1038	 0.137414653985943 
1039	 0.137584657933141 
1040	 0.137735358528189 
1041	 0.137839055113649 
1042	 0.137896254183923 
1043	 0.137898364977781 
1044	 0.137841786294179 
1045	 0.137773517261679 
1046	 0.137862659988432 
1047	 0.1380227828723 
1048	 0.138255014571578 
1049	 0.138642641628924 
1050	 0.138909002731425 
1051	 0.139131683681953 
1052	 0.139262281429978 
1053	 0.139410518942994 
1054	 0.139514018138544 
1055	 0.139667404986497 
1056	 0.139969700933806 
1057	 0.14021904924352 
1058	 0.140476006232019 
1059	 0.140722752731808 
1060	 0.140841299087844 
1061	 0.141039674697533 
1062	 0.141274921795295 
1063	 0.141487402543477 
1064	 0.14178948709084 
1065	 0.14205326119325 
1066	 0.142358834491306 
1067	 0.142536569237428 
1068	 0.142770250774754 
1069	 0.143018953418765 
1070	 0.143194358467186 
1071	 0.143533585329601 
1072	 0.14384728984795 
1073	 0.144079548430161 
1074	 0.144462004260811 
1075	 0.14485114753622 
1076	 0.145180366212176 
1077	 0.145439649696882 
1078	 0.145602932683261 
1079	 0.145870694513 
1080	 0.146267715555293 
1081	 0.14654827375805 
1082	 0.146837598119793 
1083	 0.147166334791723 
1084	 0.14749104069477 
1085	 0.147589849660641 
1086	 0.147685225278189 
1087	 0.14792383063529 
1088	 0.148036211245377 
1089	 0.148185275606614 
1090	 0.148556054168598 
1091	 0.148844495193542 
1092	 0.149122617052089 
1093	 0.14936017120864 
1094	 0.149464387448257 
1095	 0.14971498023181 
1096	 0.149955920883324 
1097	 0.150212131208094 
1098	 0.150429839498702 
1099	 0.150699387237814 
1100	 0.150836030041656 
1101	 0.151017060996986 
1102	 0.151232563795799 
1103	 0.151365831678095 
1104	 0.151598707189824 
1105	 0.151829376612703 
1106	 0.152079602422452 
1107	 0.152360971036175 
1108	 0.152516311851297 
1109	 0.152621801831952 
1110	 0.152826010203719 
1111	 0.153009880628859 
1112	 0.153238118878495 
1113	 0.153440430770437 
1114	 0.153631874781079 
1115	 0.153808839986557 
1116	 0.153899127173395 
1117	 0.154233092485155 
1118	 0.154589279219188 
1119	 0.154835594523286 
1120	 0.155114523984069 
1121	 0.155399839849953 
1122	 0.155453132793686 
1123	 0.155400214154415 
1124	 0.155236110058234 
1125	 0.155057141637893 
1126	 0.155151611391321 
1127	 0.155579110306762 
1128	 0.155640997629302 
1129	 0.155749203597574 
1130	 0.155722552242376 
1131	 0.155338892803899 
1132	 0.155243894225153 
1133	 0.15527988926494 
1134	 0.155299164225919 
1135	 0.155310286121107 
1136	 0.15524843240623 
1137	 0.155139107892161 
1138	 0.155126901829141 
1139	 0.155083129204726 
1140	 0.155036830037578 
1141	 0.154924934017484 
1142	 0.154684517397824 
1143	 0.154525864144926 
1144	 0.154421957360924 
1145	 0.154204983849517 
1146	 0.153936636400449 
1147	 0.153691846220133 
1148	 0.153343138700802 
1149	 0.153095654865729 
1150	 0.152927519444506 
1151	 0.152805133041896 
1152	 0.152803588028238 
1153	 0.152648986189283 
1154	 0.152478194181887 
1155	 0.152353521349791 
1156	 0.152124745427464 
1157	 0.151995664440314 
1158	 0.151930400305262 
1159	 0.151762413151251 
1160	 0.151692512820901 
1161	 0.151703606410332 
1162	 0.151613723594081 
1163	 0.151517388023347 
1164	 0.151419676023097 
1165	 0.151246207204792 
1166	 0.151105814377184 
1167	 0.151016649813971 
1168	 0.150894265573543 
1169	 0.150786662316566 
1170	 0.150576981163324 
1171	 0.150364187436983 
1172	 0.150209809191362 
1173	 0.150041215413504 
1174	 0.149822157287707 
1175	 0.149578286068745 
1176	 0.14940118779168 
1177	 0.149184049397131 
1178	 0.148917594558627 
1179	 0.148708595735194 
1180	 0.148564015121156 
1181	 0.148306958660307 
1182	 0.14801198868616 
1183	 0.147723285443742 
1184	 0.147356922265582 
1185	 0.147056460724651 
1186	 0.1467442836474 
1187	 0.146544148610145 
1188	 0.146450030585716 
1189	 0.146271853795353 
1190	 0.146226292737528 
1191	 0.146221895777546 
1192	 0.14617539609494 
1193	 0.146226365437666 
1194	 0.146270563310174 
1195	 0.146350453669411 
1196	 0.146419581213111 
1197	 0.146476711729715 
1198	 0.146596678803031 
1199	 0.146757130071663 
1200	 0.146928477246445 
1201	 0.147175542421081 
1202	 0.147350079648565 
1203	 0.147539034975204 
1204	 0.147646464384828 
1205	 0.147653904372193 
1206	 0.14772437278554 
1207	 0.147731826870267 
1208	 0.147799561900474 
1209	 0.147928056773143 
1210	 0.148060919531281 
1211	 0.148208019671852 
1212	 0.148409901120937 
1213	 0.14862061004404 
1214	 0.14887170247546 
1215	 0.149106861498917 
1216	 0.149338854413298 
1217	 0.149605145578448 
1218	 0.149845473790678 
1219	 0.150183733635515 
1220	 0.15058290919423 
1221	 0.151020654996891 
1222	 0.151562814173412 
1223	 0.152053313716626 
1224	 0.152562399315219 
1225	 0.153057063553091 
1226	 0.153543302134747 
1227	 0.154007434862573 
1228	 0.154426589824892 
1229	 0.154907756995812 
1230	 0.155397022828521 
1231	 0.155855953331984 
1232	 0.156316746853594 
1233	 0.156797090067186 
1234	 0.15727661386903 
1235	 0.157761425880457 
1236	 0.158184645259374 
1237	 0.158613108885113 
1238	 0.159010007768441 
1239	 0.159301653075516 
1240	 0.159678404347592 
1241	 0.160146388531565 
1242	 0.160504640817384 
1243	 0.160863069768355 
1244	 0.161154886841361 
1245	 0.161298725822915 
1246	 0.161535547781562 
1247	 0.161776987612806 
1248	 0.16203007915536 
1249	 0.162395792040394 
1250	 0.162660265667515 
1251	 0.162844376342818 
1252	 0.163051930144671 
1253	 0.163241857005764 
1254	 0.16338488037247 
1255	 0.163532778317201 
1256	 0.163669962640793 
1257	 0.163854147029139 
1258	 0.164029788847662 
1259	 0.164225179110124 
1260	 0.16450255597287 
1261	 0.164720805456375 
1262	 0.16492598442418 
1263	 0.165083805688446 
1264	 0.165147476400079 
1265	 0.165324315403683 
1266	 0.165531439813652 
1267	 0.165710482974344 
1268	 0.165967665895983 
1269	 0.166181843520543 
1270	 0.166306376251603 
1271	 0.166465538552024 
1272	 0.166623606542375 
1273	 0.166803190180833 
1274	 0.167077972566536 
1275	 0.167407933768586 
1276	 0.167696063515946 
1277	 0.168068869424815 
1278	 0.168357329634862 
1279	 0.168553292697011 
1280	 0.168824252797287 
1281	 0.169101237736136 
1282	 0.169432430221682 
1283	 0.169798086774369 
1284	 0.170170612995377 
1285	 0.170635869414521 
1286	 0.171001572624108 
1287	 0.171291638837097 
1288	 0.17164025517852 
1289	 0.17197915828018 
1290	 0.172318822733537 
1291	 0.172699958557317 
1292	 0.173068574792167 
1293	 0.173427864014942 
1294	 0.173770638287216 
1295	 0.174085945645018 
1296	 0.174463885716968 
1297	 0.17479480161196 
1298	 0.175107536456011 
1299	 0.175394261860258 
1300	 0.175657920910935 
1301	 0.175955327739543 
1302	 0.17624668836657 
1303	 0.176525029554624 
1304	 0.176865456926359 
1305	 0.177096385909063 
1306	 0.177226453807874 
1307	 0.177408250725965 
1308	 0.177533141389703 
1309	 0.177734842456153 
1310	 0.178039829512909 
1311	 0.178242847421148 
1312	 0.178464161971951 
1313	 0.178604965646294 
1314	 0.178566827509824 
1315	 0.178662195683761 
1316	 0.178827536725766 
1317	 0.178938781885977 
1318	 0.179096076650721 
1319	 0.179229528034455 
1320	 0.179376192145985 
1321	 0.179375944368502 
1322	 0.179400015494139 
1323	 0.179401452639089 
1324	 0.179452259663128 
1325	 0.179468124351365 
1326	 0.179518927122529 
1327	 0.179703848347793 
1328	 0.179695937333863 
1329	 0.179547551515555 
1330	 0.179474247458051 
1331	 0.179336442200799 
1332	 0.179235839132332 
1333	 0.179165773589074 
1334	 0.179116469650283 
1335	 0.179107944143469 
1336	 0.179036414908169 
1337	 0.178934630294735 
1338	 0.178881836143477 
1339	 0.178781064112106 
1340	 0.178710181220114 
1341	 0.178674825974452 
1342	 0.178719415491183 
1343	 0.178898385301156 
1344	 0.178969736159142 
1345	 0.179091647884481 
1346	 0.179235515897817 
1347	 0.179115008862262 
1348	 0.178909533129709 
1349	 0.178818853426833 
1350	 0.178655395770577 
1351	 0.178920544503934 
1352	 0.180003875994679 
1353	 0.180614798975787 
1354	 0.181793313756638 
1355	 0.182778252777361 
1356	 0.181566419225311 
1357	 0.181560510396578 
1358	 0.182064711136115 
1359	 0.184222824113901 
1360	 0.191513341694722 
1361	 0.196398998696291 
1362	 0.197524869064838 
1363	 0.199752903830429 
1364	 0.187365477098105 
1365	 0.178950385527236 
1366	 0.175196236977175 
1367	 0.174268865348986 
1368	 0.176866283270046 
1369	 0.174468054563205 
1370	 0.170188832103823 
1371	 0.171463353198106 
1372	 0.173078928017856 
1373	 0.173226748000263 
1374	 0.178715027656429 
1375	 0.178970650682787 
1376	 0.174020495043229 
1377	 0.172962863712218 
1378	 0.168341777227152 
1379	 0.159481223182351 
1380	 0.158105722395374 
1381	 0.157594029860372 
1382	 0.158901010033366 
1383	 0.167172785664972 
1384	 0.168355862994164 
1385	 0.167031084018407 
1386	 0.166001474020596 
1387	 0.164089794268513 
1388	 0.161542836125462 
1389	 0.157998793874272 
1390	 0.156148830942708 
1391	 0.154893114858535 
1392	 0.152679830885339 
1393	 0.150859496454443 
1394	 0.148839348112751 
1395	 0.1450544210763 
1396	 0.143345215410935 
1397	 0.142509312164311 
1398	 0.142168603040955 
1399	 0.142888723930015 
1400	 0.143282107862036 
1401	 0.145025246065195 
1402	 0.144841075446406 
1403	 0.143740010539231 
1404	 0.142360193895032 
1405	 0.139887694646443 
1406	 0.137644055446529 
1407	 0.136675615303012 
1408	 0.136444949917092 
1409	 0.136278419937525 
1410	 0.136966398126867 
1411	 0.136165888667888 
1412	 0.134491806161451 
1413	 0.134241980487683 
1414	 0.134223378647974 
1415	 0.133623969450703 
1416	 0.133520944319089 
1417	 0.133173348267425 
1418	 0.13207223300831 
1419	 0.131682967119855 
1420	 0.131746877473135 
1421	 0.131739562592486 
1422	 0.131691876915887 
1423	 0.131690434023101 
1424	 0.132027637334434 
1425	 0.131933820936626 
1426	 0.13155730248406 
1427	 0.131357581146193 
1428	 0.131009920574767 
1429	 0.130818086217446 
1430	 0.130954455774428 
1431	 0.130692954721479 
1432	 0.130013572169429 
1433	 0.129810316324115 
1434	 0.129508159774461 
1435	 0.129493126459832 
1436	 0.130195903055884 
1437	 0.13041550149868 
1438	 0.130366164759625 
1439	 0.130470975133746 
1440	 0.130416121603588 
1441	 0.13048070257215 
1442	 0.130779879491798 
1443	 0.130982256358432 
1444	 0.130888013639445 
1445	 0.130823886918719 
1446	 0.130863165757005 
1447	 0.130893722207545 
1448	 0.131069749913243 
1449	 0.131457210627455 
1450	 0.131674788019729 
1451	 0.13185334733673 
1452	 0.132029265146405 
1453	 0.132166297339687 
1454	 0.132375365354042 
1455	 0.132626102821548 
1456	 0.132791492791824 
1457	 0.132968938162881 
1458	 0.133137191240579 
1459	 0.133295232889886 
1460	 0.13339535986989 
1461	 0.133474376186212 
1462	 0.133587746168293 
1463	 0.133513663616165 
1464	 0.13378529426422 
1465	 0.134327369999728 
1466	 0.134838698224248 
1467	 0.135714143464364 
1468	 0.136196876917119 
1469	 0.136392788586924 
1470	 0.136727791168582 
1471	 0.136787922502551 
1472	 0.137139794977723 
1473	 0.137794113875377 
1474	 0.138232112269034 
1475	 0.138709950743121 
1476	 0.139042326810543 
1477	 0.139020784213983 
1478	 0.139335729339463 
1479	 0.139806337834511 
1480	 0.140214183550314 
1481	 0.140829139032225 
1482	 0.141285528361507 
1483	 0.141565426220465 
1484	 0.141881475889189 
1485	 0.142209063352859 
1486	 0.142476685989062 
1487	 0.142536365205414 
1488	 0.142898620053575 
1489	 0.143310904016335 
1490	 0.143678935804397 
1491	 0.144199344681977 
1492	 0.144635242904307 
1493	 0.145020984412452 
1494	 0.145427855335859 
1495	 0.145831004903708 
1496	 0.146272316042144 
1497	 0.146667338255408 
1498	 0.147007292017578 
1499	 0.147467497185346 
1500	 0.147976816492953 
1501	 0.148480856324089 
1502	 0.149076986723227 
1503	 0.149576207821715 
1504	 0.150030915600019 
1505	 0.150486676172693 
1506	 0.150916107284827 
1507	 0.151352831743056 
1508	 0.151781758159366 
1509	 0.152205201783411 
1510	 0.152659248454142 
1511	 0.153015980791672 
1512	 0.153297903863257 
1513	 0.153648528033881 
1514	 0.153946324721324 
1515	 0.154327095994753 
1516	 0.154798182332009 
1517	 0.155233158975981 
1518	 0.155737479921373 
1519	 0.156115997221404 
1520	 0.156373922696264 
1521	 0.156773154262475 
1522	 0.15720260136779 
1523	 0.157565568560918 
1524	 0.157982333142475 
1525	 0.158394325002421 
1526	 0.158729333729253 
1527	 0.159077772265554 
1528	 0.159512124088964 
1529	 0.159883767418165 
1530	 0.160150512018144 
1531	 0.160477980803478 
1532	 0.160909108696021 
1533	 0.161196169313146 
1534	 0.161357002449017 
1535	 0.161617900164912 
1536	 0.161806324321368 
1537	 0.162092509067498 
1538	 0.162572371840251 
1539	 0.162919989454663 
1540	 0.163228622969267 
1541	 0.163520043773158 
1542	 0.163727755959323 
1543	 0.163970386544075 
1544	 0.164205329539023 
1545	 0.164474978030228 
1546	 0.164794626139571 
1547	 0.16507855298988 
1548	 0.165345774366671 
1549	 0.165641747922777 
1550	 0.165974449065919 
1551	 0.166237631129065 
1552	 0.16647166656385 
1553	 0.166730918206347 
1554	 0.166943547004963 
1555	 0.167159625060103 
1556	 0.167410597134167 
1557	 0.167659700935661 
1558	 0.167900205798608 
1559	 0.168115760793979 
1560	 0.168326436368638 
1561	 0.16854886099006 
1562	 0.168733232557412 
1563	 0.168941359072066 
1564	 0.16920747922743 
1565	 0.169447463552602 
1566	 0.169643453722684 
1567	 0.169828901637462 
1568	 0.169973303041941 
1569	 0.170033053678458 
1570	 0.170234466838681 
1571	 0.17046770540316 
1572	 0.170716810679503 
1573	 0.171073964827333 
1574	 0.171289631061646 
1575	 0.171460304919697 
1576	 0.171575362146095 
1577	 0.171592403144968 
1578	 0.171718825939126 
1579	 0.171832388729656 
1580	 0.171984993659282 
1581	 0.17219052858323 
1582	 0.172422417563522 
1583	 0.172712987048699 
1584	 0.172846726961724 
1585	 0.172957713495188 
1586	 0.17308273831922 
1587	 0.173084780109363 
1588	 0.17317627493181 
1589	 0.173376693882442 
1590	 0.173481877854531 
1591	 0.173510007885293 
1592	 0.17360108110461 
1593	 0.173713162576892 
1594	 0.173830712626249 
1595	 0.173941007956491 
1596	 0.174106058243987 
1597	 0.17435138426546 
1598	 0.174457961468812 
1599	 0.174560718023986 
1600	 0.174591982095926 
1601	 0.174455500144307 
1602	 0.17450128871084 
1603	 0.174633304704977 
1604	 0.174669717630209 
1605	 0.174730785210765 
1606	 0.174769613871258 
1607	 0.174697267892533 
1608	 0.174775715058675 
1609	 0.174980935712582 
1610	 0.175054026492534 
1611	 0.175122317765732 
1612	 0.175174198935182 
1613	 0.175210069736131 
1614	 0.175128432438849 
1615	 0.174946633206514 
1616	 0.174910240414398 
1617	 0.174825657693113 
1618	 0.174777644543568 
1619	 0.174931130555262 
1620	 0.174844083341718 
1621	 0.174600512394179 
1622	 0.17438580662287 
1623	 0.174065974568651 
1624	 0.173904441683223 
1625	 0.173774229878704 
1626	 0.173659301023214 
1627	 0.173662470319676 
1628	 0.17357495319886 
1629	 0.173392096385954 
1630	 0.173364256972129 
1631	 0.173456314201745 
1632	 0.17337581073483 
1633	 0.173237909236167 
1634	 0.173247809358831 
1635	 0.173220218172226 
1636	 0.173220801985871 
1637	 0.173343296803477 
1638	 0.173500117712878 
1639	 0.173647697920556 
1640	 0.173706669168989 
1641	 0.173898027001972 
1642	 0.173934370310503 
1643	 0.173695157980925 
1644	 0.1737437797634 
1645	 0.173912054692965 
1646	 0.174029749270015 
1647	 0.174248231710921 
1648	 0.174320622086911 
1649	 0.174343592361733 
1650	 0.174375174759746 
1651	 0.174330172494458 
1652	 0.174335141116613 
1653	 0.174371003976413 
1654	 0.174366944773272 
1655	 0.174358516481727 
1656	 0.174302401141274 
1657	 0.174223204655144 
1658	 0.174081321449724 
1659	 0.173928048480821 
1660	 0.173757984570126 
1661	 0.173629680647273 
1662	 0.173588892350218 
1663	 0.173529928248541 
1664	 0.173492626414124 
1665	 0.173405642714837 
1666	 0.173194691109286 
1667	 0.172966798058665 
1668	 0.172656035700968 
1669	 0.172190215462466 
1670	 0.171618036274402 
1671	 0.170943530858946 
1672	 0.170277999703876 
1673	 0.169815379265327 
1674	 0.169211613673793 
1675	 0.16850025178673 
1676	 0.167921839560431 
1677	 0.16700098634885 
1678	 0.166036510454525 
1679	 0.165225677525425 
1680	 0.164098658286479 
1681	 0.162836535996671 
1682	 0.16155171049959 
1683	 0.160081198664872 
1684	 0.158494924434817 
1685	 0.157023988917199 
1686	 0.155576559927048 
1687	 0.154210191056028 
1688	 0.152942978090739 
1689	 0.151580543223422 
1690	 0.150359706717663 
1691	 0.149360057566038 
1692	 0.148663049912623 
1693	 0.147889420203129 
1694	 0.147207321922113 
1695	 0.14656953135907 
1696	 0.145861002970072 
1697	 0.145297934084042 
1698	 0.144892284773065 
1699	 0.144493839599323 
1700	 0.144197418587647 
1701	 0.14388483644354 
1702	 0.143557534355135 
1703	 0.143329468754293 
1704	 0.143215027060576 
1705	 0.142972365829346 
1706	 0.142716671113577 
1707	 0.142525600356441 
1708	 0.142216479354299 
1709	 0.142057107821991 
1710	 0.142134891750318 
1711	 0.142016930919061 
1712	 0.141778800583073 
1713	 0.141661362401743 
1714	 0.141525588305542 
1715	 0.14146795304283 
1716	 0.141632845399818 
1717	 0.141539838650139 
1718	 0.141327322506546 
1719	 0.141081432180991 
1720	 0.140655131599653 
1721	 0.140324730999634 
1722	 0.140009739168416 
1723	 0.139814158992062 
1724	 0.13965254158818 
1725	 0.139498363778708 
1726	 0.139481684448846 
1727	 0.139277676947702 
1728	 0.138906981261328 
1729	 0.138818549986003 
1730	 0.138770319480009 
1731	 0.138793406612055 
1732	 0.138989907881911 
1733	 0.139165258802719 
1734	 0.139423694956696 
1735	 0.139802763501561 
1736	 0.140137559670184 
1737	 0.140273486667377 
1738	 0.140298498169771 
1739	 0.140482583149321 
1740	 0.140637706748197 
1741	 0.140873328891142 
1742	 0.141209679805328 
1743	 0.141354542954978 
1744	 0.141613068835981 
1745	 0.141905875265561 
1746	 0.142112755827034 
1747	 0.142368189782059 
1748	 0.142417440619167 
1749	 0.142379939243322 
1750	 0.142354463573918 
1751	 0.142142333838448 
1752	 0.141905161392057 
1753	 0.14190931142378 
1754	 0.14205296763813 
1755	 0.142177631197506 
1756	 0.142399075361428 
1757	 0.142297094646179 
1758	 0.142159140952001 
1759	 0.141868616900378 
1760	 0.141802348495307 
1761	 0.141856987762678 
1762	 0.141816299643284 
1763	 0.142002123260144 
1764	 0.14187678407397 
1765	 0.141260225574683 
1766	 0.141157355260816 
1767	 0.14129888699946 
1768	 0.141257709037162 
1769	 0.141473233703542 
1770	 0.141486302453704 
1771	 0.14111164464984 
1772	 0.141076908108094 
1773	 0.141231535742501 
1774	 0.141247461694984 
1775	 0.141449983877438 
1776	 0.141673641381139 
1777	 0.141688915724678 
1778	 0.141887114001007 
1779	 0.142149259073598 
1780	 0.142268729279656 
1781	 0.142757341702599 
1782	 0.14321060274293 
1783	 0.143288484120684 
1784	 0.143120704186765 
1785	 0.142889957835391 
1786	 0.142824586515696 
1787	 0.142577012318122 
1788	 0.142371956452772 
1789	 0.142579963541205 
1790	 0.142600686755424 
1791	 0.14229626852259 
1792	 0.142181155722602 
1793	 0.141876181055565 
1794	 0.14142780161753 
1795	 0.141491864192088 
1796	 0.141681293512977 
1797	 0.141673116798689 
1798	 0.141273824091669 
1799	 0.140972062740146 
1800	 0.141227174818647 
1801	 0.14294049692482 
1802	 0.141680265885853 
1803	 0.142156304646587 
1804	 0.144619842572139 
1805	 0.145566884737477 
1806	 0.147093366357082 
1807	 0.14789441594847 
1808	 0.147297462685012 
1809	 0.145883269670228 
1810	 0.146389034920352 
1811	 0.148578835259053 
1812	 0.148914556049552 
1813	 0.149591368397418 
1814	 0.149548986643908 
1815	 0.146273627489655 
1816	 0.145408976620872 
1817	 0.146111327775611 
1818	 0.146801222467863 
1819	 0.148173851209389 
1820	 0.151841329533106 
1821	 0.153005249888315 
1822	 0.15390165139152 
1823	 0.153852780799327 
1824	 0.150144474565732 
1825	 0.148374525366323 
1826	 0.146464941276172 
1827	 0.144600651973564 
1828	 0.142993227209539 
1829	 0.141422451895277 
1830	 0.143433982106873 
1831	 0.153459061704382 
1832	 0.156223396310313 
1833	 0.160403692358521 
1834	 0.163240135829623 
1835	 0.135487564372511 
1836	 0.129638920535884 
1837	 0.16776602365762 
1838	 0.183347080241624 
1839	 0.194476792260708 
1840	 0.21835498284652 
1841	 0.208023148439241 
1842	 0.141573042420053 
1843	 0.133346932328193 
1844	 0.143771868609857 
1845	 0.144142639809176 
1846	 0.1630503895872 
1847	 0.177478176729746 
1848	 0.188638314658297 
1849	 0.184570484130592 
1850	 0.187882066217423 
1851	 0.198558773598324 
1852	 0.2016650638005 
1853	 0.204427556836589 
1854	 0.195660764334647 
1855	 0.174441352463077 
1856	 0.166802938696479 
1857	 0.147709553932226 
1858	 0.148033746076523 
1859	 0.148882411495788 
1860	 0.16205192771863 
1861	 0.165682576680204 
1862	 0.173541095923844 
1863	 0.171510653184073 
1864	 0.16539067440064 
1865	 0.151416458252161 
1866	 0.118395782501593 
1867	 0.09099664143733 
1868	 4.28679380208935E-02 
1869	 6.16077874608559E-02 
1870	 7.98745749922265E-02 
1871	 0.14103628927982 
1872	 0.167408139258888 
1873	 0.21756131132304 
1874	 0.211402013964196 
1875	 0.159868765894106 
1876	 0.143197921377049 
1877	 0.112644341071006 
1878	 0.124636080773488 
1879	 0.124345838136883 
1880	 0.111388977299695 
1881	 0.110538828568467 
1882	 0.107999249562676 
1883	 0.105688488320074 
1884	 0.105086774954106 
1885	 0.111373433490382 
1886	 0.125503703269575 
1887	 0.125923573851686 
1888	 0.128439914302109 
1889	 0.132574408332165 
1890	 0.128871964035164 
1891	 0.111315313346665 
1892	 0.102049953776809 
1893	 9.28244378914963E-02 
1894	 8.78644459271134E-02 
1895	 7.86007135800577E-02 
1896	 8.10419001480517E-02 
1897	 0.108059753696541 
1898	 0.112611162148419 
1899	 0.116383803739552 
1900	 0.140097643746799 
1901	 0.153972460122684 
1902	 0.156876649505281 
1903	 0.155554868781231 
1904	 0.154810797069205 
1905	 0.14097208223616 
1906	 0.10104464638305 
1907	 7.29081616238291E-02 
1908	 6.76254773471848E-02 
1909	 0.049038146269158 
1910	 3.14416487866952E-02 
1911	 2.37231750262375E-02 
1912	 3.15124741320666E-02 
1913	 4.86144485594274E-02 
1914	 5.49434580012183E-02 
1915	 6.31078592245435E-02 
1916	 6.94539401025015E-02 
1917	 0.071496219167951 
1918	 7.39879386085873E-02 
1919	 8.10201801997356E-02 
1920	 8.50569459712616E-02 
1921	 8.60874445835721E-02 
1922	 8.38178764717043E-02 
1923	 8.20776652705087E-02 
1924	 7.76352346607727E-02 
1925	 7.69781961539228E-02 
1926	 0.078445729210649 
1927	 7.89986006433569E-02 
1928	 8.08519916180365E-02 
1929	 8.15283167770561E-02 
1930	 8.00368775758234E-02 
1931	 7.39333647110562E-02 
1932	 7.16110846568064E-02 
1933	 7.14799241980939E-02 
1934	 7.24062615813212E-02 
1935	 7.81721826375493E-02 
1936	 7.85377541629838E-02 
1937	 7.61255307939493E-02 
1938	 7.59676021591827E-02 
1939	 7.51354509594239E-02 
1940	 7.41800614180938E-02 
1941	 7.62970461250028E-02 
1942	 7.77234649689894E-02 
1943	 7.68768686483025E-02 
1944	 7.63823575855297E-02 
1945	 7.67129844582357E-02 
1946	 7.62889518602259E-02 
1947	 0.076327251523298 
1948	 7.75480637238357E-02 
1949	 7.81078784415466E-02 
1950	 7.79839744858689E-02 
1951	 7.83054624578006E-02 
1952	 7.88591604430698E-02 
1953	 7.91998012715036E-02 
1954	 8.01870257147366E-02 
1955	 8.18008050202667E-02 
1956	 0.083614926598596 
1957	 8.40577630326239E-02 
1958	 8.38007340529399E-02 
1959	 8.19853832264343E-02 
1960	 8.15243846604039E-02 
1961	 0.080648067095327 
1962	 8.12199127000114E-02 
1963	 0.081919043565159 
1964	 8.20618753749117E-02 
1965	 8.24990334995693E-02 
1966	 8.23606741254743E-02 
1967	 8.24035259318901E-02 
1968	 8.24798725903443E-02 
1969	 8.25954552714696E-02 
1970	 8.26173085893982E-02 
1971	 8.29421684224202E-02 
1972	 8.33968246754872E-02 
1973	 8.38905947489668E-02 
1974	 8.44221971787232E-02 
1975	 8.48179342084024E-02 
1976	 8.51689617521061E-02 
1977	 8.56449059832243E-02 
1978	 8.61107963922287E-02 
1979	 8.63342139809486E-02 
1980	 8.66095838791487E-02 
1981	 8.68592422702805E-02 
1982	 8.72869769317579E-02 
1983	 8.79803549056892E-02 
1984	 8.84014140873038E-02 
1985	 0.088561791954522 
1986	 0.089041543694072 
1987	 8.91757854838377E-02 
1988	 8.95575804801581E-02 
1989	 8.99149674898453E-02 
1990	 9.01429675161498E-02 
1991	 0.090782140178238 
1992	 9.14564931471017E-02 
1993	 9.20877761003361E-02 
1994	 9.25514898492465E-02 
1995	 9.31380655811913E-02 
1996	 0.093593596787825 
1997	 9.38177276348632E-02 
1998	 0.094150194273724 
1999	 9.52136131654824E-02 
2000	 9.62380552878118E-02 
2001	 9.75657815435831E-02 
2002	 9.90511786243108E-02 
2003	 9.99839216058892E-02 
2004	 0.100254932272691 
2005	 9.93146003574749E-02 
2006	 9.87332843493176E-02 
2007	 9.78665205240118E-02 
2008	 9.74506071604457E-02 
2009	 9.71418473715185E-02 
2010	 0.097779985913377 
2011	 9.79105990269545E-02 
2012	 9.85108037109933E-02 
2013	 9.96942013631003E-02 
2014	 0.100540768233698 
2015	 0.101619903091677 
2016	 0.10214282587624 
2017	 0.102766218451944 
2018	 0.102840040417484 
2019	 0.103149698086833 
2020	 0.103595373493069 
2021	 0.104394410198205 
2022	 0.104251978129748 
2023	 0.104393110316416 
2024	 0.104358210829284 
2025	 0.10437459351498 
2026	 0.104977446245742 
2027	 0.105459430530014 
2028	 0.106065379264514 
2029	 0.106334025660518 
2030	 0.106386949197226 
2031	 0.106912677267275 
2032	 0.107207631944115 
2033	 0.107432462739817 
2034	 0.107578619123071 
2035	 0.108155019735409 
2036	 0.108579874240346 
2037	 0.108835002242357 
2038	 0.109293349190572 
2039	 0.109546735919777 
2040	 0.10930784515449 
2041	 0.109190609499922 
2042	 0.109395429854232 
2043	 0.10964501866986 
2044	 0.110201821168771 
2045	 0.110789838582815 
2046	 0.111692070124127 
2047	 0.112450140412447 
2048	 0.112660588406928 
2049	 0.112568393622848 
2050	 0.11203095832891 
2051	 0.111908281066082 
2052	 0.112583945200574 
2053	 0.112388736792218 
2054	 0.112450772108199 
2055	 0.112721746390397 
2056	 0.112294427308908 
2057	 0.112678086327787 
2058	 0.113290287276606 
2059	 0.113593770184229 
2060	 0.113513658066684 
2061	 0.11391252174665 
2062	 0.114287554362667 
2063	 0.114598699102903 
2064	 0.115226967500871 
2065	 0.115045812721354 
2066	 0.115003987652624 
2067	 0.11568607865131 
2068	 0.11592955768145 
2069	 0.116196660226489 
2070	 0.116546135632219 
2071	 0.116248260463888 
2072	 0.116329445906665 
2073	 0.116437698616276 
2074	 0.117112378596371 
2075	 0.117205986182505 
2076	 0.117399303053775 
2077	 0.117952695491322 
2078	 0.117804452260014 
2079	 0.117869304787845 
2080	 0.11824309187313 
2081	 0.118328991232906 
2082	 0.118784279894568 
2083	 0.119173316502314 
2084	 0.119442286870679 
2085	 0.119788079934506 
2086	 0.119968780299311 
2087	 0.120265202687069 
2088	 0.120756416561753 
2089	 0.121294923049075 
2090	 0.121547526514277 
2091	 0.121647017120294 
2092	 0.121930635035962 
2093	 0.122381580480009 
2094	 0.12269129693228 
2095	 0.123182784943242 
2096	 0.123701163917437 
2097	 0.124053823730283 
2098	 0.124321153601974 
2099	 0.124562117102025 
2100	 0.124736070310711 
2101	 0.124910870970645 
2102	 0.124968401267493 
2103	 0.12501212843218 
2104	 0.12496266609803 
2105	 0.125018357926492 
2106	 0.124920230180945 
2107	 0.125277914747699 
2108	 0.125868438140502 
2109	 0.126210741934696 
2110	 0.126535085907814 
2111	 0.126609826610634 
2112	 0.126610303855309 
2113	 0.126571002585464 
2114	 0.126838720641273 
2115	 0.127493610869741 
2116	 0.128103404858006 
2117	 0.128316064862025 
2118	 0.128159405847385 
2119	 0.128404603953526 
2120	 0.128539026822579 
2121	 0.128611723803204 
2122	 0.129114039435101 
2123	 0.12969864492946 
2124	 0.12963744031746 
2125	 0.129319743344694 
2126	 0.129640506895944 
2127	 0.129742020881039 
2128	 0.129681279581883 
2129	 0.130346862039374 
2130	 0.130320082906527 
2131	 0.130552263654199 
2132	 0.131574770198842 
2133	 0.131756601158048 
2134	 0.132050806412051 
2135	 0.132612577743853 
2136	 0.132780317655039 
2137	 0.13195346732508 
2138	 0.131764086165053 
2139	 0.131461853828309 
2140	 0.131366173102872 
2141	 0.13176229818338 
2142	 0.131770488785213 
2143	 0.131944615407366 
2144	 0.131673579569791 
2145	 0.1312167546563 
2146	 0.131498902587136 
2147	 0.131431817870394 
2148	 0.131188731468407 
2149	 0.131185832596509 
2150	 0.131283295714832 
2151	 0.1313261419525 
2152	 0.131489372550412 
2153	 0.131493270023224 
2154	 0.131606906203708 
2155	 0.131138611848029 
2156	 0.130402344871041 
2157	 0.130223210811724 
2158	 0.130390619211062 
2159	 0.130710162493686 
2160	 0.131395468064541 
2161	 0.131562731477629 
2162	 0.131431793326806 
2163	 0.131515116608796 
2164	 0.131122624307349 
2165	 0.131091220279771 
2166	 0.131442373690126 
2167	 0.131097669020942 
2168	 0.130648107148586 
2169	 0.130061720825221 
2170	 0.129865292039295 
2171	 0.129479862063921 
2172	 0.129174176924565 
2173	 0.129840602341684 
2174	 0.1301457114019 
2175	 0.129633058947927 
2176	 0.129657104319777 
2177	 0.129771591724973 
2178	 0.129290188543386 
2179	 0.1290520808737 
2180	 0.128790186082517 
2181	 0.128586394455992 
2182	 0.128419219638725 
2183	 0.128494706569963 
2184	 0.128691686068206 
2185	 0.128298301789082 
2186	 0.127900134763766 
2187	 0.127537791834734 
2188	 0.127253367247537 
2189	 0.126888649254504 
2190	 0.126420974219358 
2191	 0.125954015989993 
2192	 0.125942414180439 
2193	 0.125643428326198 
2194	 0.125590989633619 
2195	 0.125730206383024 
2196	 0.125715101646097 
2197	 0.125809932042925 
2198	 0.125839007783791 
2199	 0.12602142415449 
2200	 0.125846266596313 
2201	 0.125589316060212 
2202	 0.12589409287841 
2203	 0.125872911023316 
2204	 0.125979015694731 
2205	 0.126616076588252 
2206	 0.126721626177841 
2207	 0.126645869338195 
2208	 0.126706842827431 
2209	 0.126862623084879 
2210	 0.126681724933972 
2211	 0.126447052666296 
2212	 0.125947054329849 
2213	 0.12521079431199 
2214	 0.124656606594713 
2215	 0.124135299129607 
2216	 0.124561766222463 
2217	 0.125264073964937 
2218	 0.125290149916505 
2219	 0.125411922591239 
2220	 0.125229019069675 
2221	 0.124822844862761 
2222	 0.124607450606145 
2223	 0.123999136538573 
2224	 0.123558320426188 
2225	 0.123392201264088 
2226	 0.122943905661743 
2227	 0.123235434362877 
2228	 0.12371626332044 
2229	 0.123577448051591 
2230	 0.123449980966209 
2231	 0.123405268137625 
2232	 0.123195609543558 
2233	 0.123101856483979 
2234	 0.123042582399257 
2235	 0.123231360079536 
2236	 0.123852378156907 
2237	 0.123551697836688 
2238	 0.122467620619627 
2239	 0.121568648327059 
2240	 0.119785227069497 
2241	 0.117991868134257 
2242	 0.118081600067769 
2243	 0.118319903987809 
2244	 0.118749895181965 
2245	 0.119040279923998 
2246	 0.118354226889803 
2247	 0.117803572092071 
2248	 0.117207336955639 
2249	 0.116835386433931 
2250	 0.116268629549433 
2251	 0.115384935413509 
2252	 0.114409413779448 
2253	 0.112647687117302 
2254	 0.111076747762045 
2255	 0.110573277028423 
2256	 0.110059870435259 
2257	 0.109720594228037 
2258	 0.1097229425825 
2259	 0.109914751170665 
2260	 0.108885888926877 
2261	 0.107205710107239 
2262	 0.106073100102315 
2263	 0.104977621185944 
2264	 0.104023267378811 
2265	 0.103936945464892 
2266	 0.104619880708514 
2267	 0.104729592633263 
2268	 0.103710103461608 
2269	 0.102747544274126 
2270	 0.100845185768532 
2271	 9.92719153172064E-02 
2272	 9.95430671100629E-02 
2273	 9.95115745229837E-02 
2274	 9.96531426273305E-02 
2275	 9.97411884208373E-02 
2276	 9.86528663219875E-02 
2277	 9.83912727791913E-02 
2278	 9.87205687176159E-02 
2279	 9.86797454942276E-02 
2280	 9.93596300355804E-02 
2281	 9.94494788753768E-02 
2282	 9.91335647639141E-02 
2283	 9.91921016771653E-02 
2284	 9.86548751713997E-02 
2285	 9.88893681692576E-02 
2286	 9.91172908200174E-02 
2287	 9.95980590635013E-02 
2288	 9.89201676735258E-02 
2289	 9.86298686205904E-02 
2290	 0.098597354139438 
2291	 9.75253837408615E-02 
2292	 9.70029972357132E-02 
2293	 0.09741466842471 
2294	 9.70187078508817E-02 
2295	 9.64012391550143E-02 
2296	 9.68684979789056E-02 
2297	 9.69619520754744E-02 
2298	 9.59664678670253E-02 
2299	 0.096173300365964 
2300	 9.59968952692266E-02 
2301	 9.45867308084089E-02 
2302	 9.42928505248556E-02 
2303	 9.34815490850171E-02 
2304	 9.16331818205049E-02 
2305	 9.12466809107761E-02 
2306	 9.13739204356381E-02 
2307	 9.16430724452491E-02 
2308	 9.25199715971706E-02 
2309	 9.27029984611062E-02 
2310	 9.26567665597286E-02 
2311	 9.17018975316792E-02 
2312	 9.00009597564692E-02 
2313	 8.92026055285189E-02 
2314	 8.90289999384965E-02 
2315	 0.089218474183899 
2316	 9.01030151821848E-02 
2317	 9.00169146881436E-02 
2318	 8.90102138894096E-02 
2319	 8.80248980135905E-02 
2320	 8.71203440961941E-02 
2321	 8.71557077654695E-02 
2322	 8.85796204387291E-02 
2323	 8.88826564180322E-02 
2324	 8.92122500042013E-02 
2325	 9.00724096198664E-02 
2326	 8.91433454821917E-02 
2327	 8.99720396217238E-02 
2328	 9.16420082459648E-02 
2329	 9.06974120483069E-02 
2330	 8.99514237950803E-02 
2331	 8.85272240230552E-02 
2332	 8.62675670339604E-02 
2333	 8.55471496965065E-02 
2334	 8.54454954267088E-02 
2335	 0.085687157432764 
2336	 0.085267701112842 
2337	 8.56488088981514E-02 
2338	 8.62633884813116E-02 
2339	 8.66947076804621E-02 
2340	 8.81773973437159E-02 
2341	 8.79525701074351E-02 
2342	 8.78054901292684E-02 
2343	 0.087572063206794 
2344	 8.71757093561825E-02 
2345	 8.67022021557543E-02 
2346	 8.43611417982143E-02 
2347	 8.47831544223925E-02 
2348	 0.084763613161153 
2349	 8.34785774625272E-02 
2350	 8.56378879400056E-02 
2351	 8.43048179569514E-02 
2352	 8.17834124993729E-02 
2353	 0.082174558857001 
2354	 8.15599218768722E-02 
2355	 8.16377695815956E-02 
2356	 8.13205766519032E-02 
2357	 8.07916004795904E-02 
2358	 7.97495090119154E-02 
2359	 7.87806245015922E-02 
2360	 8.05829551329109E-02 
2361	 8.02679370520841E-02 
2362	 7.99879202997308E-02 
2363	 8.20611145811513E-02 
2364	 8.15880154566011E-02 
2365	 0.080650420334417 
2366	 8.11243970027703E-02 
2367	 8.03420944151557E-02 
2368	 7.97280414810544E-02 
2369	 8.21221315011004E-02 
2370	 8.37779384795145E-02 
2371	 8.41003261771895E-02 
2372	 0.084119939286729 
2373	 0.082652726662425 
2374	 8.22745255178747E-02 
2375	 8.24676735726827E-02 
2376	 8.14305825533745E-02 
2377	 8.06408780988714E-02 
2378	 7.95760581433209E-02 
2379	 7.56825791014869E-02 
2380	 7.51962624136422E-02 
2381	 7.89655020346499E-02 
2382	 7.90141972385266E-02 
2383	 7.74157953170466E-02 
2384	 7.76988332922247E-02 
2385	 7.69429289420797E-02 
2386	 7.63275264134183E-02 
2387	 7.81941511473356E-02 
2388	 7.79886399843638E-02 
2389	 7.44763596084487E-02 
2390	 7.34499412273941E-02 
2391	 7.40953123242724E-02 
2392	 0.073819109171444 
2393	 7.45509511765704E-02 
2394	 7.51359314783749E-02 
2395	 7.49089559354624E-02 
2396	 7.47352715187949E-02 
2397	 7.47449041302941E-02 
2398	 7.43306710881427E-02 
2399	 7.27009128733751E-02 
2400	 7.18913480211182E-02 
2401	 7.22625450271094E-02 
2402	 7.19546604971671E-02 
2403	 6.97709973366911E-02 
2404	 6.81710924613104E-02 
2405	 6.62146407236316E-02 
2406	 6.39083799311813E-02 
2407	 6.32883803449384E-02 
2408	 6.39279274877389E-02 
2409	 6.47035944783085E-02 
2410	 6.69812151641417E-02 
2411	 7.27609821806194E-02 
2412	 7.62236507325283E-02 
2413	 7.77305998359267E-02 
2414	 0.078666553536694 
2415	 7.18072210423902E-02 
2416	 0.067000080681544 
2417	 6.62296279037355E-02 
2418	 6.38748251275698E-02 
2419	 6.49180229858644E-02 
2420	 6.80021971974452E-02 
2421	 6.79193932681711E-02 
2422	 6.68822951505363E-02 
2423	 6.90019523735931E-02 
2424	 6.88504183151808E-02 
2425	 7.00462187835693E-02 
2426	 7.37567948305296E-02 
2427	 7.43985231338188E-02 
2428	 7.47457935495626E-02 
2429	 7.21184689646497E-02 
2430	 6.63874115895105E-02 
2431	 6.75302488561058E-02 
2432	 7.03156967673479E-02 
2433	 6.96016454093175E-02 
2434	 7.05568103090443E-02 
2435	 6.75957843602678E-02 
2436	 6.36083951687349E-02 
2437	 5.98319385519862E-02 
2438	 5.95149929075347E-02 
2439	 6.11006660559959E-02 
2440	 6.09164197239612E-02 
2441	 0.063347750170158 
2442	 6.48542364256009E-02 
2443	 6.25869965527333E-02 
2444	 0.060420968781367 
2445	 0.061820549196213 
2446	 6.01027627910897E-02 
2447	 4.92412949883911E-02 
2448	 4.73221879432523E-02 
2449	 5.49078650217948E-02 
2450	 5.61868820859063E-02 
2451	 5.78246599558226E-02 
2452	 6.04296362817139E-02 
2453	 5.76009691897736E-02 
2454	 0.057079127396928 
2455	 6.33055456445204E-02 
2456	 0.062731785255691 
2457	 5.45216330578099E-02 
2458	 5.24561517401341E-02 
2459	 5.11295550895602E-02 
2460	 5.27948175496459E-02 
2461	 6.50700373485382E-02 
2462	 6.72986272133658E-02 
2463	 0.061184758581781 
2464	 6.05404880993236E-02 
2465	 5.54961505203186E-02 
2466	 5.42274716611977E-02 
2467	 6.15796267337616E-02 
2468	 6.11027868574159E-02 
2469	 5.43743257499066E-02 
2470	 5.35228896409136E-02 
2471	 5.25866079213278E-02 
2472	 5.43156276687131E-02 
2473	 0.060803518454125 
2474	 0.070169516987811 
2475	 8.69750221658173E-02 
2476	 9.23596697594753E-02 
2477	 0.101425453383727 
2478	 9.74726302808232E-02 
2479	 6.52710038086399E-02 
2480	 0.057091969764164 
2481	 5.73520572498293E-02 
2482	 4.56108434206267E-02 
2483	 3.76019124591379E-02 
2484	 2.87817629661372E-02 
2485	-4.44031874821973E-03 
2486	 1.63577303268461E-02 
2487	 5.94924709266786E-02 
2488	 0.074703597930075 
2489	 8.96182635245762E-02 
2490	 7.36286313055332E-02 
2491	 3.58678594702142E-02 
2492	-1.06606082322631E-02 
2493	-9.85240639561651E-03 
2494	 4.86669140076015E-02 
2495	 0.049291999768115 
2496	 0.102166819988795 
2497	 0.121061556437168 
2498	 3.27820426974332E-02 
2499	 1.61435538847547E-02 
2500	-3.18151909216208E-02 
