Wavelength	ref00013.asd
350	 2.76067686252819E-02 
351	 2.79206020460614E-02 
352	 2.74930502786782E-02 
353	 2.87776968004679E-02 
354	 2.88136838100556E-02 
355	 2.88795469232074E-02 
356	 2.98302031612653E-02 
357	 3.00874894842972E-02 
358	 3.02473600415545E-02 
359	 3.08125493094754E-02 
360	 3.18626462426377E-02 
361	 3.18448253124767E-02 
362	 3.19589696971011E-02 
363	 3.26125971772407E-02 
364	 3.35189426844484E-02 
365	 3.38346421960315E-02 
366	 3.43016138791356E-02 
367	 3.50370359457918E-02 
368	 0.0350189525389 
369	 3.55856079441133E-02 
370	 3.61707391750533E-02 
371	 3.62255066945735E-02 
372	 3.67127870766825E-02 
373	 3.71027670723016E-02 
374	 3.72734004713332E-02 
375	 3.74112023577171E-02 
376	 3.82444305833863E-02 
377	 3.90779549153983E-02 
378	 3.96193429969031E-02 
379	 4.02112304190985E-02 
380	 0.040541048125453 
381	 4.08755584421764E-02 
382	 4.13842240901329E-02 
383	 4.16138302582361E-02 
384	 4.21016708747933E-02 
385	 4.27558067233065E-02 
386	 4.32858447280429E-02 
387	 4.41075906705648E-02 
388	 4.51352367582541E-02 
389	 4.59939769474323E-02 
390	 4.61199561141908E-02 
391	 4.63630057611531E-02 
392	 4.67013164716028E-02 
393	 4.70047464828322E-02 
394	 4.72777190061406E-02 
395	 4.76714978449534E-02 
396	 4.82544204894085E-02 
397	 4.90291685672947E-02 
398	 4.99248841697737E-02 
399	 5.06900605015618E-02 
400	 5.12175785273021E-02 
401	 5.15549860525216E-02 
402	 5.20864458551373E-02 
403	 5.23630033716447E-02 
404	 5.22201469396209E-02 
405	 5.22915921408913E-02 
406	 5.24633093707708E-02 
407	 5.25716519970876E-02 
408	 5.25357900152784E-02 
409	 5.28699762714411E-02 
410	 5.32068700854332E-02 
411	 5.34450498501022E-02 
412	 0.053740064786572 
413	 5.38526417656932E-02 
414	 5.39930269185545E-02 
415	 5.42379599329025E-02 
416	 5.42312506071894E-02 
417	 5.43009661358188E-02 
418	 0.054388749951685 
419	 5.43728022455027E-02 
420	 5.45173045188917E-02 
421	 5.46017528113484E-02 
422	 5.46169854214162E-02 
423	 5.47446722852321E-02 
424	 5.48385547366127E-02 
425	 5.47937307406289E-02 
426	 5.46450604912868E-02 
427	 5.47217093552092E-02 
428	 5.46691359624769E-02 
429	 5.44452976077415E-02 
430	 5.41981292883156E-02 
431	 5.43733594650773E-02 
432	 5.45562872817751E-02 
433	 5.46340923269015E-02 
434	 5.47874729108323E-02 
435	 5.48639485192263E-02 
436	 5.47807372436943E-02 
437	 5.45749711004248E-02 
438	 5.45018982933185E-02 
439	 5.43452144501949E-02 
440	 5.41950042908535E-02 
441	 5.41843665511786E-02 
442	 5.40784097495999E-02 
443	 0.053968679087235 
444	 5.38407562478215E-02 
445	 5.35721704141295E-02 
446	 5.33059216584696E-02 
447	 5.31045526884738E-02 
448	 5.29609272614787E-02 
449	 5.27572044210797E-02 
450	 5.24782030991457E-02 
451	 5.21265013958398E-02 
452	 5.17295668106433E-02 
453	 5.13795877210084E-02 
454	 5.10313737811641E-02 
455	 0.050680953338646 
456	 5.03835819076218E-02 
457	 5.00013087340751E-02 
458	 4.95847265007901E-02 
459	 4.91943252309575E-02 
460	 4.87891651402719E-02 
461	 4.83269545540031E-02 
462	 4.78480115994675E-02 
463	 4.74207899464384E-02 
464	 4.69098085560681E-02 
465	 4.64187621619373E-02 
466	 4.59815012356636E-02 
467	 4.54930455619624E-02 
468	 4.49747138476836E-02 
469	 4.45282144769877E-02 
470	 4.41965185737984E-02 
471	 4.37098052203009E-02 
472	 4.32870739202745E-02 
473	 4.29280774603949E-02 
474	 4.24852597357841E-02 
475	 4.20851472265368E-02 
476	 4.16734467698596E-02 
477	 4.12492229243095E-02 
478	 4.09658901929851E-02 
479	 4.06177325392487E-02 
480	 4.02851578879779E-02 
481	 4.00847334569993E-02 
482	 0.039801088391692 
483	 3.94619346813244E-02 
484	 3.91298007095514E-02 
485	 3.88833256081021E-02 
486	 0.038554510534984 
487	 3.82806934428164E-02 
488	 3.81644665438319E-02 
489	 3.80623958081859E-02 
490	 3.80069714483876E-02 
491	 3.78930165610947E-02 
492	 3.76259867889401E-02 
493	 3.75336573321006E-02 
494	 3.75360944956585E-02 
495	 3.75537293338319E-02 
496	 3.75500741631954E-02 
497	 3.75080798240041E-02 
498	 3.74923636974353E-02 
499	 3.75494760025192E-02 
500	 3.75821158252166E-02 
501	 3.77375326942778E-02 
502	 3.79475460999447E-02 
503	 0.03803852234554 
504	 3.82257899966898E-02 
505	 3.84215128543777E-02 
506	 3.86054361457843E-02 
507	 3.89284551549857E-02 
508	 3.92391508966055E-02 
509	 3.95602890717311E-02 
510	 3.99504144410029E-02 
511	 0.040372831168489 
512	 4.08422002221389E-02 
513	 4.13602979481944E-02 
514	 4.19154336048784E-02 
515	 4.24690096513958E-02 
516	 4.30290727804061E-02 
517	 4.36161600298836E-02 
518	 4.42573841596623E-02 
519	 4.49955537060841E-02 
520	 4.58050177600988E-02 
521	 4.66023883669788E-02 
522	 4.71487497788247E-02 
523	 4.77996886474602E-02 
524	 4.86045463810349E-02 
525	 4.92274518867493E-02 
526	 4.99027599531403E-02 
527	 5.06758256008451E-02 
528	 5.15204636344783E-02 
529	 5.23434328533923E-02 
530	 5.30703777171973E-02 
531	 5.37273107901625E-02 
532	 5.44049289409531E-02 
533	 5.51462006727834E-02 
534	 0.055977082222108 
535	 0.056832893698195 
536	 5.75123072772281E-02 
537	 0.058259075898924 
538	 5.90804162152186E-02 
539	 5.99196062544692E-02 
540	 6.07780278172047E-02 
541	 6.17751664748135E-02 
542	 6.28517231485312E-02 
543	 0.06381232920101 
544	 6.49196652951937E-02 
545	 6.61286491431183E-02 
546	 6.73899950477599E-02 
547	 6.87608348276863E-02 
548	 7.01850619840661E-02 
549	 7.16928022233457E-02 
550	 7.33225759078194E-02 
551	 7.49270207285565E-02 
552	 7.65940460457275E-02 
553	 7.83894468166058E-02 
554	 8.03229520644214E-02 
555	 8.22440032288661E-02 
556	 8.42119262413412E-02 
557	 8.63018551272601E-02 
558	 8.84337446945846E-02 
559	 9.06749516877718E-02 
560	 0.092991636633507 
561	 9.53022219615055E-02 
562	 9.75899775667798E-02 
563	 9.98741004668603E-02 
564	 0.102160442840036 
565	 0.10438608831935 
566	 0.106754215225652 
567	 0.109263958084429 
568	 0.111825294740461 
569	 0.114313702358366 
570	 0.116806220683242 
571	 0.119398221323582 
572	 0.12218469168406 
573	 0.124966285486522 
574	 0.127750158320335 
575	 0.130595185192836 
576	 0.133531901543495 
577	 0.136380392726984 
578	 0.13912407995925 
579	 0.141843637271927 
580	 0.144598176212228 
581	 0.147234859212093 
582	 0.149701159001394 
583	 0.152107364020035 
584	 0.154269156073267 
585	 0.15623011931404 
586	 0.158116864999163 
587	 0.160164154250475 
588	 0.162034048302752 
589	 0.163802290136533 
590	 0.165817736896344 
591	 0.168150868452173 
592	 0.170310881077835 
593	 0.172110707938522 
594	 0.173885187994073 
595	 0.175670935812725 
596	 0.17748264261635 
597	 0.17930075320434 
598	 0.180990224603168 
599	 0.182724213457225 
600	 0.184457795237104 
601	 0.185923516825577 
602	 0.187293109452159 
603	 0.188622831259845 
604	 0.189885499650215 
605	 0.190891331331202 
606	 0.191888723656171 
607	 0.19279995805623 
608	 0.193430969138566 
609	 0.194067352993028 
610	 0.194632693632156 
611	 0.19508059581957 
612	 0.195459952168414 
613	 0.195745528892581 
614	 0.196064379494577 
615	 0.19647491979693 
616	 0.196625706142722 
617	 0.196868072087233 
618	 0.197249088846526 
619	 0.197602559383288 
620	 0.198026048629457 
621	 0.198361248435416 
622	 0.19855662199309 
623	 0.198823103987323 
624	 0.199073176817044 
625	 0.199350810965015 
626	 0.199712892811728 
627	 0.200071565586248 
628	 0.200428118174424 
629	 0.200751330746625 
630	 0.200979434241626 
631	 0.201250756907794 
632	 0.201491409193193 
633	 0.201635382507124 
634	 0.201752171374091 
635	 0.201778599773965 
636	 0.201733602577547 
637	 0.201664887095175 
638	 0.201550407519765 
639	 0.201280775169144 
640	 0.200864836977715 
641	 0.200476981418668 
642	 0.200017011350016 
643	 0.199521734563807 
644	 0.199037180714231 
645	 0.198551304094803 
646	 0.198043231564989 
647	 0.197580338116408 
648	 0.197247150557216 
649	 0.196739024230123 
650	 0.196352921309392 
651	 0.196200675697659 
652	 0.195964344424201 
653	 0.195917616948704 
654	 0.195924322235739 
655	 0.195730469187067 
656	 0.195099732323327 
657	 0.194602325126212 
658	 0.194355187493425 
659	 0.193998959745525 
660	 0.193594857069986 
661	 0.192997257621395 
662	 0.192226184666462 
663	 0.191628875204869 
664	 0.190963319138009 
665	 0.190199433832468 
666	 0.189403875755813 
667	 0.18875009749233 
668	 0.188187238732443 
669	 0.187674428156503 
670	 0.18718343921352 
671	 0.186729590686115 
672	 0.186335203951018 
673	 0.186037444981192 
674	 0.185903694433217 
675	 0.185770587820803 
676	 0.18565690068952 
677	 0.18564641393746 
678	 0.185705184843517 
679	 0.185925223809587 
680	 0.186347790454748 
681	 0.186957335496173 
682	 0.187920868333772 
683	 0.189111217203269 
684	 0.190474775102339 
685	 0.192333715851538 
686	 0.194340008361944 
687	 0.19657633287457 
688	 0.199060691632641 
689	 0.201555431675789 
690	 0.204191199022616 
691	 0.207066151452734 
692	 0.209986134607192 
693	 0.212946183954894 
694	 0.216046675833273 
695	 0.219300367892663 
696	 0.22250752346644 
697	 0.225701459239831 
698	 0.228900506163468 
699	 0.232075275929723 
700	 0.235102191772004 
701	 0.238156957951148 
702	 0.24123093412219 
703	 0.244069850425259 
704	 0.24702418308706 
705	 0.249842880411598 
706	 0.252355509823421 
707	 0.254871704719506 
708	 0.257329267138515 
709	 0.259745703014898 
710	 0.262125374289029 
711	 0.264307613408953 
712	 0.266514672141748 
713	 0.268752990133264 
714	 0.270759274189736 
715	 0.272929399659498 
716	 0.275033929910778 
717	 0.276888217830177 
718	 0.278626188961681 
719	 0.280510085150822 
720	 0.282521334586307 
721	 0.284480578410475 
722	 0.28621628706839 
723	 0.28791425164155 
724	 0.289673852141455 
725	 0.291276894475053 
726	 0.292859711670074 
727	 0.294420638508096 
728	 0.295948074903101 
729	 0.297320345586296 
730	 0.298758129969499 
731	 0.300096566985649 
732	 0.301147893111799 
733	 0.302354167055771 
734	 0.303575609370386 
735	 0.304716034032197 
736	 0.305723057308936 
737	 0.306681864121464 
738	 0.307614086267828 
739	 0.308525138602073 
740	 0.309373383396418 
741	 0.310139103934788 
742	 0.310880683582733 
743	 0.311641013792514 
744	 0.312293169825074 
745	 0.312938760551224 
746	 0.313567876837072 
747	 0.314096058315745 
748	 0.314697236382362 
749	 0.315209890971608 
750	 0.315606999517396 
751	 0.316163481240328 
752	 0.316595372973666 
753	 0.316928097188615 
754	 0.317265285828812 
755	 0.317618946439509 
756	 0.318214976305802 
757	 0.319024683118686 
758	 0.319812689456184 
759	 0.319868735855742 
760	 0.319403477488261 
761	 0.319196775917475 
762	 0.320683203195845 
763	 0.320607648094598 
764	 0.320365028080159 
765	 0.32094830618387 
766	 0.321101098442709 
767	 0.321378097629358 
768	 0.321699951279802 
769	 0.321880660536736 
770	 0.322042785690204 
771	 0.322237381873019 
772	 0.322498966394159 
773	 0.322826331007522 
774	 0.322921768910268 
775	 0.323090018630515 
776	 0.323445446787643 
777	 0.323624148444981 
778	 0.323860234062994 
779	 0.324109942974032 
780	 0.324302148653807 
781	 0.324538994892694 
782	 0.324848313662391 
783	 0.325108156533537 
784	 0.325193456334964 
785	 0.325546930145613 
786	 0.325821693068237 
787	 0.325962317074631 
788	 0.326278183684339 
789	 0.326575773353332 
790	 0.326833161248844 
791	 0.327058404815791 
792	 0.327250612870211 
793	 0.327536920289394 
794	 0.327780189398435 
795	 0.327876769193984 
796	 0.328210470654057 
797	 0.328560633037984 
798	 0.328842424912947 
799	 0.329068168831482 
800	 0.329260606939711 
801	 0.329461172171614 
802	 0.329696109974954 
803	 0.329971373563024 
804	 0.330241428495025 
805	 0.330538781370732 
806	 0.330853765623404 
807	 0.331061739277195 
808	 0.33126053618784 
809	 0.331501294636077 
810	 0.331794224475707 
811	 0.332071930875526 
812	 0.332287556605042 
813	 0.332424813122227 
814	 0.332489267490127 
815	 0.332468026242382 
816	 0.332587838928533 
817	 0.332889937170658 
818	 0.33319430916309 
819	 0.333570646323708 
820	 0.334052349474856 
821	 0.334440953556369 
822	 0.334153558447478 
823	 0.334079027118608 
824	 0.334698760602269 
825	 0.335844400600417 
826	 0.336094925683529 
827	 0.335903473515141 
828	 0.335749573376545 
829	 0.336009013918382 
830	 0.336263225561615 
831	 0.33649446709471 
832	 0.336668594616024 
833	 0.336777788124106 
834	 0.337207419518589 
835	 0.337698148925737 
836	 0.338052537701142 
837	 0.338258287681248 
838	 0.338395276620691 
839	 0.33860419421565 
840	 0.338925328692237 
841	 0.339197660868328 
842	 0.33930035134109 
843	 0.33940945870276 
844	 0.339700259604432 
845	 0.340021541310753 
846	 0.34044558899242 
847	 0.340777485312835 
848	 0.340804600949002 
849	 0.340814058115904 
850	 0.341088490629511 
851	 0.341616176226278 
852	 0.342072971945662 
853	 0.341645922281036 
854	 0.341204791100592 
855	 0.341520061343581 
856	 0.342828141751393 
857	 0.34359510550949 
858	 0.343879877815216 
859	 0.343926235128721 
860	 0.343759534423882 
861	 0.344014314884361 
862	 0.344529478946889 
863	 0.344915025359168 
864	 0.344783180749986 
865	 0.344538885187517 
866	 0.34445798861888 
867	 0.344752574842542 
868	 0.345587237388505 
869	 0.34642350135451 
870	 0.346737412127512 
871	 0.346367678130868 
872	 0.346568310220336 
873	 0.346816590604937 
874	 0.346960541791649 
875	 0.347171221209345 
876	 0.347452747682015 
877	 0.347733935867246 
878	 0.347937447893994 
879	 0.348021552029447 
880	 0.348257513490467 
881	 0.348558587029861 
882	 0.348858951639028 
883	 0.349192731315784 
884	 0.349383185915313 
885	 0.349287491333601 
886	 0.349122128258273 
887	 0.349687281853591 
888	 0.350063947246858 
889	 0.350304951470832 
890	 0.350627346956274 
891	 0.350999107647767 
892	 0.351224123665308 
893	 0.351229849006735 
894	 0.351045498980241 
895	 0.350865503723357 
896	 0.350530044530048 
897	 0.350170540038525 
898	 0.350044857121191 
899	 0.35029189231914 
900	 0.350789896886457 
901	 0.351476289109181 
902	 0.352358885218793 
903	 0.35368032835874 
904	 0.354445110237717 
905	 0.354251419732297 
906	 0.35328996674664 
907	 0.352342317638753 
908	 0.352073227934433 
909	 0.352431689216373 
910	 0.352801016607401 
911	 0.353404622078885 
912	 0.353987608410654 
913	 0.354253935907633 
914	 0.354026348364731 
915	 0.353971358074002 
916	 0.354301729540436 
917	 0.354826209546384 
918	 0.355052925960675 
919	 0.355393868224443 
920	 0.355792553809193 
921	 0.355994223510119 
922	 0.355684041197645 
923	 0.356235258111296 
924	 0.356599813179053 
925	 0.356409928588317 
926	 0.356967971353448 
927	 0.356789759202389 
928	 0.35608702107355 
929	 0.354948617587442 
930	 0.352559933356625 
931	 0.351118606596746 
932	 0.349771652198978 
933	 0.347949246604564 
934	 0.347686279065488 
935	 0.348559496463714 
936	 0.350748037458124 
937	 0.353638180852084 
938	 0.355265797580747 
939	 0.356962106667845 
940	 0.3570902918561 
941	 0.355258505117139 
942	 0.354404513263491 
943	 0.352665552225501 
944	 0.350997516861819 
945	 0.350600268646538 
946	 0.351631271081933 
947	 0.352477895198345 
948	 0.352599877879616 
949	 0.352322478600457 
950	 0.352913436554842 
951	 0.351900737882243 
952	 0.351011894988619 
953	 0.351363730006668 
954	 0.350655804517951 
955	 0.350610466052177 
956	 0.350343048551853 
957	 0.3495752559926 
958	 0.350354347720475 
959	 0.349848805092059 
960	 0.349522098243734 
961	 0.35026350619121 
962	 0.350102116172027 
963	 0.350758095392499 
964	 0.351289656292679 
965	 0.351078589311454 
966	 0.351019038228044 
967	 0.352384929155216 
968	 0.353415516616105 
969	 0.353158359101078 
970	 0.352944798036804 
971	 0.352870854056124 
972	 0.352573826398439 
973	 0.351967061816772 
974	 0.351518353300324 
975	 0.351327118695747 
976	 0.351985992469227 
977	 0.353083607730562 
978	 0.353058167778218 
979	 0.352904804801438 
980	 0.353013180801992 
981	 0.35361367520823 
982	 0.354659069418789 
983	 0.35443286026484 
984	 0.354549100271549 
985	 0.355102343261753 
986	 0.354712429653886 
987	 0.35524921295431 
988	 0.355575629078006 
989	 0.355595385332597 
990	 0.356046753323462 
991	 0.355884412786099 
992	 0.356452297262752 
993	 0.357354338732805 
994	 0.357469986534955 
995	 0.358561038959566 
996	 0.359478596468257 
997	 0.359309379951594 
998	 0.358179947223456 
999	 0.359213353103361 
1000	 0.359053885586846 
1001	 0.343795485682437 
1002	 0.344158261303654 
1003	 0.344474516730256 
1004	 0.344825404434673 
1005	 0.345233566489146 
1006	 0.345637750172074 
1007	 0.346002541635626 
1008	 0.346420204758814 
1009	 0.346856311648859 
1010	 0.347288106041861 
1011	 0.347654020633721 
1012	 0.34801899150544 
1013	 0.34835491170735 
1014	 0.348699366389656 
1015	 0.34909214663355 
1016	 0.349489438968069 
1017	 0.349841681562331 
1018	 0.350187737637505 
1019	 0.350408243608127 
1020	 0.350753840597566 
1021	 0.35117974325072 
1022	 0.351596771595535 
1023	 0.352045655898637 
1024	 0.352461928218091 
1025	 0.352895895986293 
1026	 0.353319727612714 
1027	 0.353784125382443 
1028	 0.354221964187803 
1029	 0.354639150283139 
1030	 0.355114164463743 
1031	 0.355474351126112 
1032	 0.355821557092832 
1033	 0.356254389547048 
1034	 0.356713617255345 
1035	 0.357177505298859 
1036	 0.357749454912661 
1037	 0.358206227808322 
1038	 0.358602367072306 
1039	 0.359020249494677 
1040	 0.359321688245777 
1041	 0.359723714491855 
1042	 0.360216084760399 
1043	 0.360645643014373 
1044	 0.361146698751186 
1045	 0.361648601217063 
1046	 0.362026825520742 
1047	 0.362343460482097 
1048	 0.362779552954727 
1049	 0.363150885779617 
1050	 0.363467227567415 
1051	 0.363739817784921 
1052	 0.364132717467527 
1053	 0.364376832410871 
1054	 0.364537500311551 
1055	 0.364845022853667 
1056	 0.36506830787791 
1057	 0.365098771504764 
1058	 0.365282093792453 
1059	 0.365430381533969 
1060	 0.365300872726924 
1061	 0.365317095114583 
1062	 0.365388598343017 
1063	 0.36534620122414 
1064	 0.365418771004086 
1065	 0.36546703496203 
1066	 0.365549756472946 
1067	 0.365508513146167 
1068	 0.365453396841116 
1069	 0.365322461198101 
1070	 0.365163283699914 
1071	 0.365025969209353 
1072	 0.364892791732309 
1073	 0.36489695056627 
1074	 0.364868874759522 
1075	 0.36467401541333 
1076	 0.364523639419925 
1077	 0.364442976696228 
1078	 0.364344520151567 
1079	 0.364246648547593 
1080	 0.364180020058428 
1081	 0.364132212887673 
1082	 0.364061652451745 
1083	 0.363942221896917 
1084	 0.363867425644351 
1085	 0.363839255578019 
1086	 0.363624976529511 
1087	 0.363425030996653 
1088	 0.363342452207531 
1089	 0.363210868937608 
1090	 0.363154414280323 
1091	 0.363129973214499 
1092	 0.363059667608299 
1093	 0.362923183301333 
1094	 0.362765947322991 
1095	 0.3626909907873 
1096	 0.362593390786151 
1097	 0.362517503213713 
1098	 0.362442187071835 
1099	 0.362391695584866 
1100	 0.362238840589114 
1101	 0.362131169978819 
1102	 0.362131048350617 
1103	 0.362122331321236 
1104	 0.362020941714229 
1105	 0.361876138798431 
1106	 0.361640386159898 
1107	 0.361454663699996 
1108	 0.361297756666116 
1109	 0.361046618570834 
1110	 0.360804458332889 
1111	 0.360587783896527 
1112	 0.360243417115896 
1113	 0.360080804802972 
1114	 0.360125199414805 
1115	 0.360038273775186 
1116	 0.359984579288235 
1117	 0.359846555319956 
1118	 0.359596311664796 
1119	 0.359530531734571 
1120	 0.359533681401447 
1121	 0.359588187099912 
1122	 0.359649046416648 
1123	 0.359701218287622 
1124	 0.359693862252843 
1125	 0.359464049923021 
1126	 0.359219382999074 
1127	 0.358876452527304 
1128	 0.358622399594185 
1129	 0.358408147715809 
1130	 0.358046517643592 
1131	 0.35774786589478 
1132	 0.357252268102076 
1133	 0.356535602243297 
1134	 0.355935181673042 
1135	 0.355382311241381 
1136	 0.354730298009698 
1137	 0.354098919062275 
1138	 0.353422992942446 
1139	 0.352578765312334 
1140	 0.351685153387792 
1141	 0.35085177352428 
1142	 0.349943863675574 
1143	 0.349063426699989 
1144	 0.348202454546358 
1145	 0.34737236492976 
1146	 0.346503724476359 
1147	 0.345706099879499 
1148	 0.344973638922864 
1149	 0.344322353007315 
1150	 0.34367566717848 
1151	 0.343215467863756 
1152	 0.342994780128555 
1153	 0.342621140714223 
1154	 0.342338948992654 
1155	 0.342204292672509 
1156	 0.341968446847707 
1157	 0.341773403061849 
1158	 0.341667886388605 
1159	 0.341535993748438 
1160	 0.341440997165857 
1161	 0.341348987068028 
1162	 0.341334012909116 
1163	 0.341373633127444 
1164	 0.34140184745691 
1165	 0.341483444017704 
1166	 0.341535908510012 
1167	 0.34154866624173 
1168	 0.341595588566498 
1169	 0.341670136872826 
1170	 0.341734879701524 
1171	 0.341764531066622 
1172	 0.341877833481085 
1173	 0.341992583404457 
1174	 0.342138539188793 
1175	 0.342269990304866 
1176	 0.342283009830279 
1177	 0.342392675280109 
1178	 0.342478308965469 
1179	 0.342603525198782 
1180	 0.342856202989603 
1181	 0.342987290838443 
1182	 0.343051087433801 
1183	 0.343091687147949 
1184	 0.343054701082457 
1185	 0.343079065709012 
1186	 0.343119109568218 
1187	 0.343144617025235 
1188	 0.343177685324417 
1189	 0.343217470258635 
1190	 0.343286312536256 
1191	 0.343327527953418 
1192	 0.343387501234213 
1193	 0.34345191043349 
1194	 0.343502280477183 
1195	 0.343501677023518 
1196	 0.343547241605127 
1197	 0.343613687997051 
1198	 0.343709151073818 
1199	 0.343848839473841 
1200	 0.34394301980558 
1201	 0.343994987344338 
1202	 0.344141950785722 
1203	 0.344275462400202 
1204	 0.344482803323944 
1205	 0.344874832185694 
1206	 0.345122807386895 
1207	 0.345307219075153 
1208	 0.345507742356002 
1209	 0.345631800250567 
1210	 0.345805476253589 
1211	 0.346029013873784 
1212	 0.346261329385642 
1213	 0.346515612384665 
1214	 0.346811318399982 
1215	 0.347057677468087 
1216	 0.347309682101549 
1217	 0.347547232022583 
1218	 0.347734000648685 
1219	 0.347977015116583 
1220	 0.34825277985243 
1221	 0.348512303783706 
1222	 0.348772487769626 
1223	 0.349049747327492 
1224	 0.349341361808194 
1225	 0.349624193742923 
1226	 0.349898025028458 
1227	 0.350214065535243 
1228	 0.350564166581143 
1229	 0.35087879569265 
1230	 0.35124331049973 
1231	 0.351591939097273 
1232	 0.351838611083551 
1233	 0.351983457894528 
1234	 0.35222573777272 
1235	 0.352432230463398 
1236	 0.352685016209613 
1237	 0.353042008998487 
1238	 0.353290982743618 
1239	 0.353474971507289 
1240	 0.3536977143865 
1241	 0.353891386185623 
1242	 0.354118379557116 
1243	 0.354381842923286 
1244	 0.354630160242531 
1245	 0.354860502255215 
1246	 0.355129538423269 
1247	 0.355458980189265 
1248	 0.355725150951098 
1249	 0.355951376638188 
1250	 0.356224478919539 
1251	 0.356475713321379 
1252	 0.356759690465936 
1253	 0.357011491234376 
1254	 0.357298068557651 
1255	 0.35757634757975 
1256	 0.357795904719112 
1257	 0.358088134285356 
1258	 0.35847807978564 
1259	 0.358787217358492 
1260	 0.359052104112052 
1261	 0.359365086722739 
1262	 0.359685316882391 
1263	 0.359997435050988 
1264	 0.360389132025535 
1265	 0.360665679676966 
1266	 0.36084156692141 
1267	 0.361042139383494 
1268	 0.361217321222195 
1269	 0.361346127255204 
1270	 0.361479243916481 
1271	 0.361552898111312 
1272	 0.361577540236993 
1273	 0.361517021522645 
1274	 0.361461117165715 
1275	 0.361366542022581 
1276	 0.361286994591499 
1277	 0.361225767155982 
1278	 0.361045665680728 
1279	 0.36081845467136 
1280	 0.360576421400575 
1281	 0.360254893986374 
1282	 0.359918869098694 
1283	 0.359589986092516 
1284	 0.359215725404397 
1285	 0.358768650892339 
1286	 0.358323826449494 
1287	 0.357858047618909 
1288	 0.357404248341028 
1289	 0.356931324599608 
1290	 0.356454502592706 
1291	 0.356037693211929 
1292	 0.355528805051843 
1293	 0.354919162177603 
1294	 0.35434776400943 
1295	 0.35372677892652 
1296	 0.353148178705341 
1297	 0.352499446734608 
1298	 0.351854704255622 
1299	 0.351177682549607 
1300	 0.350419293320631 
1301	 0.349714985301111 
1302	 0.349047233014482 
1303	 0.348326689469897 
1304	 0.34755040764889 
1305	 0.346842226009045 
1306	 0.346151018448361 
1307	 0.345446212789634 
1308	 0.344790159525807 
1309	 0.344086632493069 
1310	 0.343368604282188 
1311	 0.342596716534185 
1312	 0.341731537082502 
1313	 0.340958262050984 
1314	 0.340219817545511 
1315	 0.339433528262488 
1316	 0.338683693164879 
1317	 0.337934173799345 
1318	 0.337102728048071 
1319	 0.336313945361445 
1320	 0.335617020031971 
1321	 0.334876258244432 
1322	 0.334047704119749 
1323	 0.333131611039202 
1324	 0.332282527846009 
1325	 0.331356351174815 
1326	 0.330496805102877 
1327	 0.329723484264826 
1328	 0.328831762324847 
1329	 0.327887291524889 
1330	 0.326920904923184 
1331	 0.325853621597639 
1332	 0.324908279778812 
1333	 0.324028183909682 
1334	 0.323122886698312 
1335	 0.322250669861708 
1336	 0.321424320652262 
1337	 0.320538098940094 
1338	 0.319767807758108 
1339	 0.319167523442727 
1340	 0.318442851289067 
1341	 0.31760032676059 
1342	 0.316804321499542 
1343	 0.315778099475898 
1344	 0.314882783864227 
1345	 0.313963861692808 
1346	 0.313215633671795 
1347	 0.312470920191081 
1348	 0.311570813521806 
1349	 0.310763987071172 
1350	 0.310084356881605 
1351	 0.309148561439368 
1352	 0.308264942847458 
1353	 0.307175348126374 
1354	 0.305635047610241 
1355	 0.304486338452741 
1356	 0.305263461508765 
1357	 0.305151607941753 
1358	 0.307082946810166 
1359	 0.308345078703529 
1360	 0.307974631888457 
1361	 0.308032382676204 
1362	 0.304312305964212 
1363	 0.3067950448749 
1364	 0.3198581721399 
1365	 0.323168561018247 
1366	 0.326655940830104 
1367	 0.324103671994249 
1368	 0.314372671413826 
1369	 0.304126548679618 
1370	 0.290931902332674 
1371	 0.28635277141309 
1372	 0.281609716426767 
1373	 0.279590540075242 
1374	 0.280855675500814 
1375	 0.285166407603481 
1376	 0.287113559863895 
1377	 0.285574221091691 
1378	 0.28427302630777 
1379	 0.283239547112481 
1380	 0.278186543932246 
1381	 0.27030298439984 
1382	 0.26349886340104 
1383	 0.254900289161695 
1384	 0.248097684146284 
1385	 0.24139844620763 
1386	 0.238506351915235 
1387	 0.238608114730397 
1388	 0.23634587201055 
1389	 0.235655377936981 
1390	 0.233946675348387 
1391	 0.230782755647404 
1392	 0.227749323761844 
1393	 0.225274517403411 
1394	 0.22238401442575 
1395	 0.21883321135033 
1396	 0.215140311993351 
1397	 0.211295215341005 
1398	 0.208002977274137 
1399	 0.204845632184272 
1400	 0.201186424629015 
1401	 0.197199077186414 
1402	 0.194376561686586 
1403	 0.1924154302322 
1404	 0.189619407818082 
1405	 0.187581982761953 
1406	 0.185156080977283 
1407	 0.181945851604679 
1408	 0.179305730456255 
1409	 0.177365235305116 
1410	 0.175808608178253 
1411	 0.174464635681311 
1412	 0.173407081750537 
1413	 0.172129239891095 
1414	 0.170996254175874 
1415	 0.169939516344975 
1416	 0.168859700035919 
1417	 0.167774962583455 
1418	 0.166794783053184 
1419	 0.16584627801977 
1420	 0.164614166474304 
1421	 0.163962871821234 
1422	 0.163660551818504 
1423	 0.163220283856452 
1424	 0.163020161015814 
1425	 0.162593572971276 
1426	 0.162002890094168 
1427	 0.161441730202044 
1428	 0.160678850824237 
1429	 0.160189469853606 
1430	 0.159855991760051 
1431	 0.159446315995095 
1432	 0.159119253185135 
1433	 0.158777418646859 
1434	 0.158294724099969 
1435	 0.157955201904077 
1436	 0.157717181416427 
1437	 0.15756065915736 
1438	 0.157579490529089 
1439	 0.157429824731096 
1440	 0.157205108575857 
1441	 0.157058524110507 
1442	 0.156805374964083 
1443	 0.156701265420367 
1444	 0.156552661780464 
1445	 0.15660379840389 
1446	 0.156795673630095 
1447	 0.156962957167221 
1448	 0.157066867586511 
1449	 0.157280897127148 
1450	 0.157318364387161 
1451	 0.157155430447214 
1452	 0.157227458174866 
1453	 0.157346839962097 
1454	 0.157506592184445 
1455	 0.157788411714407 
1456	 0.15791676127705 
1457	 0.158011551151278 
1458	 0.158131758242798 
1459	 0.158210672964173 
1460	 0.158306656329091 
1461	 0.158377415076879 
1462	 0.158581326612227 
1463	 0.158810500021135 
1464	 0.159135955096999 
1465	 0.159643728408694 
1466	 0.160165234490214 
1467	 0.160716466268727 
1468	 0.161360175309086 
1469	 0.162091577972085 
1470	 0.162830517480133 
1471	 0.163610761687537 
1472	 0.164358787715812 
1473	 0.165029819387128 
1474	 0.165787348031768 
1475	 0.166512203127083 
1476	 0.167292218134772 
1477	 0.168135621207958 
1478	 0.168964353297321 
1479	 0.169769722856726 
1480	 0.170605794573988 
1481	 0.171427863678075 
1482	 0.172307631930467 
1483	 0.173205852416518 
1484	 0.174134501253606 
1485	 0.175056965334722 
1486	 0.176036526171979 
1487	 0.177040811322125 
1488	 0.178093440270886 
1489	 0.179091370353123 
1490	 0.179985555468461 
1491	 0.180825194986643 
1492	 0.181690187515127 
1493	 0.182619606128019 
1494	 0.183554354061767 
1495	 0.184457041783465 
1496	 0.185405340080573 
1497	 0.186257648290382 
1498	 0.18703395231828 
1499	 0.187937406873203 
1500	 0.188877187250443 
1501	 0.189810892720508 
1502	 0.190821108880523 
1503	 0.191809216009566 
1504	 0.192750731388281 
1505	 0.193747796502227 
1506	 0.194818874776638 
1507	 0.195810185379719 
1508	 0.196793495405178 
1509	 0.197728292435962 
1510	 0.198573462091483 
1511	 0.199522880356623 
1512	 0.200512873795726 
1513	 0.201461185856819 
1514	 0.202461909270121 
1515	 0.203417202127941 
1516	 0.204299222697823 
1517	 0.205243458267889 
1518	 0.206241777955817 
1519	 0.207211064755601 
1520	 0.208196950587188 
1521	 0.20914580177456 
1522	 0.210052979958624 
1523	 0.21100150757129 
1524	 0.211972946835754 
1525	 0.212903944197092 
1526	 0.213831936407908 
1527	 0.214779633436937 
1528	 0.21572099551179 
1529	 0.216642956310342 
1530	 0.217601856804798 
1531	 0.218512215717553 
1532	 0.219364011597871 
1533	 0.220227063359839 
1534	 0.221092013393518 
1535	 0.22194278378294 
1536	 0.222756666052131 
1537	 0.223602512640007 
1538	 0.224459111838038 
1539	 0.225318131654765 
1540	 0.22620642062654 
1541	 0.227073240667651 
1542	 0.227943503958728 
1543	 0.228785859515598 
1544	 0.229605360026338 
1545	 0.230423259076672 
1546	 0.231217200691846 
1547	 0.232017957005945 
1548	 0.232800424766473 
1549	 0.233619356377323 
1550	 0.234496859090623 
1551	 0.235314112795942 
1552	 0.236157004576288 
1553	 0.236939139196198 
1554	 0.237643492823316 
1555	 0.238335387093468 
1556	 0.238915634606016 
1557	 0.239607951648096 
1558	 0.240397404162426 
1559	 0.241115941557353 
1560	 0.241905884907478 
1561	 0.242631061500992 
1562	 0.243187257379162 
1563	 0.243840435868094 
1564	 0.244526572363363 
1565	 0.245261169186526 
1566	 0.246011981426859 
1567	 0.246767219398883 
1568	 0.247501702155302 
1569	 0.2482434088071 
1570	 0.248872529811661 
1571	 0.249445343488013 
1572	 0.250053203658559 
1573	 0.250569087568417 
1574	 0.251171021658928 
1575	 0.251827179001634 
1576	 0.25249528732361 
1577	 0.253166093098828 
1578	 0.253817657138549 
1579	 0.254525310442462 
1580	 0.255118049900851 
1581	 0.255605053938844 
1582	 0.256190950032396 
1583	 0.256759451974768 
1584	 0.257393708094967 
1585	 0.258106751778983 
1586	 0.258759506893631 
1587	 0.259448461690985 
1588	 0.260021431987762 
1589	 0.260519653843506 
1590	 0.26106603767099 
1591	 0.261575498811647 
1592	 0.262079050175669 
1593	 0.262599577911068 
1594	 0.263128827183694 
1595	 0.263611654581635 
1596	 0.264157421765356 
1597	 0.26479776657156 
1598	 0.265331442156478 
1599	 0.265820909061952 
1600	 0.266333977908608 
1601	 0.266831969438544 
1602	 0.267298388104552 
1603	 0.267746121816736 
1604	 0.268237634434116 
1605	 0.268686264348441 
1606	 0.269212317830097 
1607	 0.269824376927032 
1608	 0.270372327829445 
1609	 0.270931312947597 
1610	 0.271430582305002 
1611	 0.271902081773145 
1612	 0.272353997505536 
1613	 0.272762012793291 
1614	 0.273151955938751 
1615	 0.273473656620889 
1616	 0.273923947990384 
1617	 0.274429729159188 
1618	 0.274864511048656 
1619	 0.275352974257 
1620	 0.275794458490963 
1621	 0.276157211308613 
1622	 0.276540864296594 
1623	 0.276975041628 
1624	 0.27733818825652 
1625	 0.277596230507275 
1626	 0.277968356770623 
1627	 0.278416972256056 
1628	 0.278755872400459 
1629	 0.279069067596562 
1630	 0.27943396692927 
1631	 0.279763275265628 
1632	 0.280096750128885 
1633	 0.280513041845076 
1634	 0.280852114461124 
1635	 0.281075070729764 
1636	 0.28143900222452 
1637	 0.281909944953655 
1638	 0.282232070907556 
1639	 0.28255723698181 
1640	 0.282807705647026 
1641	 0.282906988059995 
1642	 0.283128253693172 
1643	 0.283373571414725 
1644	 0.283640045448507 
1645	 0.283961712993619 
1646	 0.284216879279229 
1647	 0.284484891677917 
1648	 0.284664862341921 
1649	 0.284722519916014 
1650	 0.284958653807942 
1651	 0.285259504804742 
1652	 0.285454069950776 
1653	 0.285718770458515 
1654	 0.285868377214271 
1655	 0.285839266598865 
1656	 0.285982287631144 
1657	 0.286214195477487 
1658	 0.286331286749474 
1659	 0.286503012872983 
1660	 0.286692976117272 
1661	 0.286814930680891 
1662	 0.286916809913844 
1663	 0.287026710267212 
1664	 0.287094919152568 
1665	 0.287159888966516 
1666	 0.287235785506195 
1667	 0.287336149560151 
1668	 0.287526163038785 
1669	 0.287641527749187 
1670	 0.287721001376761 
1671	 0.287884496392551 
1672	 0.287918860590223 
1673	 0.287884903957253 
1674	 0.287928195298642 
1675	 0.287920067987371 
1676	 0.287920353689592 
1677	 0.287939731458552 
1678	 0.287905130716737 
1679	 0.287820627522745 
1680	 0.287679417929496 
1681	 0.2875462817945 
1682	 0.287407153877407 
1683	 0.287348958614048 
1684	 0.287284294505774 
1685	 0.28705490449917 
1686	 0.286872746465653 
1687	 0.286786907947629 
1688	 0.286697811797591 
1689	 0.286657895182754 
1690	 0.286578499986304 
1691	 0.286400935634528 
1692	 0.286043909268704 
1693	 0.285825428094046 
1694	 0.285692468918991 
1695	 0.2854817655036 
1696	 0.285261571611201 
1697	 0.285054533687332 
1698	 0.284836588156117 
1699	 0.284566828500038 
1700	 0.284307112836341 
1701	 0.284063865762343 
1702	 0.283720737326701 
1703	 0.2834040313387 
1704	 0.283158378997113 
1705	 0.282881189804017 
1706	 0.282547320298739 
1707	 0.282295785523035 
1708	 0.282154847997704 
1709	 0.281856859763551 
1710	 0.281472229383496 
1711	 0.281148341409881 
1712	 0.280770698207774 
1713	 0.280437816405367 
1714	 0.28018234272383 
1715	 0.279893513256711 
1716	 0.279544678922103 
1717	 0.279231657913258 
1718	 0.278952017505129 
1719	 0.278730623188699 
1720	 0.278548694008732 
1721	 0.278317659209485 
1722	 0.278132268438023 
1723	 0.277863833498008 
1724	 0.277480776681394 
1725	 0.277223182302023 
1726	 0.277055056016621 
1727	 0.276773208669043 
1728	 0.27645806952918 
1729	 0.276227656003709 
1730	 0.275945156203786 
1731	 0.275813448316724 
1732	 0.275607288846807 
1733	 0.275302274210833 
1734	 0.275008869064101 
1735	 0.274551685877311 
1736	 0.274073462644246 
1737	 0.273782622042765 
1738	 0.273457444351521 
1739	 0.273052928696902 
1740	 0.272810568076943 
1741	 0.272384393914877 
1742	 0.271891896438837 
1743	 0.271543129039201 
1744	 0.271086691342301 
1745	 0.270696238986223 
1746	 0.270086332236389 
1747	 0.269492945123597 
1748	 0.269125856651014 
1749	 0.268638349639364 
1750	 0.268355321475859 
1751	 0.26810638217928 
1752	 0.267779723644388 
1753	 0.267533878674154 
1754	 0.267197730368297 
1755	 0.266845507293351 
1756	 0.266381491855954 
1757	 0.265913118551799 
1758	 0.26549117175659 
1759	 0.264989830838531 
1760	 0.264603734582354 
1761	 0.264362945377754 
1762	 0.263955208577776 
1763	 0.263558135139961 
1764	 0.26316857086817 
1765	 0.262605173594565 
1766	 0.262175407349307 
1767	 0.261857424222752 
1768	 0.261554297483203 
1769	 0.261249266641172 
1770	 0.26099449113921 
1771	 0.260781609983734 
1772	 0.260556515693808 
1773	 0.260450007136619 
1774	 0.260356178658983 
1775	 0.26023073993361 
1776	 0.260205419682808 
1777	 0.259852735957544 
1778	 0.259500465234693 
1779	 0.259279221225244 
1780	 0.259149521914126 
1781	 0.259063966972436 
1782	 0.258894990107776 
1783	 0.258845768691364 
1784	 0.258771103894098 
1785	 0.258876453658343 
1786	 0.259240730949732 
1787	 0.259383640229043 
1788	 0.259387339611158 
1789	 0.259498667064387 
1790	 0.259461796225969 
1791	 0.259423748683968 
1792	 0.259838867805911 
1793	 0.259932181053202 
1794	 0.260012489427439 
1795	 0.260749679454339 
1796	 0.260883722227368 
1797	 0.261033672923991 
1798	 0.261650123135111 
1799	 0.261505010270625 
1800	 0.261698599989545 
1801	 0.252758470420372 
1802	 0.252280935753552 
1803	 0.251817531681273 
1804	 0.249785236802174 
1805	 0.249226937144653 
1806	 0.249966717590259 
1807	 0.250002300236294 
1808	 0.249898053641072 
1809	 0.250814158023305 
1810	 0.251175735042006 
1811	 0.251122497115084 
1812	 0.251141056830076 
1813	 0.251570538042875 
1814	 0.251369312394692 
1815	 0.249347379757093 
1816	 0.24911875991513 
1817	 0.250719927716567 
1818	 0.251252361260793 
1819	 0.251837251307289 
1820	 0.253472723343554 
1821	 0.254449664523819 
1822	 0.25519439809105 
1823	 0.253743640186444 
1824	 0.250671294651796 
1825	 0.24773124951021 
1826	 0.238229793646008 
1827	 0.232142471616829 
1828	 0.227317730494504 
1829	 0.225266446358112 
1830	 0.225288734938928 
1831	 0.238027668763045 
1832	 0.238180153347386 
1833	 0.232130386039927 
1834	 0.229199576969625 
1835	 0.202710293094987 
1836	 0.186703488045831 
1837	 0.193182240058877 
1838	 0.204498860099755 
1839	 0.22424854600334 
1840	 0.253832261444515 
1841	 0.265859009038503 
1842	 0.29073760155916 
1843	 0.289437599920527 
1844	 0.237708478479493 
1845	 0.236641113100851 
1846	 0.262336785457197 
1847	 0.269177007228423 
1848	 0.278981270121796 
1849	 0.323980320651139 
1850	 0.321581706796844 
1851	 0.28225688527811 
1852	 0.261656279779897 
1853	 0.220615287315037 
1854	 0.208939568444524 
1855	 0.208547166161812 
1856	 0.212035193087778 
1857	 0.217866252928731 
1858	 0.255994281585685 
1859	 0.26879306220823 
1860	 0.282617823800551 
1861	 0.284525748529118 
1862	 0.283648055109752 
1863	 0.27312848518699 
1864	 0.239585661165885 
1865	 0.225316753328336 
1866	 0.218457990413577 
1867	 0.192109032215101 
1868	 0.190271866209673 
1869	 0.216883072076856 
1870	 0.216506477594342 
1871	 0.221312138505509 
1872	 0.205067093714452 
1873	 0.157283535548771 
1874	 0.146252556119038 
1875	 0.151067240201556 
1876	 0.146015721850345 
1877	 0.139877694876126 
1878	 0.148318621052992 
1879	 0.151726014823132 
1880	 0.147541226371826 
1881	 0.149294092970697 
1882	 0.159776027022246 
1883	 0.158819122453045 
1884	 0.155654254744963 
1885	 0.148907286576331 
1886	 0.133926564704137 
1887	 0.125497425850462 
1888	 0.119338968257153 
1889	 0.117479114417475 
1890	 0.117518275973356 
1891	 0.126125242755308 
1892	 0.127533063866746 
1893	 0.127536136293419 
1894	 0.126061411563278 
1895	 0.120139016419275 
1896	 0.118406766074771 
1897	 0.116303354359598 
1898	 0.113450930122862 
1899	 0.122391270363495 
1900	 0.129621176496389 
1901	 0.136368501988153 
1902	 0.150759640490978 
1903	 0.15311420067532 
1904	 0.149963503657244 
1905	 0.133977245859206 
1906	 9.39705378181914E-02 
1907	 7.44090107251355E-02 
1908	 0.075455497923223 
1909	 7.68929558606829E-02 
1910	 8.67812012817662E-02 
1911	 9.40200159402241E-02 
1912	 9.35577510487994E-02 
1913	 8.06218222673669E-02 
1914	 8.19363040208799E-02 
1915	 9.16896887453438E-02 
1916	 9.12185211648924E-02 
1917	 8.82379530657253E-02 
1918	 8.97358239999919E-02 
1919	 8.54408921594304E-02 
1920	 7.65569141391668E-02 
1921	 0.073961667275808 
1922	 7.27482003502897E-02 
1923	 7.45822565235467E-02 
1924	 8.24637087968594E-02 
1925	 8.37083865493002E-02 
1926	 8.44451360165053E-02 
1927	 8.45903780813336E-02 
1928	 8.22410133017618E-02 
1929	 7.82063158900971E-02 
1930	 7.84270114480868E-02 
1931	 7.77629436763149E-02 
1932	 7.83746812918469E-02 
1933	 7.90792992202107E-02 
1934	 7.93681656747968E-02 
1935	 8.04541671533013E-02 
1936	 8.08494101727986E-02 
1937	 8.07056249046236E-02 
1938	 8.06109042262392E-02 
1939	 8.05238457591148E-02 
1940	 7.97626291988344E-02 
1941	 8.01075536128592E-02 
1942	 8.07079505907092E-02 
1943	 8.18013757757222E-02 
1944	 8.27961086749574E-02 
1945	 8.30255339475918E-02 
1946	 8.25045682577173E-02 
1947	 8.22035332447859E-02 
1948	 8.15330293698723E-02 
1949	 8.16600064372381E-02 
1950	 8.21660461904596E-02 
1951	 8.21971329946831E-02 
1952	 8.30148559103836E-02 
1953	 8.35919594232535E-02 
1954	 8.36244392578566E-02 
1955	 8.43384815292163E-02 
1956	 8.57241436605343E-02 
1957	 8.67948098996652E-02 
1958	 8.75236257446397E-02 
1959	 8.81141534051155E-02 
1960	 8.88011029457455E-02 
1961	 8.90150876543293E-02 
1962	 8.97439840611194E-02 
1963	 9.10099840029987E-02 
1964	 9.16448333455953E-02 
1965	 9.18198244694737E-02 
1966	 9.17262176021488E-02 
1967	 0.091710966929175 
1968	 0.092365211831005 
1969	 9.29002923144515E-02 
1970	 9.40331681071851E-02 
1971	 9.45388147176587E-02 
1972	 9.48253530978973E-02 
1973	 9.47241243694346E-02 
1974	 9.50503615472032E-02 
1975	 0.09546656133705 
1976	 9.59692626534434E-02 
1977	 9.66614846028944E-02 
1978	 9.71478314720143E-02 
1979	 9.76592458812715E-02 
1980	 9.81323025304877E-02 
1981	 9.86486036699483E-02 
1982	 9.91879722767976E-02 
1983	 9.98149406793434E-02 
1984	 0.100296530571524 
1985	 0.100694543190759 
1986	 0.1011239304645 
1987	 0.101916195589089 
1988	 0.102678336484536 
1989	 0.103299082013089 
1990	 0.103913360183927 
1991	 0.104024016329539 
1992	 0.104102378999223 
1993	 0.104103346754026 
1994	 0.104187135935251 
1995	 0.104546614327986 
1996	 0.105192610116795 
1997	 0.105591016527292 
1998	 0.10662511843492 
1999	 0.107878446326389 
2000	 0.108801464947547 
2001	 0.11012105372961 
2002	 0.111168060306582 
2003	 0.112221039848066 
2004	 0.113173813929062 
2005	 0.114267619761815 
2006	 0.115247673034717 
2007	 0.116276821755612 
2008	 0.116500692891174 
2009	 0.116998263047185 
2010	 0.117286079399655 
2011	 0.11742556753268 
2012	 0.11836113355043 
2013	 0.119167174965205 
2014	 0.119775502811927 
2015	 0.120774460762009 
2016	 0.121622790729228 
2017	 0.122011445759414 
2018	 0.122907212128054 
2019	 0.123738826494126 
2020	 0.124507853304847 
2021	 0.124978706030854 
2022	 0.12565775419185 
2023	 0.125953387120108 
2024	 0.126162888623537 
2025	 0.126553672085532 
2026	 0.127136057489301 
2027	 0.127589075386549 
2028	 0.127576834048622 
2029	 0.127719742212189 
2030	 0.128057440951429 
2031	 0.128494644085257 
2032	 0.128980831641115 
2033	 0.129739527228069 
2034	 0.130457615016448 
2035	 0.130891545359284 
2036	 0.13117235259228 
2037	 0.131579882403955 
2038	 0.131883593902064 
2039	 0.132186556156904 
2040	 0.132826931404422 
2041	 0.133484433906872 
2042	 0.133880660955525 
2043	 0.134225891286627 
2044	 0.134452967033265 
2045	 0.134761647478276 
2046	 0.134951316157064 
2047	 0.135537167905526 
2048	 0.135996430088146 
2049	 0.136460515100752 
2050	 0.137166922961695 
2051	 0.137839964961421 
2052	 0.138903506419056 
2053	 0.139767018902682 
2054	 0.14027907260102 
2055	 0.140728869089063 
2056	 0.140916734947127 
2057	 0.141469657000881 
2058	 0.142098890034835 
2059	 0.142670729980164 
2060	 0.143281057409819 
2061	 0.143874228985656 
2062	 0.144146014265826 
2063	 0.1446426921096 
2064	 0.144842202225747 
2065	 0.144921971335448 
2066	 0.145337271201992 
2067	 0.145666333787941 
2068	 0.146352308884737 
2069	 0.147059609333611 
2070	 0.147675732602197 
2071	 0.148364330928623 
2072	 0.148944770203521 
2073	 0.149306414827002 
2074	 0.150034456105447 
2075	 0.150957462222217 
2076	 0.151615920194791 
2077	 0.152135131246456 
2078	 0.152262669988282 
2079	 0.152209543321047 
2080	 0.152485765520475 
2081	 0.15261749658629 
2082	 0.152948039389312 
2083	 0.153823569557128 
2084	 0.15415868105299 
2085	 0.154739142965896 
2086	 0.155689187799918 
2087	 0.156205214906126 
2088	 0.156281585590695 
2089	 0.156661099608453 
2090	 0.157189474169191 
2091	 0.157628138269021 
2092	 0.158192562103897 
2093	 0.158594778483233 
2094	 0.159104958265721 
2095	 0.159526079139061 
2096	 0.160032832097342 
2097	 0.160666178508075 
2098	 0.160924689535577 
2099	 0.161226393481699 
2100	 0.161739977324962 
2101	 0.162330477791088 
2102	 0.162933416092394 
2103	 0.163770273824453 
2104	 0.164365177487923 
2105	 0.164754984007046 
2106	 0.165200289927442 
2107	 0.1654552906338 
2108	 0.165952112358468 
2109	 0.166528625822399 
2110	 0.166896006548729 
2111	 0.167395082572876 
2112	 0.167985838279626 
2113	 0.168594763245621 
2114	 0.169025734566235 
2115	 0.169554782918873 
2116	 0.170280630284251 
2117	 0.17090509607109 
2118	 0.171592072600047 
2119	 0.172236931499693 
2120	 0.173068923269997 
2121	 0.173101915397228 
2122	 0.17305742113796 
2123	 0.173397232643432 
2124	 0.173472127409389 
2125	 0.173964424271386 
2126	 0.174722595250335 
2127	 0.17499215255687 
2128	 0.175202373752071 
2129	 0.175378676749723 
2130	 0.175693799550725 
2131	 0.176114510804195 
2132	 0.176487526696031 
2133	 0.177196604523266 
2134	 0.177667739409006 
2135	 0.178020122797998 
2136	 0.178282647797794 
2137	 0.178737408864162 
2138	 0.178786811102668 
2139	 0.178863838600185 
2140	 0.179281356685498 
2141	 0.17967104477246 
2142	 0.180085903314044 
2143	 0.18090636980032 
2144	 0.181486225328236 
2145	 0.181494817881039 
2146	 0.181474889857056 
2147	 0.18147327551806 
2148	 0.181660517684763 
2149	 0.181958380689294 
2150	 0.182276383456638 
2151	 0.182536492977569 
2152	 0.182479420732143 
2153	 0.182731423236557 
2154	 0.183179306888583 
2155	 0.183543645450013 
2156	 0.183951685961774 
2157	 0.18444362170072 
2158	 0.184626149194979 
2159	 0.184810860796574 
2160	 0.184989088523748 
2161	 0.18472014532023 
2162	 0.184429638933866 
2163	 0.18456366153366 
2164	 0.184925073751881 
2165	 0.185413327144284 
2166	 0.185644438287115 
2167	 0.185616767746785 
2168	 0.185605710362569 
2169	 0.185055194246944 
2170	 0.185111968015934 
2171	 0.18547897261077 
2172	 0.185977267549416 
2173	 0.18642031422716 
2174	 0.186903556534785 
2175	 0.186852565408648 
2176	 0.186640459257318 
2177	 0.186892827145602 
2178	 0.187533102457249 
2179	 0.188258522664757 
2180	 0.188893282906986 
2181	 0.189021761502345 
2182	 0.188794730445151 
2183	 0.188675333005041 
2184	 0.188675319616282 
2185	 0.188666937722476 
2186	 0.18891015859168 
2187	 0.189139847300426 
2188	 0.189289758767772 
2189	 0.189521480641661 
2190	 0.189973507947269 
2191	 0.190182478303401 
2192	 0.190365241918448 
2193	 0.190658698067959 
2194	 0.190349435443928 
2195	 0.190089585580634 
2196	 0.190109164039554 
2197	 0.189876315625692 
2198	 0.19040962850932 
2199	 0.191235292279143 
2200	 0.191227383994477 
2201	 0.191213107374197 
2202	 0.191440572044401 
2203	 0.191313454143459 
2204	 0.191160756039724 
2205	 0.191444476451587 
2206	 0.191673312812954 
2207	 0.191861995533023 
2208	 0.191832524873716 
2209	 0.191692241781322 
2210	 0.191574313987279 
2211	 0.191240052690873 
2212	 0.19092017516735 
2213	 0.19102234620199 
2214	 0.191701074558333 
2215	 0.19199230203288 
2216	 0.192018478230692 
2217	 0.192390134210896 
2218	 0.192039633933566 
2219	 0.191392934958596 
2220	 0.19127379046709 
2221	 0.190669289107125 
2222	 0.190825484946028 
2223	 0.191421966207197 
2224	 0.191415791009153 
2225	 0.192318530092016 
2226	 0.1926309760047 
2227	 0.192130008029394 
2228	 0.191862920624297 
2229	 0.190998266824132 
2230	 0.190101937255113 
2231	 0.18958984352105 
2232	 0.189745891931266 
2233	 0.189580039084427 
2234	 0.189487265274983 
2235	 0.189090923289355 
2236	 0.188679271595576 
2237	 0.188456041432574 
2238	 0.188353400584402 
2239	 0.188434898624473 
2240	 0.188627783077689 
2241	 0.18777147772419 
2242	 0.1868916162588 
2243	 0.186123371449214 
2244	 0.184767113557112 
2245	 0.184359058251131 
2246	 0.183988308412135 
2247	 0.183474369657223 
2248	 0.183874176635079 
2249	 0.183860958215132 
2250	 0.183583123342722 
2251	 0.183482933606479 
2252	 0.18250484371076 
2253	 0.181433594097586 
2254	 0.181070978638616 
2255	 0.180604728503844 
2256	 0.180138565466241 
2257	 0.17993170052284 
2258	 0.179739185038465 
2259	 0.179123900401618 
2260	 0.178594592820984 
2261	 0.177853437638565 
2262	 0.1768845962509 
2263	 0.175771489660679 
2264	 0.174681894818974 
2265	 0.174404261011926 
2266	 0.174315099687359 
2267	 0.174380408683234 
2268	 0.174411711034486 
2269	 0.173593118247989 
2270	 0.173336255358152 
2271	 0.173091592719192 
2272	 0.172784664612355 
2273	 0.172837341495308 
2274	 0.172262130130388 
2275	 0.171625437400684 
2276	 0.170768948385036 
2277	 0.170032785735428 
2278	 0.169330159198928 
2279	 0.168546184405624 
2280	 0.16832546576051 
2281	 0.168140328913675 
2282	 0.168080401534005 
2283	 0.167947766642016 
2284	 0.167750495851146 
2285	 0.167818579714794 
2286	 0.167428495548816 
2287	 0.166682723067838 
2288	 0.166207746002022 
2289	 0.165897622832557 
2290	 0.164990936805443 
2291	 0.164504875477751 
2292	 0.16433712180021 
2293	 0.163895896976329 
2294	 0.163463432201097 
2295	 0.163027674050535 
2296	 0.162205425637457 
2297	 0.161353492161737 
2298	 0.160312740281331 
2299	 0.159275980532008 
2300	 0.159147714307444 
2301	 0.158800775376575 
2302	 0.15796536448559 
2303	 0.1576761611105 
2304	 0.157859703862624 
2305	 0.158012721003812 
2306	 0.157982595682409 
2307	 0.158024776387857 
2308	 0.157295067935009 
2309	 0.15605362658041 
2310	 0.15567455210975 
2311	 0.155223109092018 
2312	 0.154874113254119 
2313	 0.15496390025564 
2314	 0.155259987789946 
2315	 0.15576172226509 
2316	 0.156252987275096 
2317	 0.156741103487012 
2318	 0.155842577806301 
2319	 0.154771507417486 
2320	 0.154104057494989 
2321	 0.153269377997204 
2322	 0.152220076778992 
2323	 0.152170232860159 
2324	 0.152802659983959 
2325	 0.152393587843918 
2326	 0.152977299071976 
2327	 0.153380403278286 
2328	 0.152470984710722 
2329	 0.15190143739172 
2330	 0.150970378194851 
2331	 0.150552065367242 
2332	 0.150943501978541 
2333	 0.150907897882821 
2334	 0.150848560216673 
2335	 0.149912872556343 
2336	 0.148448303078263 
2337	 0.147434229957953 
2338	 0.145895143100016 
2339	 0.144634040617113 
2340	 0.143910734466817 
2341	 0.142400871923471 
2342	 0.141687388028559 
2343	 0.14179599737567 
2344	 0.141770979902056 
2345	 0.1429729250127 
2346	 0.144130679003961 
2347	 0.144359555021804 
2348	 0.143977177839505 
2349	 0.142982369410883 
2350	 0.143462711129659 
2351	 0.143365474679541 
2352	 0.142499639740783 
2353	 0.142407252824875 
2354	 0.140933637087277 
2355	 0.140428446583916 
2356	 0.140411742275829 
2357	 0.139067608356573 
2358	 0.138405204741283 
2359	 0.13723116996935 
2360	 0.134998598217221 
2361	 0.13436547385621 
2362	 0.13453165731842 
2363	 0.134638600418024 
2364	 0.136245367045766 
2365	 0.136599457430629 
2366	 0.135880184574008 
2367	 0.135167195862408 
2368	 0.133986573761934 
2369	 0.134156346694677 
2370	 0.134512972957461 
2371	 0.134457095706169 
2372	 0.134032566710921 
2373	 0.132628151470049 
2374	 0.13241547002061 
2375	 0.13253711942904 
2376	 0.133244517597611 
2377	 0.135521793064605 
2378	 0.135606361309813 
2379	 0.135145900699859 
2380	 0.133329128147483 
2381	 0.129000659552162 
2382	 0.12656015684537 
2383	 0.123925253018282 
2384	 0.123185791704644 
2385	 0.124688111668423 
2386	 0.124870187946904 
2387	 0.125022971115243 
2388	 0.124991394507654 
2389	 0.124499967843885 
2390	 0.124269704368818 
2391	 0.124469293963132 
2392	 0.124699544713177 
2393	 0.124097203551181 
2394	 0.124392844672777 
2395	 0.126017097759888 
2396	 0.127436338414035 
2397	 0.13072441741863 
2398	 0.130468621285319 
2399	 0.127502326420533 
2400	 0.125575380046276 
2401	 0.12169080867675 
2402	 0.11780788495066 
2403	 0.118254540248553 
2404	 0.119118360391823 
2405	 0.119320911110132 
2406	 0.120936114792287 
2407	 0.119891146237418 
2408	 0.118488210096957 
2409	 0.118064311158489 
2410	 0.115713008481698 
2411	 0.116927184211071 
2412	 0.117449242127322 
2413	 0.116417298135049 
2414	 0.119098607735253 
2415	 0.119695246084864 
2416	 0.119909874007218 
2417	 0.120407279267168 
2418	 0.116861875045591 
2419	 0.111554215379044 
2420	 0.108017963890761 
2421	 0.105913075279148 
2422	 0.104105189626394 
2423	 0.10428135251668 
2424	 0.102930911387472 
2425	 0.100009378275121 
2426	 0.102398631539636 
2427	 0.104959362256601 
2428	 0.106359732458927 
2429	 0.109288418463395 
2430	 0.106187892419147 
2431	 0.103938127847273 
2432	 0.106237886167912 
2433	 0.103409996933118 
2434	 0.103946595998407 
2435	 0.104997118115941 
2436	 0.104077319124249 
2437	 0.104675946243522 
2438	 0.105237687651653 
2439	 0.104589002007535 
2440	 0.103952175818655 
2441	 0.103591857417384 
2442	 0.106179136814486 
2443	 0.109182896409042 
2444	 0.109776340336021 
2445	 0.113460118489877 
2446	 0.11511829158219 
2447	 0.112976477951742 
2448	 0.111105633447306 
2449	 0.110925347049541 
2450	 0.107571194455712 
2451	 9.84759658269874E-02 
2452	 9.35792836372362E-02 
2453	 9.04532263626176E-02 
2454	 8.78651371313538E-02 
2455	 8.69900598665844E-02 
2456	 8.60109547140274E-02 
2457	 0.085758326586529 
2458	 8.47705955813385E-02 
2459	 8.22978447145853E-02 
2460	 8.37311458358428E-02 
2461	 8.85518941560864E-02 
2462	 8.88311468433548E-02 
2463	 8.88890583208077E-02 
2464	 8.88706923234064E-02 
2465	 8.56012450396748E-02 
2466	 8.39570933452375E-02 
2467	 8.38281931887902E-02 
2468	 8.31123886928025E-02 
2469	 8.13413185025519E-02 
2470	 7.85501886773415E-02 
2471	 7.56017085710202E-02 
2472	 7.66675626408963E-02 
2473	 7.72159420247998E-02 
2474	 8.19014922318958E-02 
2475	 9.52220777124188E-02 
2476	 0.100786697053254 
2477	 0.10656227395723 
2478	 0.107990178796231 
2479	 0.100221137496286 
2480	 9.69150721319709E-02 
2481	 9.00733018175957E-02 
2482	 8.72620343146556E-02 
2483	 9.58761012692798E-02 
2484	 8.86499793707078E-02 
2485	 6.47138937595352E-02 
2486	 5.83547861321977E-02 
2487	 5.62443032975044E-02 
2488	 5.11719822850044E-02 
2489	 6.74254423476425E-02 
2490	 7.91467630772304E-02 
2491	 8.06845191311493E-02 
2492	 0.114217046952153 
2493	 0.13802544048552 
2494	 0.11146099820513 
2495	 0.075528368332895 
2496	 1.34791341144278E-02 
2497	-2.60167405524828E-02 
2498	 5.24051163283454E-03 
2499	 1.58061226255457E-02 
2500	 5.07241865090227E-02 
