Wavelength	ref00055.asd
350	 3.19449654978742E-02 
351	 3.19739100863067E-02 
352	 3.16632689664619E-02 
353	 3.17155492847535E-02 
354	 3.15348424686272E-02 
355	 3.16115365231767E-02 
356	 3.20766617143173E-02 
357	 3.19654938514052E-02 
358	 3.16567048428521E-02 
359	 0.031793712342919 
360	 3.25390791676449E-02 
361	 3.17110649387987E-02 
362	 0.031503083930156 
363	 3.19620649623023E-02 
364	 3.17680138652049E-02 
365	 3.19894076632548E-02 
366	 3.21239768426594E-02 
367	 3.18859977904055E-02 
368	 3.15194614011588E-02 
369	 3.17913484832594E-02 
370	 3.16602561776698E-02 
371	 3.06688167998029E-02 
372	 3.16053882442617E-02 
373	 0.031720606418783 
374	 3.10496361318835E-02 
375	 3.09888862773714E-02 
376	 3.11838238552263E-02 
377	 3.13575604143586E-02 
378	 3.14388355103812E-02 
379	 3.15996344057431E-02 
380	 0.031618800018419 
381	 3.18773711282551E-02 
382	 3.23986842044282E-02 
383	 3.18363030893442E-02 
384	 3.18060420679319E-02 
385	 3.21861054905903E-02 
386	 3.22133315034051E-02 
387	 3.25117535603294E-02 
388	 3.27088764367419E-02 
389	 3.27111048570243E-02 
390	 3.27709382637686E-02 
391	 3.26185562537404E-02 
392	 3.25915644490761E-02 
393	 3.28689574467766E-02 
394	 3.30319619741863E-02 
395	 3.34255447608737E-02 
396	 3.38815707358398E-02 
397	 3.40861006764052E-02 
398	 3.39486388299661E-02 
399	 3.38518616918772E-02 
400	 3.39462778142525E-02 
401	 3.41330302608436E-02 
402	 3.38557420587329E-02 
403	 3.37680953949995E-02 
404	 3.42663092857397E-02 
405	 3.49579717373371E-02 
406	 3.52447431721639E-02 
407	 3.52925394992659E-02 
408	 3.54825018748603E-02 
409	 3.56659849300829E-02 
410	 3.56781840356984E-02 
411	 3.57011664543433E-02 
412	 3.61569215635457E-02 
413	 3.63932080317461E-02 
414	 3.65576449225255E-02 
415	 0.036819105123205 
416	 0.03710573338508 
417	 3.74976989729488E-02 
418	 3.77370988005981E-02 
419	 3.76255657407105E-02 
420	 3.77883170436827E-02 
421	 3.82040313028115E-02 
422	 3.86179036382807E-02 
423	 3.86493642421173E-02 
424	 3.87910576268774E-02 
425	 3.89887018751661E-02 
426	 3.91495875606595E-02 
427	 0.03927132804723 
428	 0.039799793580848 
429	 4.02722275354638E-02 
430	 4.01494071311721E-02 
431	 4.02633429880922E-02 
432	 4.05680521073922E-02 
433	 4.08285133537691E-02 
434	 4.07408126113858E-02 
435	 4.08655629167394E-02 
436	 0.041017781511597 
437	 4.10777282846635E-02 
438	 4.13326275158008E-02 
439	 0.041542746758501 
440	 0.041686942488248 
441	 4.18177138708855E-02 
442	 4.19306246985646E-02 
443	 4.20726075014307E-02 
444	 0.042254029832481 
445	 4.24497892563137E-02 
446	 4.26812023625227E-02 
447	 0.042824985242563 
448	 4.28696387105197E-02 
449	 4.31311347096656E-02 
450	 4.34181243117112E-02 
451	 4.36120773960184E-02 
452	 4.36830327000536E-02 
453	 4.39658855648407E-02 
454	 0.044179119947779 
455	 4.42728204230928E-02 
456	 4.45173913028503E-02 
457	 4.45994622563906E-02 
458	 4.46153760580874E-02 
459	 4.46859650554689E-02 
460	 4.47053398432541E-02 
461	 4.47809709587134E-02 
462	 4.49166088486203E-02 
463	 4.50436760630992E-02 
464	 4.50172669371821E-02 
465	 0.045048446692916 
466	 4.52161976557795E-02 
467	 4.53511994931614E-02 
468	 4.53548353908618E-02 
469	 4.53518750865355E-02 
470	 4.54671469856813E-02 
471	 4.55534473184399E-02 
472	 4.55948484641751E-02 
473	 4.56128530371142E-02 
474	 4.56611144198461E-02 
475	 4.58422162527393E-02 
476	 4.59747919549037E-02 
477	 4.59774450546159E-02 
478	 4.60190983183001E-02 
479	 4.61620374096208E-02 
480	 4.63195662916292E-02 
481	 4.63993090592178E-02 
482	 4.66067467988779E-02 
483	 0.04671713390347 
484	 4.67843858815643E-02 
485	 4.71313342801283E-02 
486	 4.73776349228583E-02 
487	 4.75016650621399E-02 
488	 4.75892059540605E-02 
489	 4.77995789653404E-02 
490	 4.80392368295934E-02 
491	 4.82819905328295E-02 
492	 4.85368784526135E-02 
493	 4.88253603146016E-02 
494	 4.92360751696228E-02 
495	 4.97178684551421E-02 
496	 5.00507153998255E-02 
497	 0.050576406051196 
498	 5.11855891472219E-02 
499	 5.17577908693304E-02 
500	 5.25347649463605E-02 
501	 5.33074168887284E-02 
502	 5.40282339479561E-02 
503	 5.47627802754404E-02 
504	 5.55489817894684E-02 
505	 5.64758667625732E-02 
506	 5.75483588804993E-02 
507	 5.86341646223035E-02 
508	 5.97629644687466E-02 
509	 6.09775362627367E-02 
510	 0.062293904799916 
511	 6.35867303005345E-02 
512	 0.06492841032388 
513	 6.63698342889994E-02 
514	 6.79352049146246E-02 
515	 6.95721748763105E-02 
516	 7.13183483693546E-02 
517	 7.31391517242123E-02 
518	 7.47993071649429E-02 
519	 7.66093907034326E-02 
520	 7.84065044243232E-02 
521	 7.99402527896709E-02 
522	 0.081606315927047 
523	 8.31896427596074E-02 
524	 8.46422398694715E-02 
525	 8.61269136115026E-02 
526	 8.76298463317628E-02 
527	 8.91065889678595E-02 
528	 9.04825689370843E-02 
529	 9.16210900859182E-02 
530	 9.25895135818124E-02 
531	 9.35082756690268E-02 
532	 0.094499119628141 
533	 9.53723102898903E-02 
534	 9.62341287006307E-02 
535	 9.70592347982201E-02 
536	 9.75500104118431E-02 
537	 9.81033775381831E-02 
538	 9.86636870115906E-02 
539	 9.90930136191556E-02 
540	 9.95593528956309E-02 
541	 0.100079204299594 
542	 0.10055102620339 
543	 0.100806148515699 
544	 0.101196440512302 
545	 0.101608324118279 
546	 0.101955321410869 
547	 0.102405240632349 
548	 0.102846836593066 
549	 0.103184155333922 
550	 0.103370880298241 
551	 0.103637973658339 
552	 0.10382309436342 
553	 0.103846736924297 
554	 0.103764363294949 
555	 0.103577109495355 
556	 0.10331793788553 
557	 0.103015731401927 
558	 0.102669448050197 
559	 0.102283384641505 
560	 0.101791892361433 
561	 0.101127679670425 
562	 0.100686582218645 
563	 0.100257140228515 
564	 9.96964166288652E-02 
565	 9.91306954094355E-02 
566	 9.85183724316191E-02 
567	 9.78581528216754E-02 
568	 9.71516792214612E-02 
569	 9.63705055020328E-02 
570	 9.54484474666343E-02 
571	 9.44452976515856E-02 
572	 9.35243594236829E-02 
573	 9.25082584585963E-02 
574	 0.091580588432338 
575	 9.08382120890273E-02 
576	 9.00194665614673E-02 
577	 8.92348537908587E-02 
578	 8.85963936140473E-02 
579	 8.81701865595312E-02 
580	 8.77075817181353E-02 
581	 0.087195175345399 
582	 8.66707567065637E-02 
583	 8.62045220641837E-02 
584	 8.57046481024154E-02 
585	 8.53117384879794E-02 
586	 8.50950419828808E-02 
587	 8.46159779186038E-02 
588	 8.42384809692049E-02 
589	 8.39562588051707E-02 
590	 8.35185222997372E-02 
591	 8.32180259901474E-02 
592	 8.31239725078383E-02 
593	 8.31557580523063E-02 
594	 8.30510767043585E-02 
595	 8.29490441114417E-02 
596	 8.28787771938131E-02 
597	 8.28166754887888E-02 
598	 8.26585134332835E-02 
599	 0.08244371124765 
600	 8.22232729348524E-02 
601	 8.20484128020418E-02 
602	 8.18552267353939E-02 
603	 8.16332743383226E-02 
604	 8.13674873526273E-02 
605	 8.09814470457202E-02 
606	 8.06563260595192E-02 
607	 8.03532824526772E-02 
608	 7.99537598414265E-02 
609	 7.96545888003413E-02 
610	 0.07927035962076 
611	 7.87787415998158E-02 
612	 7.84290379398945E-02 
613	 7.79243474089697E-02 
614	 7.73789000036862E-02 
615	 7.69530423772738E-02 
616	 7.65426247940039E-02 
617	 7.60957268441272E-02 
618	 7.56310558041695E-02 
619	 0.075214193320683 
620	 7.48946949339322E-02 
621	 7.46725038200198E-02 
622	 7.45162054200396E-02 
623	 7.43499276814688E-02 
624	 7.42205410603308E-02 
625	 7.41064084157955E-02 
626	 7.39868287296556E-02 
627	 7.39650091325562E-02 
628	 7.39616079689352E-02 
629	 7.39523289090174E-02 
630	 7.39745230826111E-02 
631	 0.074045132661023 
632	 7.40241772120464E-02 
633	 7.38544669255482E-02 
634	 7.37646982322609E-02 
635	 7.36107979709712E-02 
636	 7.33537865526592E-02 
637	 7.30205164244287E-02 
638	 7.27512043432072E-02 
639	 7.23416783831855E-02 
640	 7.17666862189139E-02 
641	 7.12748754863008E-02 
642	 7.07025434167687E-02 
643	 7.00930088035223E-02 
644	 6.95187084480238E-02 
645	 6.90180742700933E-02 
646	 6.84077163295598E-02 
647	 6.77779662970902E-02 
648	 6.73621113724024E-02 
649	 6.69948545473246E-02 
650	 6.65435762279099E-02 
651	 6.60746508619037E-02 
652	 0.065940900166657 
653	 6.56681013113695E-02 
654	 0.065332571728087 
655	 6.51267061559217E-02 
656	 6.50613921684969E-02 
657	 6.47304787754334E-02 
658	 6.41496394739727E-02 
659	 6.36124226664074E-02 
660	 6.31207934245839E-02 
661	 6.26199436049703E-02 
662	 6.21003074985162E-02 
663	 6.16223045223223E-02 
664	 6.12033629180164E-02 
665	 6.08090209272587E-02 
666	 0.060411802417018 
667	 6.01307787796363E-02 
668	 0.060007699550652 
669	 5.99690757635671E-02 
670	 5.98556653749078E-02 
671	 5.98698414223716E-02 
672	 0.060027220426113 
673	 6.02533215234462E-02 
674	 6.03431803858639E-02 
675	 6.05224493116431E-02 
676	 6.08504156582874E-02 
677	 6.12762649860461E-02 
678	 6.15356521668476E-02 
679	 6.19208126570807E-02 
680	 6.24879379816081E-02 
681	 6.30244230943426E-02 
682	 6.38788000291624E-02 
683	 6.48509051196925E-02 
684	 6.58010400751218E-02 
685	 6.70091147892217E-02 
686	 6.85944401046683E-02 
687	 7.06781116703166E-02 
688	 7.30881277670891E-02 
689	 7.52985670518184E-02 
690	 7.76511073326339E-02 
691	 0.08048576109112 
692	 8.38453771300317E-02 
693	 8.76827327843951E-02 
694	 9.18792335448661E-02 
695	 0.096330128076797 
696	 0.101146859531725 
697	 0.106119258869838 
698	 0.111258680588865 
699	 0.1166246045912 
700	 0.122070372032834 
701	 0.127682726090393 
702	 0.133378851451492 
703	 0.138845984612836 
704	 0.144233534897534 
705	 0.149656846167198 
706	 0.15518352248395 
707	 0.160597543327652 
708	 0.165983685086903 
709	 0.171408744433761 
710	 0.176869373350584 
711	 0.182218073252514 
712	 0.187522446011546 
713	 0.192822321671342 
714	 0.19810635428804 
715	 0.203150979267293 
716	 0.20807131391081 
717	 0.21313561310367 
718	 0.218313816523561 
719	 0.223469973408646 
720	 0.228579861104245 
721	 0.23367148918931 
722	 0.238202285649335 
723	 0.242548328103026 
724	 0.247016795834561 
725	 0.251247608857224 
726	 0.255285778595013 
727	 0.259182495071987 
728	 0.263062773452391 
729	 0.266892927968683 
730	 0.270338667620004 
731	 0.273521500696528 
732	 0.276708210480602 
733	 0.27971542665119 
734	 0.282468480286498 
735	 0.285042921873947 
736	 0.287555923940542 
737	 0.289823737776961 
738	 0.292038786447416 
739	 0.294267345434386 
740	 0.296072960763533 
741	 0.297789348453822 
742	 0.299381563543286 
743	 0.300735616188458 
744	 0.302023957205068 
745	 0.303163121796487 
746	 0.304119158999837 
747	 0.304919909042188 
748	 0.305770948289872 
749	 0.306562230144026 
750	 0.307240847231607 
751	 0.307928106596544 
752	 0.308500114440428 
753	 0.308876220159839 
754	 0.30910050287091 
755	 0.309585037800381 
756	 0.309958457437714 
757	 0.310242955854627 
758	 0.310739280440932 
759	 0.311898770592701 
760	 0.313777263453673 
761	 0.315688507377816 
762	 0.315402809361001 
763	 0.31477329925987 
764	 0.314205790714653 
765	 0.313647575178371 
766	 0.312937658985322 
767	 0.312532642323644 
768	 0.312410316582044 
769	 0.312402759887315 
770	 0.31225911763581 
771	 0.312220273315958 
772	 0.312337991811934 
773	 0.312479340333011 
774	 0.31256151157523 
775	 0.312714282368794 
776	 0.312925452059545 
777	 0.312885900955433 
778	 0.312891186932852 
779	 0.31301720401006 
780	 0.313225349524725 
781	 0.313335734972833 
782	 0.313385648133389 
783	 0.313458549535228 
784	 0.313640096600737 
785	 0.313846152033683 
786	 0.31407128325815 
787	 0.314199596793674 
788	 0.314029124769884 
789	 0.314133272020816 
790	 0.314297205649005 
791	 0.314360751168947 
792	 0.314603827998432 
793	 0.314994602721461 
794	 0.315257113689625 
795	 0.315213936783619 
796	 0.315392371135092 
797	 0.315557518970023 
798	 0.315735320859778 
799	 0.316048747241838 
800	 0.316072145722179 
801	 0.316126432076027 
802	 0.316319293136396 
803	 0.316444229913491 
804	 0.316741481656867 
805	 0.317002522882889 
806	 0.317131282517797 
807	 0.317455483111588 
808	 0.317531323628435 
809	 0.317488550980818 
810	 0.317554311253032 
811	 0.317583169526167 
812	 0.317420064419939 
813	 0.317133789282913 
814	 0.316919620711258 
815	 0.316737192426426 
816	 0.316764098070915 
817	 0.317056510457425 
818	 0.317502407513715 
819	 0.318013630623288 
820	 0.318287009406796 
821	 0.318276244766286 
822	 0.318379464859641 
823	 0.318504096707122 
824	 0.318727397932923 
825	 0.319106063254188 
826	 0.319626585764281 
827	 0.319704511278653 
828	 0.31959877200992 
829	 0.319820060038941 
830	 0.320059243020839 
831	 0.32023938374957 
832	 0.320429923776085 
833	 0.320770385961907 
834	 0.321064303853009 
835	 0.321365659346634 
836	 0.321648822015341 
837	 0.321782550495899 
838	 0.322127000987716 
839	 0.322523864689943 
840	 0.322790306015861 
841	 0.322908691799349 
842	 0.322993016633466 
843	 0.323171032571634 
844	 0.323436805770631 
845	 0.323333538257666 
846	 0.323539889348733 
847	 0.32389285187092 
848	 0.323958767195283 
849	 0.324084425222849 
850	 0.324392548642823 
851	 0.324679073584721 
852	 0.324599929614052 
853	 0.324721079346459 
854	 0.324897003060644 
855	 0.325084127468222 
856	 0.325416827541793 
857	 0.325688598427433 
858	 0.325812965306644 
859	 0.325802367768229 
860	 0.325765888354355 
861	 0.326164384249477 
862	 0.326438995653707 
863	 0.326214049028607 
864	 0.326245557318989 
865	 0.326380801882538 
866	 0.326623893879981 
867	 0.326922506711832 
868	 0.326904938926659 
869	 0.326959581676168 
870	 0.327122018810013 
871	 0.327280355513937 
872	 0.327567534968743 
873	 0.327804119881696 
874	 0.327908081949647 
875	 0.327932539002579 
876	 0.328236005904518 
877	 0.328566347662023 
878	 0.328686769872563 
879	 0.328508929128896 
880	 0.328567761507895 
881	 0.328717090202213 
882	 0.328811614446351 
883	 0.328865868203506 
884	 0.329026393448646 
885	 0.329203981529436 
886	 0.329281055323803 
887	 0.329185896586564 
888	 0.329238268650592 
889	 0.329419043309716 
890	 0.329595300145595 
891	 0.329598458219446 
892	 0.32977412596401 
893	 0.329855477145167 
894	 0.329521180311778 
895	 0.328971382883856 
896	 0.328815437825959 
897	 0.328637949510396 
898	 0.32794918585002 
899	 0.328165456091355 
900	 0.328586542430689 
901	 0.329022391806524 
902	 0.329495915545912 
903	 0.329439343899006 
904	 0.329480558915697 
905	 0.329653017868764 
906	 0.329638323900532 
907	 0.329765821737054 
908	 0.329582431087496 
909	 0.329297562233019 
910	 0.329509704712744 
911	 0.328687927230408 
912	 0.328625810060616 
913	 0.329460554757816 
914	 0.329555176236182 
915	 0.329800304050671 
916	 0.329717114345766 
917	 0.329402143935743 
918	 0.329686087533922 
919	 0.330335456433337 
920	 0.330724982569048 
921	 0.330545814342016 
922	 0.330040384555549 
923	 0.330369467774392 
924	 0.330418184986235 
925	 0.329725134241985 
926	 0.329468338055376 
927	 0.329073218703467 
928	 0.328410484639316 
929	 0.327510878979378 
930	 0.326554491376759 
931	 0.32520580307982 
932	 0.323394248997755 
933	 0.321619995180886 
934	 0.321239189724776 
935	 0.320764532257286 
936	 0.321103976634302 
937	 0.322163316707849 
938	 0.321038222061015 
939	 0.320893422374877 
940	 0.321621488109235 
941	 0.322338215469128 
942	 0.322245908196798 
943	 0.322807752625015 
944	 0.322527335372523 
945	 0.320755443000056 
946	 0.320229628976224 
947	 0.320653152075445 
948	 0.319891597899919 
949	 0.317887017577655 
950	 0.319595531351271 
951	 0.320010560440033 
952	 0.319117837224977 
953	 0.317993261453112 
954	 0.317109762498784 
955	 0.316861752183667 
956	 0.31703474134797 
957	 0.317308293603915 
958	 0.317579406408983 
959	 0.315151136556584 
960	 0.314922702378464 
961	 0.318246623656063 
962	 0.317305875775738 
963	 0.31760406195194 
964	 0.317785247317129 
965	 0.317231726686674 
966	 0.318803726335581 
967	 0.319813152152176 
968	 0.319494597373452 
969	 0.318400983624676 
970	 0.318294551646403 
971	 0.319407968931001 
972	 0.319451717015518 
973	 0.318113372614509 
974	 0.318369931212413 
975	 0.31738273962768 
976	 0.316902257677724 
977	 0.317809888707834 
978	 0.318808019566473 
979	 0.320013590729592 
980	 0.320200122308134 
981	 0.319512400338339 
982	 0.319563099776929 
983	 0.31970226295189 
984	 0.320352413387842 
985	 0.321249399196286 
986	 0.321507025624245 
987	 0.321191869199285 
988	 0.32163156399937 
989	 0.32229944144301 
990	 0.321769635678254 
991	 0.323046085589301 
992	 0.323628710736175 
993	 0.323159218661881 
994	 0.322896803486872 
995	 0.323094812617315 
996	 0.32401513610211 
997	 0.324410779884681 
998	 0.323358933228949 
999	 0.324256250411797 
1000	 0.323955543291861 
1001	 0.329083544043239 
1002	 0.329422876528989 
1003	 0.329787291227061 
1004	 0.330250297104393 
1005	 0.330612242065441 
1006	 0.331003377465156 
1007	 0.331281721629971 
1008	 0.331434010562248 
1009	 0.331720247316955 
1010	 0.331997649861367 
1011	 0.332257031332403 
1012	 0.332628848094404 
1013	 0.33304303522395 
1014	 0.333295572772311 
1015	 0.333463583077408 
1016	 0.333861603738049 
1017	 0.334213578727188 
1018	 0.334495427047308 
1019	 0.334861601498572 
1020	 0.335177974232289 
1021	 0.33529049856591 
1022	 0.335594126714878 
1023	 0.336026455411674 
1024	 0.336454377344055 
1025	 0.33692837770017 
1026	 0.337192648508737 
1027	 0.337518148074728 
1028	 0.337802025060124 
1029	 0.337899323457339 
1030	 0.33822337763943 
1031	 0.338541422566806 
1032	 0.33886321628538 
1033	 0.339160040361353 
1034	 0.339463434023047 
1035	 0.339784165606473 
1036	 0.340036907206342 
1037	 0.34034588339099 
1038	 0.340758339728556 
1039	 0.341092772841627 
1040	 0.341360454744407 
1041	 0.341699502483935 
1042	 0.341872047637995 
1043	 0.342005482281481 
1044	 0.342212034777054 
1045	 0.342322811582375 
1046	 0.342501908523828 
1047	 0.342749819907977 
1048	 0.342861437777769 
1049	 0.343061839888993 
1050	 0.343196259211727 
1051	 0.343295446356485 
1052	 0.343297378635133 
1053	 0.343388474196484 
1054	 0.343572391317687 
1055	 0.343836159555068 
1056	 0.344190096728389 
1057	 0.344553049398826 
1058	 0.344590715337635 
1059	 0.34449255960224 
1060	 0.344471745774267 
1061	 0.34448937713022 
1062	 0.344608464647723 
1063	 0.344780190068812 
1064	 0.344892573024884 
1065	 0.344923994547361 
1066	 0.344855377587466 
1067	 0.344767380157318 
1068	 0.344683188277957 
1069	 0.344735601565562 
1070	 0.344877340981139 
1071	 0.344923688693224 
1072	 0.345037162772309 
1073	 0.34507870603883 
1074	 0.344888479283669 
1075	 0.3447893591461 
1076	 0.344875332341654 
1077	 0.344911031038953 
1078	 0.344839678534618 
1079	 0.344884028661653 
1080	 0.344943501255199 
1081	 0.344919116892875 
1082	 0.344805398778366 
1083	 0.344842139450693 
1084	 0.34476291368173 
1085	 0.344541960747868 
1086	 0.344410584038201 
1087	 0.344282508874939 
1088	 0.344170963054711 
1089	 0.34398963469544 
1090	 0.343858425601578 
1091	 0.343747784790481 
1092	 0.343551291122556 
1093	 0.343512343583156 
1094	 0.343265764717004 
1095	 0.342897214829777 
1096	 0.342663284145408 
1097	 0.342501036117446 
1098	 0.342186000681656 
1099	 0.341820298460701 
1100	 0.34163990052593 
1101	 0.341296281294555 
1102	 0.340956265864749 
1103	 0.340814156306631 
1104	 0.340583729151884 
1105	 0.34028782137177 
1106	 0.340012040635403 
1107	 0.339703579703642 
1108	 0.339295705229197 
1109	 0.338764285361392 
1110	 0.338208828647736 
1111	 0.337620100478634 
1112	 0.336960546730056 
1113	 0.336220731014312 
1114	 0.335342099103667 
1115	 0.334465803331636 
1116	 0.333503257870561 
1117	 0.33242840690009 
1118	 0.331379756055824 
1119	 0.330444254841088 
1120	 0.329347314806183 
1121	 0.328292367137769 
1122	 0.327547339317267 
1123	 0.326845237092137 
1124	 0.326048236554686 
1125	 0.325349243591767 
1126	 0.324794711421869 
1127	 0.324269780354633 
1128	 0.323758057434698 
1129	 0.323585137940461 
1130	 0.32317577958854 
1131	 0.322597869668828 
1132	 0.322098200679617 
1133	 0.321679903981634 
1134	 0.321145577924033 
1135	 0.320507844293833 
1136	 0.319772632391035 
1137	 0.318968561037879 
1138	 0.318199420757478 
1139	 0.317318492219495 
1140	 0.316298990378469 
1141	 0.315118085392022 
1142	 0.313784517263121 
1143	 0.312525152174537 
1144	 0.311235785455728 
1145	 0.309926721760133 
1146	 0.308551049737753 
1147	 0.307321504133499 
1148	 0.306070379950221 
1149	 0.304991442503934 
1150	 0.304084184934277 
1151	 0.303323057897534 
1152	 0.302660389756346 
1153	 0.302184306786715 
1154	 0.301918590809838 
1155	 0.301702453454697 
1156	 0.301399778741392 
1157	 0.301151046016743 
1158	 0.301014653192536 
1159	 0.300909032252545 
1160	 0.300884727608614 
1161	 0.301074610109058 
1162	 0.301076964125144 
1163	 0.301033641911678 
1164	 0.300959823883119 
1165	 0.300843457413466 
1166	 0.30069908915022 
1167	 0.30043795912786 
1168	 0.300317388330991 
1169	 0.300233715382981 
1170	 0.300163652460655 
1171	 0.300174721852311 
1172	 0.300213150644806 
1173	 0.300089989363793 
1174	 0.29993693832526 
1175	 0.299730102673954 
1176	 0.299462655211074 
1177	 0.299266642171495 
1178	 0.299049775206807 
1179	 0.298895838645058 
1180	 0.298870414086054 
1181	 0.298713980362793 
1182	 0.29853387748094 
1183	 0.298343577046501 
1184	 0.298054160727697 
1185	 0.297802195752477 
1186	 0.297517906258955 
1187	 0.297348608192898 
1188	 0.297238092131902 
1189	 0.297133949573643 
1190	 0.297104754647471 
1191	 0.297113681859301 
1192	 0.297048967196434 
1193	 0.296918211313494 
1194	 0.296805472549588 
1195	 0.296671960624128 
1196	 0.296549735561377 
1197	 0.296378991286585 
1198	 0.296322957593703 
1199	 0.296317272660411 
1200	 0.296325790418246 
1201	 0.296395206009502 
1202	 0.296482313416433 
1203	 0.296598469863946 
1204	 0.296712684837897 
1205	 0.296845023471208 
1206	 0.296997828365269 
1207	 0.297142993739667 
1208	 0.297315001966072 
1209	 0.297499796320776 
1210	 0.297774788346183 
1211	 0.298007577144026 
1212	 0.298149363645894 
1213	 0.298384261463032 
1214	 0.298609214529101 
1215	 0.298921221759937 
1216	 0.299333568799821 
1217	 0.299689601589966 
1218	 0.300080354413639 
1219	 0.300412335812851 
1220	 0.300684038073402 
1221	 0.301008510632981 
1222	 0.301336647952221 
1223	 0.301679242859288 
1224	 0.302035322970431 
1225	 0.302417788558367 
1226	 0.302860287202956 
1227	 0.303234139379501 
1228	 0.303601570975907 
1229	 0.30397493124164 
1230	 0.304218275468027 
1231	 0.304413674663717 
1232	 0.304708718397783 
1233	 0.305021984682793 
1234	 0.305315309007003 
1235	 0.305637136354618 
1236	 0.305994849985344 
1237	 0.306357655950018 
1238	 0.306694740602691 
1239	 0.307101075916173 
1240	 0.307441198206387 
1241	 0.307727730745017 
1242	 0.307981921947132 
1243	 0.308206605532871 
1244	 0.308444168528967 
1245	 0.308610025087239 
1246	 0.308820502435272 
1247	 0.309115165074272 
1248	 0.309339338935271 
1249	 0.309510336370522 
1250	 0.309709332909216 
1251	 0.309897270455244 
1252	 0.310061922134949 
1253	 0.31028403878003 
1254	 0.310592424674813 
1255	 0.310760315073041 
1256	 0.310879300720716 
1257	 0.311021596668158 
1258	 0.311074186410461 
1259	 0.311207509163692 
1260	 0.311439014058991 
1261	 0.311588548482254 
1262	 0.311687912608308 
1263	 0.31182124783744 
1264	 0.311953147700142 
1265	 0.312067041721181 
1266	 0.312233810952766 
1267	 0.312315852160597 
1268	 0.312313768509537 
1269	 0.312328905474488 
1270	 0.312283205908867 
1271	 0.312269519529633 
1272	 0.312289668641285 
1273	 0.312277477019443 
1274	 0.312297776770791 
1275	 0.312349358649514 
1276	 0.312344092466923 
1277	 0.312387688933335 
1278	 0.31225447695298 
1279	 0.311963532326415 
1280	 0.311807829373308 
1281	 0.311588417792662 
1282	 0.311437785713465 
1283	 0.311480442387667 
1284	 0.311299746754403 
1285	 0.310965183918395 
1286	 0.310717733381932 
1287	 0.310425838775206 
1288	 0.310137583566545 
1289	 0.309933823054667 
1290	 0.309639037354882 
1291	 0.309249512533907 
1292	 0.308879218114132 
1293	 0.308470971929445 
1294	 0.308080432660391 
1295	 0.307778466265828 
1296	 0.307324840759482 
1297	 0.306863745353386 
1298	 0.306377992678846 
1299	 0.305855788916154 
1300	 0.305251098199399 
1301	 0.304675209478823 
1302	 0.304104330527638 
1303	 0.303493275211666 
1304	 0.302850008088935 
1305	 0.302187934631964 
1306	 0.301487262299624 
1307	 0.300799438924095 
1308	 0.300106034782414 
1309	 0.299386624747968 
1310	 0.298686519245535 
1311	 0.297917039542586 
1312	 0.297127171219082 
1313	 0.296252870019928 
1314	 0.295276059733313 
1315	 0.294317726521977 
1316	 0.293275464055168 
1317	 0.292281582184739 
1318	 0.291310464265056 
1319	 0.290348133396193 
1320	 0.289448998779284 
1321	 0.288467359811134 
1322	 0.287435099675973 
1323	 0.286383373449159 
1324	 0.285225030642174 
1325	 0.283922318628464 
1326	 0.282643083734961 
1327	 0.281265008129935 
1328	 0.279933206767025 
1329	 0.278583755487922 
1330	 0.277216790833446 
1331	 0.275821531325117 
1332	 0.27449951890347 
1333	 0.273221706423247 
1334	 0.271954883146092 
1335	 0.270764483118306 
1336	 0.269586635681242 
1337	 0.26833944822241 
1338	 0.267195683121596 
1339	 0.26606210852579 
1340	 0.264995127037155 
1341	 0.264022922817129 
1342	 0.262936552956735 
1343	 0.261629123178311 
1344	 0.260403258770781 
1345	 0.259132250677282 
1346	 0.257424902830211 
1347	 0.256032233041847 
1348	 0.254803256947399 
1349	 0.253091358715374 
1350	 0.251044758252549 
1351	 0.248831479689382 
1352	 0.245916517187572 
1353	 0.243014826171577 
1354	 0.24087707518201 
1355	 0.237919205390411 
1356	 0.236668480267073 
1357	 0.234539186257374 
1358	 0.237401228341802 
1359	 0.236176747719937 
1360	 0.232148484440287 
1361	 0.229678242714216 
1362	 0.226692968876156 
1363	 0.221555402734058 
1364	 0.232422657323647 
1365	 0.228315792425379 
1366	 0.210595454391694 
1367	 0.198155304198884 
1368	 0.183528299270491 
1369	 0.180120491959784 
1370	 0.182474320319952 
1371	 0.183765109322226 
1372	 0.19144054778694 
1373	 0.192363235396717 
1374	 0.188780788794841 
1375	 0.186513577103453 
1376	 0.187657252190925 
1377	 0.185177066771566 
1378	 0.184250904434111 
1379	 0.186216401930036 
1380	 0.184821378433895 
1381	 0.181243085211817 
1382	 0.176425618841203 
1383	 0.171485112085033 
1384	 0.165576182964164 
1385	 0.156698887153566 
1386	 0.153344388597522 
1387	 0.151514331153699 
1388	 0.150890616015693 
1389	 0.154249098417006 
1390	 0.152937329309085 
1391	 0.150420188175842 
1392	 0.148242444285155 
1393	 0.144424607138669 
1394	 0.141508836558359 
1395	 0.139099173109112 
1396	 0.136692118569281 
1397	 0.134210776889645 
1398	 0.132004812829749 
1399	 0.130769249939802 
1400	 0.128564482214151 
1401	 0.124586536992597 
1402	 0.122619086710118 
1403	 0.12205981196606 
1404	 0.120632780712253 
1405	 0.119550437201868 
1406	 0.119189001246823 
1407	 0.118058908458985 
1408	 0.116539695962949 
1409	 0.114356334823103 
1410	 0.113424951836516 
1411	 0.112745719544042 
1412	 0.111876723548464 
1413	 0.111352484618109 
1414	 0.111794988719517 
1415	 0.111218431032389 
1416	 0.109957595181396 
1417	 0.109588549779234 
1418	 0.109521195560867 
1419	 0.10899587280144 
1420	 0.10859136764737 
1421	 0.108135192889838 
1422	 0.107383147974802 
1423	 0.106836285594156 
1424	 0.106284115469019 
1425	 0.10610627325696 
1426	 0.106135052873459 
1427	 0.105960473481873 
1428	 0.106059899175294 
1429	 0.105923850774509 
1430	 0.105418156265275 
1431	 0.105046869012658 
1432	 0.104617073018568 
1433	 0.104402480457289 
1434	 0.104418956477418 
1435	 0.104214680873195 
1436	 0.104089218062224 
1437	 0.103890819404817 
1438	 0.103279088817103 
1439	 0.103040092778531 
1440	 0.103085974576675 
1441	 0.103052432130746 
1442	 0.103109464373927 
1443	 0.103202881433999 
1444	 0.103202751364485 
1445	 0.10318076094394 
1446	 0.10312478319084 
1447	 0.103199034461376 
1448	 0.103431297703175 
1449	 0.103775360250222 
1450	 0.104024310677637 
1451	 0.10439233313666 
1452	 0.104599896776505 
1453	 0.104676182350777 
1454	 0.104829021754441 
1455	 0.10499460049379 
1456	 0.105170508623996 
1457	 0.105396622716035 
1458	 0.10549789915624 
1459	 0.105555251089841 
1460	 0.105651593942089 
1461	 0.105688095534624 
1462	 0.105756642787621 
1463	 0.1058663773146 
1464	 0.10602167104936 
1465	 0.106167884545983 
1466	 0.106357006827243 
1467	 0.106650884629363 
1468	 0.106921627752701 
1469	 0.107068882324135 
1470	 0.107440481386887 
1471	 0.107907980099686 
1472	 0.108427067324482 
1473	 0.109141812903639 
1474	 0.10972259130234 
1475	 0.110312040365285 
1476	 0.110793045514962 
1477	 0.111026645158278 
1478	 0.111491046953803 
1479	 0.111938339968141 
1480	 0.112523092373464 
1481	 0.113331806524069 
1482	 0.114070552693796 
1483	 0.114874742906723 
1484	 0.115582162936076 
1485	 0.116151722223021 
1486	 0.116827895388825 
1487	 0.117546126906564 
1488	 0.118152915510556 
1489	 0.118892509272566 
1490	 0.119653922320824 
1491	 0.120296979386396 
1492	 0.12091221212469 
1493	 0.121518792482804 
1494	 0.122160337546034 
1495	 0.122867420341081 
1496	 0.123669098279097 
1497	 0.124372272520947 
1498	 0.125132284149082 
1499	 0.125752934726806 
1500	 0.126226336682456 
1501	 0.126898685004173 
1502	 0.127601191807675 
1503	 0.12833769367384 
1504	 0.12921260736899 
1505	 0.129979851497163 
1506	 0.130720560030643 
1507	 0.131390513885376 
1508	 0.131993963379534 
1509	 0.132663002242883 
1510	 0.133271246413413 
1511	 0.133971290023588 
1512	 0.134809918626282 
1513	 0.135503823784187 
1514	 0.136117934522765 
1515	 0.136826670235892 
1516	 0.137537687850308 
1517	 0.138247352585322 
1518	 0.13900382439982 
1519	 0.139788751715614 
1520	 0.140647630663279 
1521	 0.141329497690098 
1522	 0.14193719345811 
1523	 0.142619171872746 
1524	 0.143156268959058 
1525	 0.143823623382325 
1526	 0.14469261928402 
1527	 0.145438318779965 
1528	 0.14618458844916 
1529	 0.146836355358857 
1530	 0.147355796655653 
1531	 0.148002658761404 
1532	 0.148632616320361 
1533	 0.149280379132554 
1534	 0.150036551066051 
1535	 0.150765519915636 
1536	 0.151487078952894 
1537	 0.152165310197815 
1538	 0.152864106573647 
1539	 0.153518181527673 
1540	 0.154031873045163 
1541	 0.154664479119951 
1542	 0.155389062460743 
1543	 0.156050316506973 
1544	 0.156770953124433 
1545	 0.157421217019169 
1546	 0.157969703221663 
1547	 0.158552803497725 
1548	 0.159092460413761 
1549	 0.159691856717793 
1550	 0.160337805733818 
1551	 0.16098283818394 
1552	 0.161692811665135 
1553	 0.162362207940702 
1554	 0.163022938831382 
1555	 0.163653856857698 
1556	 0.164231805592482 
1557	 0.164835082672913 
1558	 0.165420548802135 
1559	 0.166026317855876 
1560	 0.166689481290475 
1561	 0.167310281916079 
1562	 0.167929162961272 
1563	 0.168519921868422 
1564	 0.169080015780837 
1565	 0.169602498185077 
1566	 0.170164012651568 
1567	 0.170774328768205 
1568	 0.171368735023772 
1569	 0.172011922518359 
1570	 0.172581651476482 
1571	 0.173115147481071 
1572	 0.173650427419421 
1573	 0.174149312836336 
1574	 0.174682502850753 
1575	 0.175204322029343 
1576	 0.175771349848 
1577	 0.176388199531858 
1578	 0.176895047567542 
1579	 0.177346898773158 
1580	 0.177899916522547 
1581	 0.178416711318149 
1582	 0.178984611397362 
1583	 0.179690492440026 
1584	 0.180232327703906 
1585	 0.180687177245722 
1586	 0.181171225004923 
1587	 0.181610155538637 
1588	 0.182112066080475 
1589	 0.182649049257379 
1590	 0.183137086554976 
1591	 0.183664678574084 
1592	 0.184085710843901 
1593	 0.18437717492139 
1594	 0.184847338930681 
1595	 0.185337113274921 
1596	 0.185865554767693 
1597	 0.186523792069922 
1598	 0.187105188452452 
1599	 0.187709439369785 
1600	 0.188162000857172 
1601	 0.188525279474224 
1602	 0.188974402569925 
1603	 0.189329901887827 
1604	 0.189756440210892 
1605	 0.190290372544701 
1606	 0.19077964183925 
1607	 0.191215701973473 
1608	 0.191685717958864 
1609	 0.19223193518111 
1610	 0.192678379130296 
1611	 0.193042743000039 
1612	 0.193463207165731 
1613	 0.193906096083855 
1614	 0.194264696238102 
1615	 0.194567314642008 
1616	 0.194974534170659 
1617	 0.195374512001044 
1618	 0.195767206187982 
1619	 0.196253037508215 
1620	 0.196647791661928 
1621	 0.196958243521038 
1622	 0.197293340410732 
1623	 0.197659483170326 
1624	 0.197965619663836 
1625	 0.198172094190771 
1626	 0.198516860140141 
1627	 0.198915907020379 
1628	 0.1992875562514 
1629	 0.199744305356482 
1630	 0.200095938921799 
1631	 0.200419952627726 
1632	 0.200648527922313 
1633	 0.200764306649975 
1634	 0.201012741030333 
1635	 0.201200671403616 
1636	 0.201505516734487 
1637	 0.201984775052991 
1638	 0.202319353081043 
1639	 0.2026061714938 
1640	 0.202940710098645 
1641	 0.203319226539171 
1642	 0.203517254557325 
1643	 0.203599254705171 
1644	 0.203844195237705 
1645	 0.204032632444147 
1646	 0.204258785141044 
1647	 0.20465370831728 
1648	 0.20493651555706 
1649	 0.205092332143275 
1650	 0.205302344496569 
1651	 0.205605909509266 
1652	 0.205770701310564 
1653	 0.205830389130757 
1654	 0.205952739204058 
1655	 0.20605717723763 
1656	 0.206157787171123 
1657	 0.206251785050094 
1658	 0.206298866726057 
1659	 0.20647006974786 
1660	 0.206549065241377 
1661	 0.206564694961614 
1662	 0.206604479756669 
1663	 0.20650716399473 
1664	 0.206297008141449 
1665	 0.20637929977926 
1666	 0.206581870679818 
1667	 0.206702767530906 
1668	 0.207001860704214 
1669	 0.207163453886464 
1670	 0.207094106068065 
1671	 0.207126097611786 
1672	 0.207159715258359 
1673	 0.207063441200449 
1674	 0.206923199565332 
1675	 0.206810793955156 
1676	 0.206790031792445 
1677	 0.206945926432145 
1678	 0.207130711235429 
1679	 0.207230879908457 
1680	 0.207196698166965 
1681	 0.206918696628789 
1682	 0.206625361732076 
1683	 0.206390006246508 
1684	 0.206153735541568 
1685	 0.206104611436887 
1686	 0.206026631933904 
1687	 0.205887945032665 
1688	 0.205890482337777 
1689	 0.205799734194863 
1690	 0.205762369182061 
1691	 0.205607069437386 
1692	 0.205219268164634 
1693	 0.204864064488701 
1694	 0.204462582764559 
1695	 0.204169436740415 
1696	 0.203865244923137 
1697	 0.203635582226278 
1698	 0.203618009275805 
1699	 0.203353859355046 
1700	 0.202975205051088 
1701	 0.20267773376785 
1702	 0.202264375071598 
1703	 0.201893965443264 
1704	 0.201616439092563 
1705	 0.201247758314203 
1706	 0.200809628455461 
1707	 0.200421711891026 
1708	 0.200047471549368 
1709	 0.199708827590428 
1710	 0.199430743790424 
1711	 0.199035404007084 
1712	 0.198552879849241 
1713	 0.198131686365778 
1714	 0.197695379303529 
1715	 0.197261323331893 
1716	 0.196852619043297 
1717	 0.196495223531585 
1718	 0.19610340336335 
1719	 0.195722390521368 
1720	 0.19548451503462 
1721	 0.195157260862136 
1722	 0.194709961985786 
1723	 0.194386612832121 
1724	 0.194072722368986 
1725	 0.193749099747253 
1726	 0.19349425792624 
1727	 0.193230440205906 
1728	 0.192953337804119 
1729	 0.19275455240568 
1730	 0.192610075723822 
1731	 0.192373302795672 
1732	 0.192241286016758 
1733	 0.191996419312668 
1734	 0.191656842247159 
1735	 0.191433777484671 
1736	 0.191220829532507 
1737	 0.190947564682665 
1738	 0.190871412851463 
1739	 0.190656333058126 
1740	 0.19017642116587 
1741	 0.189933119230156 
1742	 0.189678670387153 
1743	 0.189463495903736 
1744	 0.189332197755546 
1745	 0.188834124839532 
1746	 0.188242855956242 
1747	 0.187786259867939 
1748	 0.187485496907095 
1749	 0.187111417178807 
1750	 0.186720659294429 
1751	 0.186296786960861 
1752	 0.185649209006186 
1753	 0.185362354742815 
1754	 0.185126722587917 
1755	 0.184782742619752 
1756	 0.18436364909342 
1757	 0.183688722706956 
1758	 0.183252983957007 
1759	 0.182872300363665 
1760	 0.182504058642233 
1761	 0.182414287992453 
1762	 0.181988028424501 
1763	 0.181258193475889 
1764	 0.180771704977099 
1765	 0.180111169624886 
1766	 0.179716302502343 
1767	 0.179720800382444 
1768	 0.179488005914878 
1769	 0.179257597448274 
1770	 0.178977868354634 
1771	 0.178595916349112 
1772	 0.178235110467321 
1773	 0.177843120303691 
1774	 0.177635491512935 
1775	 0.177326415029344 
1776	 0.177036763614094 
1777	 0.176731946771439 
1778	 0.176275517349149 
1779	 0.175944454353685 
1780	 0.175802934332837 
1781	 0.175712918539364 
1782	 0.175710739134388 
1783	 0.175720370102936 
1784	 0.175492589049541 
1785	 0.175211591653865 
1786	 0.175092468995548 
1787	 0.174844925917735 
1788	 0.174226588549915 
1789	 0.173763203713949 
1790	 0.173543297584008 
1791	 0.173206741988882 
1792	 0.173148272956251 
1793	 0.173250349589113 
1794	 0.173165016528467 
1795	 0.172623631287545 
1796	 0.172265073217652 
1797	 0.171804389471983 
1798	 0.170733538739958 
1799	 0.170603444451277 
1800	 0.170857263617096 
1801	 0.166812110161927 
1802	 0.164609390868513 
1803	 0.164218697609452 
1804	 0.166235658733988 
1805	 0.166319284067363 
1806	 0.165931188682894 
1807	 0.165559295747182 
1808	 0.163578080306035 
1809	 0.162647809090446 
1810	 0.161805343966393 
1811	 0.161866792281182 
1812	 0.161267028869988 
1813	 0.159557944988128 
1814	 0.159597102125887 
1815	 0.162199355980033 
1816	 0.162521169208033 
1817	 0.162769526691587 
1818	 0.163260679013649 
1819	 0.163056722742454 
1820	 0.159893475403296 
1821	 0.157686798706217 
1822	 0.15582401609009 
1823	 0.154716314563341 
1824	 0.152770763541376 
1825	 0.150810577871874 
1826	 0.150435555032564 
1827	 0.150748362953929 
1828	 0.151467710940235 
1829	 0.150494903193294 
1830	 0.150385166421244 
1831	 0.154876373538994 
1832	 0.159130669641551 
1833	 0.15951276799133 
1834	 0.164676488689911 
1835	 0.182899869477677 
1836	 0.19864731573538 
1837	 0.197907136204914 
1838	 0.213852562215625 
1839	 0.23649986728554 
1840	 0.263960011197541 
1841	 0.282497703137641 
1842	 0.300189711074773 
1843	 0.308043060750653 
1844	 0.297637709096452 
1845	 0.300179221775854 
1846	 0.341579048126101 
1847	 0.329077140419804 
1848	 0.292379749205592 
1849	 0.220786458453485 
1850	 0.183177350688742 
1851	 9.91918258560389E-02 
1852	 7.19721203867502E-02 
1853	 9.41698282866908E-02 
1854	 0.116360891672397 
1855	 0.18108465304618 
1856	 0.18883252401395 
1857	 0.185453426616524 
1858	 0.180715560519623 
1859	 0.174813585737477 
1860	 0.132201285533982 
1861	 0.128882419743742 
1862	 0.151226350744938 
1863	 0.163887163137071 
1864	 0.197998615570616 
1865	 0.204406032773073 
1866	 0.195712108805523 
1867	 0.193742235129831 
1868	 0.166180904761916 
1869	 8.89770287252298E-02 
1870	 6.34243950855392E-02 
1871	 6.32025981890269E-02 
1872	 3.76029932693527E-02 
1873	 1.33673448657062E-03 
1874	 1.71543629239673E-02 
1875	 5.19281965770411E-02 
1876	 6.57984794336937E-02 
1877	 9.08678086335767E-02 
1878	 0.110377139476415 
1879	 0.111236458839783 
1880	 9.07495290440479E-02 
1881	 8.51723106599321E-02 
1882	 8.17060669106473E-02 
1883	 7.82559396599632E-02 
1884	 7.48988626853201E-02 
1885	 7.38213696497215E-02 
1886	 7.83738593909161E-02 
1887	 7.42960792127127E-02 
1888	 6.43818708237565E-02 
1889	 0.061274932018009 
1890	 5.96325087749904E-02 
1891	 5.48336270613627E-02 
1892	 5.49890254155245E-02 
1893	 0.06825015632544 
1894	 6.71419331765991E-02 
1895	 5.47668238949975E-02 
1896	 5.14353430673245E-02 
1897	 4.65362487253414E-02 
1898	 3.51421979825812E-02 
1899	 4.62739393832062E-02 
1900	 5.45673147406589E-02 
1901	 5.97963192881815E-02 
1902	 6.78912676159808E-02 
1903	 7.33431862982144E-02 
1904	 6.27158067465235E-02 
1905	 7.61850146215753E-02 
1906	 0.115690078654196 
1907	 0.122266830316894 
1908	 0.113570552820272 
1909	 9.30392633385551E-02 
1910	 6.44897011701882E-02 
1911	 0.041323762367129 
1912	 3.86891098568618E-02 
1913	 5.47414143690783E-02 
1914	 5.52684078254485E-02 
1915	 5.56045938699997E-02 
1916	 0.053971371165541 
1917	 4.83101018414118E-02 
1918	 4.64912396324565E-02 
1919	 4.84731927739743E-02 
1920	 4.82651959678072E-02 
1921	 5.06194024814454E-02 
1922	 5.17763184451833E-02 
1923	 0.053540195950578 
1924	 5.72392413350135E-02 
1925	 5.77463964072195E-02 
1926	 0.057177062216472 
1927	 5.59968799673998E-02 
1928	 0.052892091729179 
1929	 4.77013097225323E-02 
1930	 4.93380932990359E-02 
1931	 5.36251960198596E-02 
1932	 5.34695343847784E-02 
1933	 5.51331709832393E-02 
1934	 5.62635645569495E-02 
1935	 5.60024655564452E-02 
1936	 5.48290132758354E-02 
1937	 5.45282888847649E-02 
1938	 5.36045563365275E-02 
1939	 5.02301218201681E-02 
1940	 4.83135139814173E-02 
1941	 5.15413620111095E-02 
1942	 5.40206637179383E-02 
1943	 0.056949856498916 
1944	 6.02788388055985E-02 
1945	 5.87841182574342E-02 
1946	 5.67194059895341E-02 
1947	 5.64005926540388E-02 
1948	 5.56637031094331E-02 
1949	 5.53323886861554E-02 
1950	 5.57962891200196E-02 
1951	 5.81046069721651E-02 
1952	 5.80743120023715E-02 
1953	 0.057830396733401 
1954	 0.059878988151787 
1955	 6.02404429132136E-02 
1956	 5.95058385844221E-02 
1957	 6.01869274957688E-02 
1958	 6.06783584953644E-02 
1959	 6.01936281418315E-02 
1960	 6.04681070895337E-02 
1961	 6.14854886053929E-02 
1962	 6.24630627191746E-02 
1963	 6.25829733125977E-02 
1964	 0.06340374451008 
1965	 6.38311001046045E-02 
1966	 6.40149575527903E-02 
1967	 6.48070193528459E-02 
1968	 6.51480296535053E-02 
1969	 6.54918886823446E-02 
1970	 6.60448878859149E-02 
1971	 6.65164252230746E-02 
1972	 6.68594943229009E-02 
1973	 6.70264044782739E-02 
1974	 6.72650884302819E-02 
1975	 6.73807680193581E-02 
1976	 6.74098640476601E-02 
1977	 6.77760629635413E-02 
1978	 6.82112872471008E-02 
1979	 6.86486054855428E-02 
1980	 6.86258734670423E-02 
1981	 6.86123042522127E-02 
1982	 6.89346613676648E-02 
1983	 6.95150051208193E-02 
1984	 0.069823820664338 
1985	 7.04297408374395E-02 
1986	 7.07450864090477E-02 
1987	 7.04710690162316E-02 
1988	 7.05613586362755E-02 
1989	 0.070799582462122 
1990	 7.12010648143861E-02 
1991	 7.15701497761704E-02 
1992	 7.17507635009464E-02 
1993	 7.16236660773614E-02 
1994	 7.15428162431314E-02 
1995	 7.16725421401039E-02 
1996	 7.20380239651843E-02 
1997	 7.23777734270177E-02 
1998	 7.33271222040703E-02 
1999	 7.39639448598002E-02 
2000	 7.43950814720618E-02 
2001	 0.075134960915303 
2002	 7.50203674792341E-02 
2003	 7.52277146872326E-02 
2004	 7.58100844565628E-02 
2005	 7.55947810769628E-02 
2006	 7.56786908777815E-02 
2007	 7.58156467876113E-02 
2008	 7.63502058126579E-02 
2009	 7.66780001383463E-02 
2010	 0.077848566305798 
2011	 7.96475030398274E-02 
2012	 8.04243022721729E-02 
2013	 8.02022643513478E-02 
2014	 7.92816684417232E-02 
2015	 7.86311278704662E-02 
2016	 7.87043204550871E-02 
2017	 0.079214240751041 
2018	 8.03498316331689E-02 
2019	 8.10541684202149E-02 
2020	 8.19300257760314E-02 
2021	 8.16073316052516E-02 
2022	 8.08594698064398E-02 
2023	 8.09110917655632E-02 
2024	 0.080709949936082 
2025	 8.07365551412469E-02 
2026	 8.17171106864404E-02 
2027	 8.20649618274632E-02 
2028	 0.08249529336392 
2029	 8.31214183117314E-02 
2030	 8.36799015168628E-02 
2031	 8.45856644678326E-02 
2032	 8.49320030821001E-02 
2033	 8.49405207911936E-02 
2034	 8.50134987665535E-02 
2035	 8.51002130274625E-02 
2036	 8.49234249322488E-02 
2037	 8.52141637653674E-02 
2038	 8.55179465407594E-02 
2039	 8.60198591595709E-02 
2040	 8.61565806154952E-02 
2041	 0.086202236128891 
2042	 8.69113781736348E-02 
2043	 8.72706090326039E-02 
2044	 8.76755328880572E-02 
2045	 8.81251297617864E-02 
2046	 8.88474437581797E-02 
2047	 0.08896541423448 
2048	 8.90970881390128E-02 
2049	 8.95437892317204E-02 
2050	 8.97926356676643E-02 
2051	 9.00738756406209E-02 
2052	 9.03007762009175E-02 
2053	 9.04005997253546E-02 
2054	 9.10114315242651E-02 
2055	 9.14236402638333E-02 
2056	 9.16208786444282E-02 
2057	 9.20722261975502E-02 
2058	 9.21240450928447E-02 
2059	 9.22283960726173E-02 
2060	 9.23133009672996E-02 
2061	 9.26575081613118E-02 
2062	 9.25064656722047E-02 
2063	 9.26274130793085E-02 
2064	 9.31185379415145E-02 
2065	 9.31825691413225E-02 
2066	 0.093623032203618 
2067	 9.40109003545509E-02 
2068	 9.38332796039003E-02 
2069	 9.40476410067779E-02 
2070	 9.45415151141411E-02 
2071	 9.48708120977562E-02 
2072	 9.50993791220976E-02 
2073	 9.53088027334826E-02 
2074	 9.56833435241299E-02 
2075	 9.60619894590114E-02 
2076	 9.62747574712342E-02 
2077	 9.67960795795669E-02 
2078	 0.097159704942297 
2079	 9.69549361178465E-02 
2080	 9.72120250454309E-02 
2081	 9.76091868271022E-02 
2082	 0.09783211366216 
2083	 9.81257182097857E-02 
2084	 9.80841473406264E-02 
2085	 9.80376960179934E-02 
2086	 9.83784355976478E-02 
2087	 0.098757440589414 
2088	 9.94379904038836E-02 
2089	 9.98719493909805E-02 
2090	 0.100099254467415 
2091	 0.100201729151355 
2092	 0.100049469910752 
2093	 0.100345466713975 
2094	 0.100901152450213 
2095	 0.101287430618947 
2096	 0.101907149456241 
2097	 0.102454516419523 
2098	 0.102757150942914 
2099	 0.103025587707121 
2100	 0.103307868615003 
2101	 0.103581298123285 
2102	 0.103810331297363 
2103	 0.104108186470787 
2104	 0.104384693508873 
2105	 0.104360238212427 
2106	 0.104412094809032 
2107	 0.104729840788182 
2108	 0.105342822331493 
2109	 0.106056904352609 
2110	 0.106620208561295 
2111	 0.107038159555107 
2112	 0.106876115871815 
2113	 0.10662383401616 
2114	 0.106360519194287 
2115	 0.106424680421302 
2116	 0.107228554770161 
2117	 0.107637536260613 
2118	 0.108283351327312 
2119	 0.108627861075792 
2120	 0.108697238126758 
2121	 0.108529340169136 
2122	 0.108690120328133 
2123	 0.109113748233388 
2124	 0.109570354668704 
2125	 0.109948232417099 
2126	 0.11025489961135 
2127	 0.110519693442719 
2128	 0.110942921773284 
2129	 0.111139045719339 
2130	 0.111491535681706 
2131	 0.112234691263949 
2132	 0.112362471398779 
2133	 0.11211653773531 
2134	 0.112167386863614 
2135	 0.112153792416058 
2136	 0.111896207810579 
2137	 0.111994819194097 
2138	 0.112651534994683 
2139	 0.113194362438979 
2140	 0.113393380059461 
2141	 0.113445841017281 
2142	 0.113716213906816 
2143	 0.113832342874171 
2144	 0.113859862966178 
2145	 0.114321523843843 
2146	 0.114633891850289 
2147	 0.114817194235224 
2148	 0.114865604487629 
2149	 0.114760040813803 
2150	 0.114853273014227 
2151	 0.114939575141561 
2152	 0.114930275970213 
2153	 0.115188005221719 
2154	 0.115678830707059 
2155	 0.116090037096499 
2156	 0.116420418756141 
2157	 0.116634921652468 
2158	 0.116696032835727 
2159	 0.116489252815003 
2160	 0.116752798316889 
2161	 0.116977561505144 
2162	 0.116997069867443 
2163	 0.117009888283173 
2164	 0.116360746290922 
2165	 0.115821241762935 
2166	 0.115684073833467 
2167	 0.115918479628487 
2168	 0.116214506941661 
2169	 0.116944084694548 
2170	 0.11740001958225 
2171	 0.117879754390413 
2172	 0.118104026588316 
2173	 0.118310813356046 
2174	 0.118740099789582 
2175	 0.119177598752799 
2176	 0.119112622881373 
2177	 0.119094455032508 
2178	 0.119073656602772 
2179	 0.118388281690129 
2180	 0.118283933686927 
2181	 0.118629602378226 
2182	 0.118746846033997 
2183	 0.118806716844912 
2184	 0.119094327896401 
2185	 0.119583873556259 
2186	 0.119682054437924 
2187	 0.11972020588803 
2188	 0.119925660581352 
2189	 0.120020265499654 
2190	 0.119683690531243 
2191	 0.11986911277306 
2192	 0.120093699766674 
2193	 0.119842314091338 
2194	 0.119874478366792 
2195	 0.119529608038365 
2196	 0.119638962853605 
2197	 0.12051978522333 
2198	 0.12080314429601 
2199	 0.120853819011802 
2200	 0.120866728742629 
2201	 0.120252175943819 
2202	 0.119979273954775 
2203	 0.120491199150882 
2204	 0.120878996322325 
2205	 0.121292297209118 
2206	 0.121076078713524 
2207	 0.120520572983274 
2208	 0.120393245954631 
2209	 0.120158537834421 
2210	 0.120038314345839 
2211	 0.120402913340318 
2212	 0.120649231074867 
2213	 0.119903953279787 
2214	 0.119458628374846 
2215	 0.119461612811896 
2216	 0.119329376698813 
2217	 0.119656081665478 
2218	 0.120284321308597 
2219	 0.120915385739791 
2220	 0.121545489381142 
2221	 0.121435467385046 
2222	 0.120940211879406 
2223	 0.120973141423067 
2224	 0.120353918046486 
2225	 0.120262116554965 
2226	 0.121180405417782 
2227	 0.120883101556326 
2228	 0.12034635457723 
2229	 0.11939941243415 
2230	 0.118276185453705 
2231	 0.117788560393618 
2232	 0.117511056698585 
2233	 0.117514880998236 
2234	 0.11835149168828 
2235	 0.118624182531603 
2236	 0.118513426546437 
2237	 0.118474716758276 
2238	 0.11790273516441 
2239	 0.117149628006684 
2240	 0.116848031423858 
2241	 0.116439993813471 
2242	 0.116042797385849 
2243	 0.116480235435549 
2244	 0.116606583202624 
2245	 0.116908773930096 
2246	 0.117012291466308 
2247	 0.116352511629477 
2248	 0.11583004035698 
2249	 0.115043631274616 
2250	 0.115003453123036 
2251	 0.115483284256938 
2252	 0.115383373980201 
2253	 0.115170312469715 
2254	 0.114406860521383 
2255	 0.113725224660945 
2256	 0.113281030908708 
2257	 0.113198115908768 
2258	 0.112656048713386 
2259	 0.112021001757523 
2260	 0.111299418421412 
2261	 0.110560183750793 
2262	 0.110976399544037 
2263	 0.111523665538505 
2264	 0.110876476221088 
2265	 0.110345674542779 
2266	 0.109605087441267 
2267	 0.107852333900401 
2268	 0.10727127466886 
2269	 0.107640832653252 
2270	 0.106970622925176 
2271	 0.107256497965822 
2272	 0.107593456985343 
2273	 0.107068761602909 
2274	 0.107318327997806 
2275	 0.10710451933163 
2276	 0.107129508923449 
2277	 0.107307419449293 
2278	 0.106509386109149 
2279	 0.105984774932462 
2280	 0.106170435758869 
2281	 0.106321442189163 
2282	 0.106149305263364 
2283	 0.105469478005699 
2284	 0.104227871086573 
2285	 0.103173129939291 
2286	 0.102881528461862 
2287	 0.103285216130187 
2288	 0.104114579262867 
2289	 0.10437937220253 
2290	 0.1039054441093 
2291	 0.102566674820536 
2292	 0.100987909905612 
2293	 9.99433831646546E-02 
2294	 9.97621285956481E-02 
2295	 9.99504721866903E-02 
2296	 9.99639039060808E-02 
2297	 0.100174427562916 
2298	 0.100627040623027 
2299	 0.100860925415806 
2300	 0.100754463002124 
2301	 0.100566073661371 
2302	 0.099803178224776 
2303	 9.91995981192748E-02 
2304	 0.09866088973356 
2305	 9.74293259499836E-02 
2306	 9.63818289192437E-02 
2307	 9.48980446447098E-02 
2308	 9.44614044874934E-02 
2309	 9.55123914006451E-02 
2310	 9.67065570296824E-02 
2311	 9.88026691400201E-02 
2312	 0.10021023621137 
2313	 9.97357842957021E-02 
2314	 9.91171122169147E-02 
2315	 9.75383329967011E-02 
2316	 9.47944989642536E-02 
2317	 0.094790790363139 
2318	 9.49718072517713E-02 
2319	 9.37912190876162E-02 
2320	 9.50402773743053E-02 
2321	 9.50095939635746E-02 
2322	 9.29051009074799E-02 
2323	 9.23992483558532E-02 
2324	 9.30704624794779E-02 
2325	 0.091994002342289 
2326	 9.22247507133936E-02 
2327	 9.24488310620804E-02 
2328	 9.08801682512259E-02 
2329	 9.06476445976861E-02 
2330	 8.92431141388724E-02 
2331	 8.87015155512062E-02 
2332	 9.10316069056577E-02 
2333	 9.14553437770121E-02 
2334	 9.22507752338672E-02 
2335	 9.31261139603441E-02 
2336	 9.20562364951121E-02 
2337	 9.20123221899266E-02 
2338	 9.09623481945952E-02 
2339	 9.01140864413534E-02 
2340	 0.089684423800354 
2341	 8.85655405080984E-02 
2342	 8.94464899861402E-02 
2343	 8.95298089990986E-02 
2344	 8.79429769272585E-02 
2345	 8.82498062110997E-02 
2346	 8.81230748863938E-02 
2347	 8.88140997283739E-02 
2348	 9.29261614815197E-02 
2349	 9.32992609157049E-02 
2350	 9.20580933224601E-02 
2351	 9.16318402512271E-02 
2352	 8.91745589433134E-02 
2353	 8.90884040934423E-02 
2354	 8.94307430611486E-02 
2355	 8.83009187799786E-02 
2356	 0.087211717629689 
2357	 8.58429415805137E-02 
2358	 8.58021297845768E-02 
2359	 8.68321792208941E-02 
2360	 8.74520354709701E-02 
2361	 8.77009549524129E-02 
2362	 8.85364422277284E-02 
2363	 8.95382564216031E-02 
2364	 9.03143811820692E-02 
2365	 9.09832973293868E-02 
2366	 8.96672582238339E-02 
2367	 8.76425246256943E-02 
2368	 8.69336729912557E-02 
2369	 8.58434716646174E-02 
2370	 8.47652141719796E-02 
2371	 8.47583074133103E-02 
2372	 8.47161750216797E-02 
2373	 8.47635228444531E-02 
2374	 8.36037209341918E-02 
2375	 8.19912646816582E-02 
2376	 8.11834005794294E-02 
2377	 7.82332119421175E-02 
2378	 7.88035765888898E-02 
2379	 8.37864134372116E-02 
2380	 8.56723474467225E-02 
2381	 8.79890956273884E-02 
2382	 8.81393809489071E-02 
2383	 8.57743493742354E-02 
2384	 8.34271999381531E-02 
2385	 7.88945752228932E-02 
2386	 7.79404541310903E-02 
2387	 7.91327592562448E-02 
2388	 0.078830272553841 
2389	 7.95380254728803E-02 
2390	 7.93819147211326E-02 
2391	 7.73068718509415E-02 
2392	 7.55164793093956E-02 
2393	 0.074530922217765 
2394	 7.43744236104696E-02 
2395	 0.073449685193625 
2396	 7.45008564987178E-02 
2397	 7.86441573947212E-02 
2398	 7.91270551135483E-02 
2399	 0.0780629919379 
2400	 7.78638485667493E-02 
2401	 0.076224441533225 
2402	 7.51588322312581E-02 
2403	 7.70578714314249E-02 
2404	 7.75262289954986E-02 
2405	 7.64489377213447E-02 
2406	 7.78816178351381E-02 
2407	 7.77847536670222E-02 
2408	 0.077233122803674 
2409	 7.50192321921441E-02 
2410	 7.08094372155943E-02 
2411	 0.067350282976066 
2412	 6.49424469594559E-02 
2413	 0.069938332770737 
2414	 7.69232116278511E-02 
2415	 8.00612505246792E-02 
2416	 8.16952341946347E-02 
2417	 8.00732463322535E-02 
2418	 7.74758493226599E-02 
2419	 7.63681694393744E-02 
2420	 7.77617728255372E-02 
2421	 7.72156556032709E-02 
2422	 7.27895121473375E-02 
2423	 7.10214238005336E-02 
2424	 6.93833792069872E-02 
2425	 6.85043614199628E-02 
2426	 7.02824407558133E-02 
2427	 6.97508568397083E-02 
2428	 7.18383825307745E-02 
2429	 7.23450765490875E-02 
2430	 6.87761089726353E-02 
2431	 7.09072144615725E-02 
2432	 6.97713969714962E-02 
2433	 6.93862317796973E-02 
2434	 6.82574531457221E-02 
2435	 6.12290532565088E-02 
2436	 5.99707580575315E-02 
2437	 6.36267646348953E-02 
2438	 6.41235893774792E-02 
2439	 6.67449932785567E-02 
2440	 6.63069724797477E-02 
2441	 6.11873486666286E-02 
2442	 5.81486665799695E-02 
2443	 5.62344131877444E-02 
2444	 5.33205896395855E-02 
2445	 4.55881689813381E-02 
2446	 4.51379163277777E-02 
2447	 5.16013219020947E-02 
2448	 5.37233160086665E-02 
2449	 6.19728600161331E-02 
2450	 6.26846030440479E-02 
2451	 0.048547223945147 
2452	 4.71087297348068E-02 
2453	 5.30936402108277E-02 
2454	 5.65164341869265E-02 
2455	 6.83465661368897E-02 
2456	 7.17976391494233E-02 
2457	 6.57852417284218E-02 
2458	 6.31806140661174E-02 
2459	 6.03463484881291E-02 
2460	 5.65745135680561E-02 
2461	 5.32102719245874E-02 
2462	 4.85539226997931E-02 
2463	 3.65988249159568E-02 
2464	 3.60566362282786E-02 
2465	 4.71251855013025E-02 
2466	 4.63371824484361E-02 
2467	 4.72520443998933E-02 
2468	 0.04789285295261 
2469	 3.36060097591648E-02 
2470	 3.39900709336859E-02 
2471	 5.05698608562581E-02 
2472	 0.057165640415218 
2473	 6.84349100016839E-02 
2474	 6.46893937812782E-02 
2475	 4.46103463693285E-02 
2476	 3.13760515679828E-02 
2477	 2.54041283178206E-03 
2478	-6.70660715395331E-03 
2479	 6.91700957143292E-03 
2480	 1.19219843853751E-02 
2481	 2.57770421979661E-02 
2482	 2.59329245497757E-02 
2483	 0.013359358979356 
2484	-8.8009976501966E-05 
2485	-0.022511458863437 
2486	-7.67359742531818E-02 
2487	-9.83723663739235E-02 
2488	-9.58477008562535E-02 
2489	-9.50591474415502E-02 
2490	-1.92776320646628E-02 
2491	 5.78111738429559E-02 
2492	 5.82945978289785E-02 
2493	 7.55295161864121E-02 
2494	 0.060159826196852 
2495	-2.59236583241343E-03 
2496	 8.08291896408882E-03 
2497	 1.05656507224483E-02 
2498	-3.14926527448582E-02 
2499	-2.95916769042767E-02 
2500	-3.13236927586467E-02 
