Wavelength	ref00070.asd
350	 1.00491526584635E-02 
351	 9.30159044329427E-03 
352	 9.29972121215651E-03 
353	 1.00005431861079E-02 
354	 1.00447601517809E-02 
355	 9.72146898422947E-03 
356	 9.43815819692661E-03 
357	 9.08253982494749E-03 
358	 9.49088940311127E-03 
359	 9.89990695229425E-03 
360	 9.54020199695508E-03 
361	 9.90538412147245E-03 
362	 9.57228285894293E-03 
363	 8.93636980930307E-03 
364	 9.37307411031053E-03 
365	 8.87240523897024E-03 
366	 8.8123105402285E-03 
367	 9.37434419140174E-03 
368	 8.54650323337176E-03 
369	 8.41945809759255E-03 
370	 8.83930022793688E-03 
371	 9.16573379824511E-03 
372	 9.02324831970977E-03 
373	 8.94367000528133E-03 
374	 8.8547068276607E-03 
375	 8.49213661806015E-03 
376	 8.69137331069625E-03 
377	 8.75547130424998E-03 
378	 8.6403915350827E-03 
379	 9.20530279257817E-03 
380	 9.16473615661865E-03 
381	 8.96481060959003E-03 
382	 9.10555190136493E-03 
383	 9.21163869960454E-03 
384	 9.08638417059263E-03 
385	 8.91205500578727E-03 
386	 8.96054004022301E-03 
387	 8.73878764359528E-03 
388	 9.13362498912314E-03 
389	 9.76514790353913E-03 
390	 9.01754007774143E-03 
391	 9.13132805597827E-03 
392	 9.48129196809024E-03 
393	 9.41504273116684E-03 
394	 9.4212433104131E-03 
395	 9.51709037930281E-03 
396	 9.71582618736475E-03 
397	 9.97261031860712E-03 
398	 1.00842843874493E-02 
399	 1.00739983037992E-02 
400	 1.01048345682919E-02 
401	 1.03877623439942E-02 
402	 1.03037215727091E-02 
403	 1.01718945939492E-02 
404	 1.02603488566961E-02 
405	 1.04650499327561E-02 
406	 1.06769440608143E-02 
407	 1.08095463628728E-02 
408	 1.08241346873889E-02 
409	 1.08069031180483E-02 
410	 1.09903024882407E-02 
411	 0.011395359825457 
412	 1.18146000985626E-02 
413	 1.15261159862057E-02 
414	 0.011349078715827 
415	 1.17247819197914E-02 
416	 1.18060984055126E-02 
417	 1.19575549382449E-02 
418	 1.20342334612289E-02 
419	 1.18893616024067E-02 
420	 1.21684256464938E-02 
421	 0.012451499015886 
422	 1.25920160100364E-02 
423	 1.27304734607405E-02 
424	 1.28703794377809E-02 
425	 1.29509387241868E-02 
426	 1.29808634905325E-02 
427	 1.31600616065008E-02 
428	 1.31878130249267E-02 
429	 1.31894177681978E-02 
430	 1.33718936555026E-02 
431	 1.35190500554071E-02 
432	 1.37110789513186E-02 
433	 1.38650528735813E-02 
434	 1.37804988008428E-02 
435	 1.38398009435577E-02 
436	 1.39150824920496E-02 
437	 1.39240196817377E-02 
438	 1.40603014891747E-02 
439	 0.014203865130799 
440	 1.43423442700299E-02 
441	 1.44845831553858E-02 
442	 1.45361774848648E-02 
443	 1.46847162979856E-02 
444	 0.014891958221416 
445	 1.49108110293828E-02 
446	 1.49526102254623E-02 
447	 0.015090441774889 
448	 1.53051899710752E-02 
449	 1.54266955427183E-02 
450	 1.55425934866547E-02 
451	 1.56854905429712E-02 
452	 1.58569773629112E-02 
453	 1.60222741139923E-02 
454	 1.61056319933856E-02 
455	 0.016109696403501 
456	 1.61298942085206E-02 
457	 1.63282309178146E-02 
458	 1.64998890121994E-02 
459	 1.64797732026397E-02 
460	 1.64568728715363E-02 
461	 1.65979803690814E-02 
462	 1.67566859533707E-02 
463	 1.66687083635515E-02 
464	 1.67058063707274E-02 
465	 0.016764472913365 
466	 1.68069725193395E-02 
467	 1.69734856062496E-02 
468	 0.016995955254677 
469	 1.69707233387637E-02 
470	 1.70364295479518E-02 
471	 1.70546599691183E-02 
472	 1.71612216156424E-02 
473	 1.73229358979859E-02 
474	 1.73962023473254E-02 
475	 1.74854366092291E-02 
476	 1.74687448322288E-02 
477	 1.73568160111255E-02 
478	 1.74614056189432E-02 
479	 1.76042453372123E-02 
480	 1.77489000493619E-02 
481	 1.78801089514007E-02 
482	 1.78570989932934E-02 
483	 1.78845343079341E-02 
484	 1.80268813375364E-02 
485	 1.81833828715147E-02 
486	 1.81459496999803E-02 
487	 1.81596758165671E-02 
488	 1.83780759767564E-02 
489	 1.84647528807915E-02 
490	 1.86680243963068E-02 
491	 1.89293829637295E-02 
492	 1.90842361779697E-02 
493	 1.91509172801712E-02 
494	 1.93620330360317E-02 
495	 0.019713235632741 
496	 1.98961878258299E-02 
497	 2.00724439395746E-02 
498	 2.03302082898061E-02 
499	 2.07063620186326E-02 
500	 0.021119983415322 
501	 2.16217776118943E-02 
502	 2.21047958547204E-02 
503	 2.24126743751661E-02 
504	 2.28774225334062E-02 
505	 2.33616096262753E-02 
506	 2.38300024169797E-02 
507	 2.45142439102839E-02 
508	 2.51106806184105E-02 
509	 0.025733691410446 
510	 2.65528143381882E-02 
511	 2.73883804449924E-02 
512	 0.028190295432755 
513	 2.89571301058258E-02 
514	 2.97410200930849E-02 
515	 3.07562549995488E-02 
516	 3.18200653224663E-02 
517	 3.28139675983305E-02 
518	 3.39866989216364E-02 
519	 3.50751829084689E-02 
520	 3.61123341397269E-02 
521	 0.037227989729701 
522	 3.83493773935507E-02 
523	 3.94468463515317E-02 
524	 4.04692066725554E-02 
525	 4.13307118521868E-02 
526	 4.24510388712949E-02 
527	 4.35886596656564E-02 
528	 4.45000360022565E-02 
529	 4.54392868281344E-02 
530	 4.62240190068655E-02 
531	 0.046905732621837 
532	 4.76479732838829E-02 
533	 4.83204674402285E-02 
534	 4.89859517473238E-02 
535	 0.049635549900878 
536	 5.01113408610977E-02 
537	 5.05991731644979E-02 
538	 5.10356720074715E-02 
539	 5.13501004147737E-02 
540	 5.17922266567826E-02 
541	 0.052319224066946 
542	 5.27707051347595E-02 
543	 5.29363639196717E-02 
544	 5.32800776134267E-02 
545	 5.36705827507288E-02 
546	 5.39662036136424E-02 
547	 5.42362383333792E-02 
548	 5.45290882157155E-02 
549	 5.47722615360992E-02 
550	 5.48794726078187E-02 
551	 5.50324650364685E-02 
552	 5.51958065344849E-02 
553	 5.53048483550291E-02 
554	 0.055283257629284 
555	 5.51739084842813E-02 
556	 5.50144926023359E-02 
557	 5.48301176586211E-02 
558	 5.46081176507457E-02 
559	 5.43583417763785E-02 
560	 5.40287493747898E-02 
561	 5.35588765793015E-02 
562	 5.32338665455124E-02 
563	 5.28425017517137E-02 
564	 5.22688928587876E-02 
565	 0.051670296357946 
566	 5.11699533207229E-02 
567	 5.07019241862028E-02 
568	 5.01555101283167E-02 
569	 4.95961007993782E-02 
570	 4.89234919631758E-02 
571	 4.82251429217214E-02 
572	 4.77409286045377E-02 
573	 4.71102201526691E-02 
574	 4.65239206736671E-02 
575	 4.61042778275577E-02 
576	 4.55473649893463E-02 
577	 4.50437484165441E-02 
578	 4.46020059290982E-02 
579	 4.41542878214075E-02 
580	 4.37438078853419E-02 
581	 4.33685108941702E-02 
582	 4.30130961514637E-02 
583	 4.26493258974108E-02 
584	 4.23623900550861E-02 
585	 4.20846297842918E-02 
586	 4.17669144956956E-02 
587	 4.15823063666968E-02 
588	 4.14259483607117E-02 
589	 4.12357687582855E-02 
590	 4.09957593146302E-02 
591	 4.07506045006725E-02 
592	 4.05758653502848E-02 
593	 4.04797530887874E-02 
594	 4.03707210752352E-02 
595	 4.01870513498431E-02 
596	 4.00145196762489E-02 
597	 3.99434448423136E-02 
598	 3.97974026054773E-02 
599	 3.96794115764583E-02 
600	 3.95839533622564E-02 
601	 3.93931480096234E-02 
602	 3.92414987258409E-02 
603	 3.90968292041023E-02 
604	 3.89201989087072E-02 
605	 3.87493289702479E-02 
606	 3.85275053325915E-02 
607	 0.038249122969127 
608	 3.79440643998135E-02 
609	 3.76777365432882E-02 
610	 3.74081398271733E-02 
611	 3.71163317235437E-02 
612	 3.68293346895003E-02 
613	 3.65307748199904E-02 
614	 3.62242677673944E-02 
615	 3.59101393442538E-02 
616	 3.55425277935967E-02 
617	 3.52231678636112E-02 
618	 3.49757240129681E-02 
619	 3.47621436959609E-02 
620	 3.46252685753167E-02 
621	 3.44967065218329E-02 
622	 3.43322241618218E-02 
623	 3.41502455959435E-02 
624	 3.40874581957127E-02 
625	 3.40710039142937E-02 
626	 3.39913208516544E-02 
627	 3.39930623770166E-02 
628	 0.034042485257257 
629	 3.40790077789465E-02 
630	 3.40343609768748E-02 
631	 3.41026213712752E-02 
632	 3.40795727614153E-02 
633	 3.38601031810342E-02 
634	 3.37885383022435E-02 
635	 3.36842022025829E-02 
636	 3.34908225927053E-02 
637	 0.033219201490086 
638	 3.29608486324057E-02 
639	 3.26032744283316E-02 
640	 3.21426766705966E-02 
641	 3.17431020176408E-02 
642	 3.12968747119107E-02 
643	 3.08600382169176E-02 
644	 3.04789242423925E-02 
645	 3.00619511873396E-02 
646	 2.96072451421507E-02 
647	 2.92060784420712E-02 
648	 2.89764553899456E-02 
649	 0.028707598351283 
650	 2.84417728838766E-02 
651	 0.028242398023044 
652	 2.81423767376517E-02 
653	 2.80847036964841E-02 
654	 2.79621317499107E-02 
655	 2.77212261331993E-02 
656	 2.76389800355081E-02 
657	 2.74775688913451E-02 
658	 2.72033084429155E-02 
659	 2.69303111925401E-02 
660	 0.026709431246969 
661	 2.64255518446088E-02 
662	 2.60598398064397E-02 
663	 2.58073794311631E-02 
664	 2.55263777181687E-02 
665	 2.52170611502327E-02 
666	 0.024927878174297 
667	 2.47067849230987E-02 
668	 2.44445730748102E-02 
669	 2.42293535733277E-02 
670	 2.42979062711108E-02 
671	 2.42177319112917E-02 
672	 2.41613844404982E-02 
673	 2.42399457057625E-02 
674	 2.41340225629045E-02 
675	 2.42301742837092E-02 
676	 0.024418777975313 
677	 2.44584873769426E-02 
678	 2.45709122412912E-02 
679	 0.024751880126362 
680	 0.025010090703502 
681	 2.53761720254286E-02 
682	 2.57780609607357E-02 
683	 2.63252516376632E-02 
684	 2.70614245747263E-02 
685	 2.77554076638573E-02 
686	 2.85701946441519E-02 
687	 2.97434719557181E-02 
688	 3.13376048660477E-02 
689	 3.26680882195035E-02 
690	 3.41419577000158E-02 
691	 3.60123585082123E-02 
692	 3.81516682141551E-02 
693	 4.07118719124016E-02 
694	 4.35239305208063E-02 
695	 4.64685104537266E-02 
696	 4.98392682973654E-02 
697	 5.33594294401855E-02 
698	 5.69915759032634E-02 
699	 6.07859829650097E-02 
700	 6.47396823337092E-02 
701	 6.88178216639713E-02 
702	 7.29878733107327E-02 
703	 0.07721296627124 
704	 8.14697266931773E-02 
705	 0.085664410591283 
706	 8.98262717628376E-02 
707	 9.42138879008498E-02 
708	 0.098653305343881 
709	 0.103070379030691 
710	 0.107431489299977 
711	 0.111881441199558 
712	 0.116383670341923 
713	 0.120941052596456 
714	 0.125620644183591 
715	 0.130361334020153 
716	 0.135220252126431 
717	 0.140350348162966 
718	 0.145615083683409 
719	 0.150797773757259 
720	 0.155581793070344 
721	 0.159878434709321 
722	 0.164030582258184 
723	 0.168520510535776 
724	 0.173447916510423 
725	 0.177925752255612 
726	 0.18230668932634 
727	 0.186477548521346 
728	 0.190454903764351 
729	 0.194389751986666 
730	 0.198100426063653 
731	 0.201557117642128 
732	 0.204799708340789 
733	 0.207698985178901 
734	 0.210562613785691 
735	 0.213490533797754 
736	 0.216295516863181 
737	 0.21887157638173 
738	 0.22121009752392 
739	 0.223420930557503 
740	 0.225713640818765 
741	 0.227774729666471 
742	 0.229583640083712 
743	 0.231232823822037 
744	 0.232881347740695 
745	 0.234431348920316 
746	 0.235843053588244 
747	 0.23712200010915 
748	 0.238181273320274 
749	 0.239151474460444 
750	 0.240114678424096 
751	 0.241022692942331 
752	 0.241786203071182 
753	 0.242495106761642 
754	 0.24322402745731 
755	 0.243787204665751 
756	 0.244359640741053 
757	 0.244977650065048 
758	 0.245624318221013 
759	 0.246522106432304 
760	 0.247676329385927 
761	 0.248769543081908 
762	 0.248908872078845 
763	 0.248688249140205 
764	 0.248519627868916 
765	 0.248498380250562 
766	 0.248375934239035 
767	 0.248387012643154 
768	 0.248526072265605 
769	 0.248715765023987 
770	 0.24883852672684 
771	 0.24904147092102 
772	 0.249318601557443 
773	 0.249529658060904 
774	 0.24966703301391 
775	 0.24980374234941 
776	 0.249985549784202 
777	 0.250189408511176 
778	 0.250377370184503 
779	 0.25055732300833 
780	 0.250722056894558 
781	 0.250749627872868 
782	 0.25088602583707 
783	 0.251149800827451 
784	 0.251422730892946 
785	 0.251623280611978 
786	 0.251840263497783 
787	 0.252098515850536 
788	 0.25234245661198 
789	 0.252727336983875 
790	 0.253012236498274 
791	 0.253082929606659 
792	 0.253233290307818 
793	 0.253454260225259 
794	 0.253723117224655 
795	 0.253976394610614 
796	 0.254059425260111 
797	 0.254197218966422 
798	 0.254463991971429 
799	 0.254788659863892 
800	 0.254810440656813 
801	 0.254980031101081 
802	 0.255327723735623 
803	 0.255355770695784 
804	 0.25562303703181 
805	 0.255895165765492 
806	 0.255986914743794 
807	 0.256126282995609 
808	 0.256321175767145 
809	 0.256600929330168 
810	 0.25697603143592 
811	 0.257406917615682 
812	 0.257852958620806 
813	 0.258331962551616 
814	 0.258856295948835 
815	 0.259116400475063 
816	 0.259554589628842 
817	 0.260105791246295 
818	 0.26013767696463 
819	 0.259918389495812 
820	 0.259881525795829 
821	 0.260174995438783 
822	 0.260448742684125 
823	 0.260643350537977 
824	 0.260716973101933 
825	 0.260686489687908 
826	 0.260646830369591 
827	 0.260739227132485 
828	 0.260994607776299 
829	 0.26130998162912 
830	 0.261235667756116 
831	 0.261293921385095 
832	 0.261484718951882 
833	 0.261441259394867 
834	 0.261576338421869 
835	 0.261562878973724 
836	 0.261462357715197 
837	 0.26183135267779 
838	 0.261825737619219 
839	 0.261891032551708 
840	 0.262261429225285 
841	 0.262261286190308 
842	 0.262312341481795 
843	 0.262477400281951 
844	 0.26269334504596 
845	 0.262842082188314 
846	 0.263002188614809 
847	 0.263158551019582 
848	 0.263267713492226 
849	 0.263353854509389 
850	 0.263562871565977 
851	 0.263861173102161 
852	 0.264096497895878 
853	 0.264416331064851 
854	 0.264546765384521 
855	 0.264560525726939 
856	 0.264904126882703 
857	 0.265030097538543 
858	 0.265064680105014 
859	 0.265195439183254 
860	 0.265519275940965 
861	 0.265627657537459 
862	 0.265700873877994 
863	 0.265890030930408 
864	 0.265848948702056 
865	 0.266024347836072 
866	 0.266241789647436 
867	 0.266280790240533 
868	 0.266655582933627 
869	 0.266831819584114 
870	 0.266913773122461 
871	 0.26719569812772 
872	 0.267194462131509 
873	 0.267370579668966 
874	 0.26756783654888 
875	 0.267350337067319 
876	 0.267892378072981 
877	 0.268328859380849 
878	 0.268318274626167 
879	 0.268276321344061 
880	 0.268591136793111 
881	 0.268738090195231 
882	 0.268614523458473 
883	 0.268840382243186 
884	 0.268797178685763 
885	 0.268931490228909 
886	 0.269351971943185 
887	 0.269194587802937 
888	 0.269585335027354 
889	 0.26986221988073 
890	 0.269565907808308 
891	 0.269906630088824 
892	 0.270374823803422 
893	 0.270769947989248 
894	 0.271045224260966 
895	 0.27140038187347 
896	 0.271632952003779 
897	 0.272036475191043 
898	 0.272813809235813 
899	 0.272786919152412 
900	 0.272789154874244 
901	 0.272851342216495 
902	 0.272652356092395 
903	 0.272604895579516 
904	 0.272574896001983 
905	 0.272801049057562 
906	 0.273514663065682 
907	 0.273266197737501 
908	 0.273390539010215 
909	 0.273893949922295 
910	 0.273692131507231 
911	 0.274143901850009 
912	 0.274581739092174 
913	 0.274572424093552 
914	 0.274243167094572 
915	 0.274555045550716 
916	 0.274342684096689 
917	 0.273732623860736 
918	 0.274368342812023 
919	 0.274674612119913 
920	 0.274403783720463 
921	 0.274065950340314 
922	 0.27469466427443 
923	 0.274726608799524 
924	 0.27463531472142 
925	 0.274806198265297 
926	 0.274904808892719 
927	 0.274846410007913 
928	 0.275331220130069 
929	 0.276276882866422 
930	 0.275806428884478 
931	 0.276486832163263 
932	 0.277837318378696 
933	 0.278655801443759 
934	 0.278422918982554 
935	 0.278123612223467 
936	 0.27840285058408 
937	 0.278911332622802 
938	 0.277904661919452 
939	 0.277773535783994 
940	 0.277137232129238 
941	 0.275365877722305 
942	 0.274714359622202 
943	 0.275406662879249 
944	 0.27533421704579 
945	 0.273667301464905 
946	 0.273649818419857 
947	 0.273690410164385 
948	 0.273536386435002 
949	 0.273006793523359 
950	 0.27141693551118 
951	 0.270698846151654 
952	 0.2703495256359 
953	 0.269938688793662 
954	 0.270528120240029 
955	 0.269194743288462 
956	 0.267514081829676 
957	 0.266947134393944 
958	 0.2664211306512 
959	 0.265257126776388 
960	 0.264401455697402 
961	 0.264409590867953 
962	 0.264390516234208 
963	 0.263700691271666 
964	 0.262651658159082 
965	 0.261607595961031 
966	 0.260576300186201 
967	 0.261088667923852 
968	 0.2612257934555 
969	 0.260260360458709 
970	 0.260323499508317 
971	 0.260174897224697 
972	 0.259944790377248 
973	 0.2599781394945 
974	 0.26048654162388 
975	 0.260714425625704 
976	 0.260459687072734 
977	 0.259644777837551 
978	 0.2584066431419 
979	 0.259697914574041 
980	 0.259877294758752 
981	 0.258661786712447 
982	 0.259836841629602 
983	 0.258752747358009 
984	 0.258493410354444 
985	 0.259476088058783 
986	 0.259161157151746 
987	 0.259391303789569 
988	 0.259838390085451 
989	 0.260136028181806 
990	 0.260197987010693 
991	 0.260842126450177 
992	 0.260379234925158 
993	 0.260076307588405 
994	 0.261830278057915 
995	 0.260327510850393 
996	 0.260698339405602 
997	 0.262230450851032 
998	 0.261998887852831 
999	 0.262267593761188 
1000	 0.261706036850698 
1001	 0.265096725484617 
1002	 0.265442019267908 
1003	 0.265715433910252 
1004	 0.265797969371522 
1005	 0.266092353468747 
1006	 0.266393032080461 
1007	 0.266821140589188 
1008	 0.267431955247703 
1009	 0.267884489749228 
1010	 0.26833456832883 
1011	 0.268855636566542 
1012	 0.269124930319713 
1013	 0.269575615842249 
1014	 0.270046717763613 
1015	 0.270311138481242 
1016	 0.270676960524891 
1017	 0.271090543922049 
1018	 0.271529893723241 
1019	 0.272054881964129 
1020	 0.272475457848778 
1021	 0.272917650768643 
1022	 0.273308642122564 
1023	 0.273580700087464 
1024	 0.273956088724028 
1025	 0.274356855868203 
1026	 0.274672033068544 
1027	 0.275143842810491 
1028	 0.275563712909941 
1029	 0.275991612051077 
1030	 0.276362618212661 
1031	 0.276564570323522 
1032	 0.276947580359387 
1033	 0.277311611375545 
1034	 0.277665356595457 
1035	 0.278057959035117 
1036	 0.27853079635986 
1037	 0.278923342683365 
1038	 0.279302230448482 
1039	 0.279696943750151 
1040	 0.280067273806783 
1041	 0.280293604003197 
1042	 0.280473036963132 
1043	 0.280779292612154 
1044	 0.281094692966122 
1045	 0.281459354574316 
1046	 0.281749370505539 
1047	 0.28205371911896 
1048	 0.282392940306983 
1049	 0.282498112029248 
1050	 0.282721986583305 
1051	 0.283023996093726 
1052	 0.283320039944341 
1053	 0.283480197820046 
1054	 0.283793595854037 
1055	 0.284076919660832 
1056	 0.284334176385745 
1057	 0.284651320089792 
1058	 0.284912652644237 
1059	 0.285005346254353 
1060	 0.285109428055655 
1061	 0.285258384650483 
1062	 0.285286730997575 
1063	 0.285512017684685 
1064	 0.285812735778235 
1065	 0.28599666170659 
1066	 0.286070247305171 
1067	 0.286332746297359 
1068	 0.286508646326306 
1069	 0.286529124116629 
1070	 0.28671227959923 
1071	 0.286810178437625 
1072	 0.286863626088132 
1073	 0.287018880490957 
1074	 0.287152935017205 
1075	 0.28719973698383 
1076	 0.287217899050238 
1077	 0.287279871950781 
1078	 0.287238133976456 
1079	 0.287231194811947 
1080	 0.287373559598752 
1081	 0.287479629661483 
1082	 0.287595817882874 
1083	 0.287670085658778 
1084	 0.287752963422648 
1085	 0.287777969925392 
1086	 0.287686091719568 
1087	 0.287639544452052 
1088	 0.287656001459873 
1089	 0.287718196674168 
1090	 0.287847715499447 
1091	 0.287939322274574 
1092	 0.287972005573607 
1093	 0.287967710793003 
1094	 0.28800370949326 
1095	 0.288036143630452 
1096	 0.288086057171068 
1097	 0.288226169879547 
1098	 0.288325791097406 
1099	 0.288410989397332 
1100	 0.288423813015623 
1101	 0.288476447114061 
1102	 0.288396731020454 
1103	 0.288347918042596 
1104	 0.288491970689815 
1105	 0.288698417919129 
1106	 0.288928011107066 
1107	 0.289170006347719 
1108	 0.289452340860893 
1109	 0.289784773538501 
1110	 0.290021226844882 
1111	 0.29028767775734 
1112	 0.29052324014133 
1113	 0.29084093813502 
1114	 0.291239159901313 
1115	 0.291682631214002 
1116	 0.292220146168982 
1117	 0.292766793814269 
1118	 0.293385853208967 
1119	 0.293902858711683 
1120	 0.294404700861099 
1121	 0.294852530357403 
1122	 0.295064786339021 
1123	 0.294970107607942 
1124	 0.294677947244998 
1125	 0.294261698420516 
1126	 0.293561705925264 
1127	 0.29262317876267 
1128	 0.291494928033553 
1129	 0.29017736183549 
1130	 0.288814803147207 
1131	 0.287305984552061 
1132	 0.285893092645831 
1133	 0.284606101548303 
1134	 0.2829675704335 
1135	 0.281348155171118 
1136	 0.279864341280211 
1137	 0.278235843964179 
1138	 0.276675737317502 
1139	 0.275259819431404 
1140	 0.273701467626583 
1141	 0.272194515315356 
1142	 0.270855226695759 
1143	 0.269343934543456 
1144	 0.267818526766928 
1145	 0.266135909627399 
1146	 0.264275320706174 
1147	 0.262509655323925 
1148	 0.260770131997336 
1149	 0.259038609823711 
1150	 0.257435183408973 
1151	 0.255793525753935 
1152	 0.254138853725034 
1153	 0.252624410586281 
1154	 0.251218987009929 
1155	 0.249897057718679 
1156	 0.248662652333262 
1157	 0.24759823440083 
1158	 0.24666963740697 
1159	 0.245755830533453 
1160	 0.244959601997479 
1161	 0.244266393979444 
1162	 0.243624314106751 
1163	 0.242993484579446 
1164	 0.242499531951366 
1165	 0.242139371078521 
1166	 0.241716657042805 
1167	 0.241299813738867 
1168	 0.240942890742878 
1169	 0.240591444274761 
1170	 0.240248834831564 
1171	 0.239946190299634 
1172	 0.239719363469568 
1173	 0.239432164687289 
1174	 0.239141463257793 
1175	 0.238986164851994 
1176	 0.238847963518238 
1177	 0.238733917530822 
1178	 0.238743064666474 
1179	 0.238584769217165 
1180	 0.238369742396749 
1181	 0.238155509553733 
1182	 0.237820326340753 
1183	 0.237596475019545 
1184	 0.237405153631992 
1185	 0.237243142373717 
1186	 0.237176838061444 
1187	 0.2370358997572 
1188	 0.236905176726442 
1189	 0.236728399963602 
1190	 0.236513237191813 
1191	 0.236288209724819 
1192	 0.236128748619285 
1193	 0.236064639124547 
1194	 0.235931132485189 
1195	 0.235770755370671 
1196	 0.235716221407999 
1197	 0.235642780703484 
1198	 0.23567074240401 
1199	 0.235868284934189 
1200	 0.235972425518055 
1201	 0.236080399913095 
1202	 0.236175954727929 
1203	 0.236216900197649 
1204	 0.236331887542766 
1205	 0.236462722729618 
1206	 0.236628947964526 
1207	 0.236866739932871 
1208	 0.237088287152773 
1209	 0.23733412382923 
1210	 0.237555313142792 
1211	 0.237785902193658 
1212	 0.237989552415786 
1213	 0.238224374857444 
1214	 0.238462544912739 
1215	 0.238717698373244 
1216	 0.23900677680618 
1217	 0.239264921490998 
1218	 0.239475851227469 
1219	 0.239779899781769 
1220	 0.240159822768196 
1221	 0.240458113378551 
1222	 0.24076558357282 
1223	 0.241085687214213 
1224	 0.241340478300949 
1225	 0.241626173379806 
1226	 0.241991499769433 
1227	 0.242311748840368 
1228	 0.242551192559301 
1229	 0.242871103329173 
1230	 0.243226777295968 
1231	 0.243541914936534 
1232	 0.243889043413225 
1233	 0.244294613949429 
1234	 0.244595937796748 
1235	 0.244858769862225 
1236	 0.245126350206875 
1237	 0.245284330641614 
1238	 0.245603110313015 
1239	 0.246058408355202 
1240	 0.246376490196754 
1241	 0.24670243118549 
1242	 0.247029217949773 
1243	 0.247283683500805 
1244	 0.247538616725674 
1245	 0.247846393980959 
1246	 0.248105293561555 
1247	 0.248254747368272 
1248	 0.248475437049083 
1249	 0.248754512443298 
1250	 0.249004189641349 
1251	 0.24928023118959 
1252	 0.249520563588532 
1253	 0.249747521224054 
1254	 0.249969467379032 
1255	 0.250131345878678 
1256	 0.250221477311358 
1257	 0.250398869961815 
1258	 0.250545286111226 
1259	 0.250761110493477 
1260	 0.251129636330072 
1261	 0.251338867985448 
1262	 0.251465985160232 
1263	 0.251640378705779 
1264	 0.251767978093044 
1265	 0.251907907931591 
1266	 0.252104501234879 
1267	 0.252246496066142 
1268	 0.252282923309037 
1269	 0.252399823498534 
1270	 0.252601609661899 
1271	 0.252718863606698 
1272	 0.252838151377721 
1273	 0.252947254635096 
1274	 0.252937904589672 
1275	 0.252807933219369 
1276	 0.252726597734754 
1277	 0.252590642364071 
1278	 0.252501732407708 
1279	 0.252434186540842 
1280	 0.252342179426431 
1281	 0.252256500966026 
1282	 0.252148846591744 
1283	 0.25205830441394 
1284	 0.251884412653914 
1285	 0.251676170407321 
1286	 0.251431315677834 
1287	 0.251071187987853 
1288	 0.250786044036902 
1289	 0.250520464271422 
1290	 0.250245696615199 
1291	 0.250067688217738 
1292	 0.249752154535609 
1293	 0.249330611811796 
1294	 0.248924254377385 
1295	 0.248466001084692 
1296	 0.24794124425923 
1297	 0.247470185961681 
1298	 0.247007726337068 
1299	 0.246587880388785 
1300	 0.246247682673477 
1301	 0.245711985976347 
1302	 0.245103939506918 
1303	 0.244548285294048 
1304	 0.243895525727865 
1305	 0.243235273715448 
1306	 0.242646808729735 
1307	 0.241990849040734 
1308	 0.241205875612464 
1309	 0.240461090549023 
1310	 0.239797148451776 
1311	 0.239025000071949 
1312	 0.238160252847141 
1313	 0.23729143680249 
1314	 0.236382755124222 
1315	 0.235465230995948 
1316	 0.234511813672613 
1317	 0.233567373818365 
1318	 0.232615011913258 
1319	 0.231653650305238 
1320	 0.230713011057396 
1321	 0.229710762047738 
1322	 0.228683822440725 
1323	 0.22757835409323 
1324	 0.226564567901221 
1325	 0.225505269132185 
1326	 0.224535781473091 
1327	 0.223707026694079 
1328	 0.22269163201519 
1329	 0.221683463653927 
1330	 0.220500661752331 
1331	 0.219072015692853 
1332	 0.217801277630942 
1333	 0.216463251631666 
1334	 0.215255927469678 
1335	 0.214206482283375 
1336	 0.213123802456574 
1337	 0.211970051192557 
1338	 0.210986010118289 
1339	 0.209981907170931 
1340	 0.209159448911392 
1341	 0.208478638332119 
1342	 0.207910814650962 
1343	 0.207488870378386 
1344	 0.207161006222113 
1345	 0.207121337718895 
1346	 0.207085928322433 
1347	 0.207063254490029 
1348	 0.207314246568663 
1349	 0.207484574948633 
1350	 0.20762352792221 
1351	 0.208107187448736 
1352	 0.209311028592899 
1353	 0.210083982905545 
1354	 0.210551242405539 
1355	 0.212065772649584 
1356	 0.213783978518587 
1357	 0.216173734928903 
1358	 0.221075864580222 
1359	 0.227626461743769 
1360	 0.22990189621105 
1361	 0.235157215773088 
1362	 0.241201184471453 
1363	 0.245586950989428 
1364	 0.233936570064882 
1365	 0.227502055053946 
1366	 0.222987920943856 
1367	 0.217127356446744 
1368	 0.206834660554178 
1369	 0.208066577920173 
1370	 0.219703886445775 
1371	 0.218618877174132 
1372	 0.216794161115859 
1373	 0.215241852578186 
1374	 0.206194352525809 
1375	 0.201929485813539 
1376	 0.199795749550131 
1377	 0.198834078273493 
1378	 0.198246758885754 
1379	 0.199620879396945 
1380	 0.194244238448469 
1381	 0.18807404670545 
1382	 0.179383062106439 
1383	 0.163427690256032 
1384	 0.156588666987296 
1385	 0.152714210653476 
1386	 0.150761224083952 
1387	 0.154183497160771 
1388	 0.152281377058408 
1389	 0.152058728619476 
1390	 0.146870479218945 
1391	 0.136597299928353 
1392	 0.130587886665865 
1393	 0.123965521516708 
1394	 0.118595065190737 
1395	 0.114768814027944 
1396	 0.111744141969186 
1397	 0.109631754512361 
1398	 0.106342331784767 
1399	 0.102569460350896 
1400	 0.100481886431069 
1401	 9.88466862391936E-02 
1402	 9.66758739071135E-02 
1403	 9.67295349171529E-02 
1404	 9.47165963214062E-02 
1405	 0.091041005656473 
1406	 8.77422257978639E-02 
1407	 8.41425807791145E-02 
1408	 8.10470567158541E-02 
1409	 7.87255022494663E-02 
1410	 7.68118169929692E-02 
1411	 7.59796389973824E-02 
1412	 7.64350556934232E-02 
1413	 7.52542783379987E-02 
1414	 7.42404336819182E-02 
1415	 7.26443283912329E-02 
1416	 0.069914963456759 
1417	 6.86513878257984E-02 
1418	 6.77977619283076E-02 
1419	 6.71207889278829E-02 
1420	 6.71752900061844E-02 
1421	 6.64062696772686E-02 
1422	 6.53414606984769E-02 
1423	 6.44726199207431E-02 
1424	 0.063168404216537 
1425	 6.24581900195795E-02 
1426	 0.062050131265191 
1427	 6.17144298469382E-02 
1428	 6.15784958718341E-02 
1429	 6.14157954173251E-02 
1430	 6.16224599420697E-02 
1431	 0.061230952172812 
1432	 6.03293606650917E-02 
1433	 5.98476118592985E-02 
1434	 5.89664228201118E-02 
1435	 5.86410474758088E-02 
1436	 5.91381896860502E-02 
1437	 0.059180914527124 
1438	 5.93945992580754E-02 
1439	 5.92402418615635E-02 
1440	 5.85496418136392E-02 
1441	 5.81209406174515E-02 
1442	 5.76102630747629E-02 
1443	 5.72279666015657E-02 
1444	 0.056981490046085 
1445	 5.70055880141375E-02 
1446	 5.69345434234665E-02 
1447	 5.68372477459509E-02 
1448	 0.056739803469513 
1449	 5.66282451555591E-02 
1450	 5.65736572110946E-02 
1451	 5.65844303438042E-02 
1452	 5.64376798412473E-02 
1453	 5.62271935001477E-02 
1454	 5.61245931725299E-02 
1455	 0.05595751472493 
1456	 5.58554811019992E-02 
1457	 5.58452416412823E-02 
1458	 0.055847370902231 
1459	 5.57773917311691E-02 
1460	 5.58630611456307E-02 
1461	 5.61324065561328E-02 
1462	 0.056295608587712 
1463	 5.64479027032769E-02 
1464	 5.66739966154107E-02 
1465	 5.69768250588683E-02 
1466	 5.71726411645021E-02 
1467	 5.73253772037145E-02 
1468	 5.75858169525496E-02 
1469	 5.77782810335888E-02 
1470	 0.05804123436102 
1471	 5.84751526766175E-02 
1472	 0.058795699136589 
1473	 5.90140001077511E-02 
1474	 5.92774324845788E-02 
1475	 5.95544938769727E-02 
1476	 5.98030087391944E-02 
1477	 5.99656092994102E-02 
1478	 6.02396878815941E-02 
1479	 0.06058571624786 
1480	 6.08760161054505E-02 
1481	 6.11990910385354E-02 
1482	 6.15111961974882E-02 
1483	 6.16979145249263E-02 
1484	 6.20122677882351E-02 
1485	 6.24398769969056E-02 
1486	 6.28264971776595E-02 
1487	 6.32542017893284E-02 
1488	 0.063654827390645 
1489	 6.39288580089861E-02 
1490	 0.06420670140245 
1491	 0.064520698918527 
1492	 6.47929287167622E-02 
1493	 6.51133290967438E-02 
1494	 6.54345494356575E-02 
1495	 6.58006693705586E-02 
1496	 6.61524802718846E-02 
1497	 6.65992913988034E-02 
1498	 6.71720507805809E-02 
1499	 6.75949446001776E-02 
1500	 6.79857495501093E-02 
1501	 6.84397855033446E-02 
1502	 6.88414551779321E-02 
1503	 6.93219514308165E-02 
1504	 6.99099174114741E-02 
1505	 7.04216861171646E-02 
1506	 7.09231244023818E-02 
1507	 7.13915676169719E-02 
1508	 7.18195290371049E-02 
1509	 7.22949431730251E-02 
1510	 7.27688093973575E-02 
1511	 7.32290447393507E-02 
1512	 7.36925287646188E-02 
1513	 7.42132928956975E-02 
1514	 7.47291709815126E-02 
1515	 7.52720083717505E-02 
1516	 7.59694491023678E-02 
1517	 0.076465471686719 
1518	 7.68125321411056E-02 
1519	 7.72804228394678E-02 
1520	 7.76608665039048E-02 
1521	 7.81904698295493E-02 
1522	 7.89305721853146E-02 
1523	 7.95047069116689E-02 
1524	 8.00577727063746E-02 
1525	 8.05918086675362E-02 
1526	 8.10424664148428E-02 
1527	 0.081528035774369 
1528	 0.082014733481032 
1529	 8.25368293916385E-02 
1530	 8.30759589795894E-02 
1531	 8.36067102192703E-02 
1532	 8.41580146096483E-02 
1533	 8.47290215357127E-02 
1534	 8.53334972066073E-02 
1535	 8.58769879771551E-02 
1536	 8.63904031390284E-02 
1537	 8.69435492430358E-02 
1538	 8.74641560733828E-02 
1539	 8.79979076302118E-02 
1540	 8.86436134643566E-02 
1541	 8.91768950907612E-02 
1542	 8.95554014775912E-02 
1543	 9.00591470941622E-02 
1544	 9.06061722495538E-02 
1545	 9.11266787150317E-02 
1546	 0.091735644377086 
1547	 0.092285980709688 
1548	 9.27591457321442E-02 
1549	 9.32437245421197E-02 
1550	 9.36971119523184E-02 
1551	 0.09420331239613 
1552	 9.47465754524232E-02 
1553	 9.52664074638512E-02 
1554	 9.58017417372089E-02 
1555	 0.096355954245712 
1556	 9.69226168572288E-02 
1557	 9.74511339269378E-02 
1558	 9.80010859805763E-02 
1559	 9.85214926142014E-02 
1560	 9.89514823816797E-02 
1561	 9.94299817381643E-02 
1562	 9.99157874771676E-02 
1563	 0.100437453820898 
1564	 0.101032938552918 
1565	 0.10160229056656 
1566	 0.102141016987589 
1567	 0.102654507527072 
1568	 0.103062465249914 
1569	 0.103315128539413 
1570	 0.10378777200741 
1571	 0.104284311554501 
1572	 0.104800074357958 
1573	 0.10544860060278 
1574	 0.105988593714278 
1575	 0.10645079066715 
1576	 0.106958319158276 
1577	 0.107509633355675 
1578	 0.10795101544235 
1579	 0.108300259682608 
1580	 0.108767430280689 
1581	 0.109233200146491 
1582	 0.109692284031958 
1583	 0.11022873282531 
1584	 0.110684444880482 
1585	 0.111079405980573 
1586	 0.111469457040861 
1587	 0.111828202339814 
1588	 0.112277768528346 
1589	 0.112751120322458 
1590	 0.113165489533962 
1591	 0.113598328709712 
1592	 0.114094277202458 
1593	 0.114575481003313 
1594	 0.115015427766882 
1595	 0.115568348236404 
1596	 0.115974598268621 
1597	 0.116176702522567 
1598	 0.116584085957104 
1599	 0.117098633722101 
1600	 0.117503737910241 
1601	 0.117911494790287 
1602	 0.118337901152351 
1603	 0.118676651433835 
1604	 0.119150974746393 
1605	 0.119775634652212 
1606	 0.120233476080067 
1607	 0.120680722935153 
1608	 0.121056709204418 
1609	 0.121274773798312 
1610	 0.12166147701808 
1611	 0.122097715263715 
1612	 0.122512877370767 
1613	 0.123036566884781 
1614	 0.123385772265811 
1615	 0.123600492055117 
1616	 0.123942110591838 
1617	 0.124244808067318 
1618	 0.124619084736338 
1619	 0.12513580571304 
1620	 0.125468646361014 
1621	 0.125717059396471 
1622	 0.126030353134009 
1623	 0.126326615805311 
1624	 0.12657478122101 
1625	 0.126808050220683 
1626	 0.127089532928537 
1627	 0.127306602232853 
1628	 0.127602020656156 
1629	 0.128018165352893 
1630	 0.128369824468483 
1631	 0.128725917950143 
1632	 0.12899344803798 
1633	 0.12922886207671 
1634	 0.129493302135666 
1635	 0.129644690541363 
1636	 0.129955703664623 
1637	 0.130429866239225 
1638	 0.13071044203095 
1639	 0.130956772599611 
1640	 0.131207699822819 
1641	 0.131364309198757 
1642	 0.131561610410543 
1643	 0.1317842752692 
1644	 0.132034359119912 
1645	 0.132297392030094 
1646	 0.132484917732649 
1647	 0.132693145033243 
1648	 0.132846553561652 
1649	 0.132892613459115 
1650	 0.132998557483048 
1651	 0.133145076763956 
1652	 0.133213358737417 
1653	 0.133203465540947 
1654	 0.133350567558338 
1655	 0.133536130491094 
1656	 0.133721491179993 
1657	 0.134016642114268 
1658	 0.134249458786686 
1659	 0.134352587195215 
1660	 0.134513078634156 
1661	 0.134542658465371 
1662	 0.134457865323798 
1663	 0.13455762350291 
1664	 0.134562523225185 
1665	 0.134517627666745 
1666	 0.134528635035107 
1667	 0.13443113253345 
1668	 0.134424161553004 
1669	 0.134495982695919 
1670	 0.134465267540031 
1671	 0.134458947123282 
1672	 0.134398872142067 
1673	 0.134347909161603 
1674	 0.134480945893019 
1675	 0.134484483891142 
1676	 0.134455666300698 
1677	 0.134392567873133 
1678	 0.134153140370151 
1679	 0.134092104825657 
1680	 0.134043458619586 
1681	 0.134025932501652 
1682	 0.134054418122778 
1683	 0.133842847288666 
1684	 0.133605683903852 
1685	 0.133365228922933 
1686	 0.13311293993266 
1687	 0.132900768013166 
1688	 0.132719627464555 
1689	 0.1325564339132 
1690	 0.132293170771604 
1691	 0.132101045230871 
1692	 0.13197603342564 
1693	 0.131816823411894 
1694	 0.131696364612264 
1695	 0.131504953143492 
1696	 0.13122905613563 
1697	 0.131004093539636 
1698	 0.130773815610741 
1699	 0.130536429212615 
1700	 0.130379023356923 
1701	 0.130127637859262 
1702	 0.12976380637852 
1703	 0.129459967008952 
1704	 0.1291373920465 
1705	 0.128834770205401 
1706	 0.128526042179069 
1707	 0.128284586012597 
1708	 0.128106794960828 
1709	 0.127875888242177 
1710	 0.127758514364859 
1711	 0.127519955151382 
1712	 0.127122879918231 
1713	 0.126849113817643 
1714	 0.126523103880122 
1715	 0.126251819880767 
1716	 0.126183927443754 
1717	 0.125874723666767 
1718	 0.125369579354183 
1719	 0.125054655573506 
1720	 0.12476155364703 
1721	 0.124410396407918 
1722	 0.124155187395538 
1723	 0.123852688750773 
1724	 0.123316432018377 
1725	 0.123081364457594 
1726	 0.123125365177699 
1727	 0.12296235011271 
1728	 0.122807651380542 
1729	 0.122656485392818 
1730	 0.1224052937965 
1731	 0.122165885523547 
1732	 0.122013343252023 
1733	 0.121782250879179 
1734	 0.121623749325986 
1735	 0.121519148414103 
1736	 0.121336707801801 
1737	 0.121071009045057 
1738	 0.120766697028396 
1739	 0.120483927645252 
1740	 0.120231612331598 
1741	 0.119970747533279 
1742	 0.119669105335031 
1743	 0.119467275119155 
1744	 0.119215255782088 
1745	 0.118843643184742 
1746	 0.118511290102709 
1747	 0.118179230145312 
1748	 0.117823080532758 
1749	 0.117479685140568 
1750	 0.117125831596416 
1751	 0.116654947485776 
1752	 0.116300177705092 
1753	 0.116074486023551 
1754	 0.11586623388851 
1755	 0.115663946913828 
1756	 0.115293880706215 
1757	 0.115089611833854 
1758	 0.11479243058323 
1759	 0.114354716809319 
1760	 0.114105123454558 
1761	 0.113938051027835 
1762	 0.113658164256682 
1763	 0.113426374958752 
1764	 0.113191382875098 
1765	 0.112772402573349 
1766	 0.112609319455578 
1767	 0.112727513091371 
1768	 0.112734091512824 
1769	 0.112841164223825 
1770	 0.112748261602633 
1771	 0.112424759066989 
1772	 0.112211257577957 
1773	 0.111939348168418 
1774	 0.11177037878093 
1775	 0.111940081814456 
1776	 0.112230748166749 
1777	 0.112107522739643 
1778	 0.112118347349253 
1779	 0.112163107962022 
1780	 0.111740081382006 
1781	 0.111685730578806 
1782	 0.11170283488764 
1783	 0.111308098034206 
1784	 0.111225140191825 
1785	 0.11127489258223 
1786	 0.111368487165283 
1787	 0.111890277414067 
1788	 0.112773586082334 
1789	 0.113400876903078 
1790	 0.113416352562411 
1791	 0.11359842028321 
1792	 0.113997155344261 
1793	 0.114107545298838 
1794	 0.114571448235809 
1795	 0.115042117402175 
1796	 0.11510609516064 
1797	 0.11579217276431 
1798	 0.116975859493878 
1799	 0.117624652106556 
1800	 0.117257169646424 
1801	 0.115296694260566 
1802	 0.117912078176165 
1803	 0.119220277612743 
1804	 0.120052650290548 
1805	 0.120134297008178 
1806	 0.11798382512543 
1807	 0.117704311825286 
1808	 0.116513240307356 
1809	 0.117665978460749 
1810	 0.118839594739206 
1811	 0.122411624263626 
1812	 0.124818283314649 
1813	 0.127440460656894 
1814	 0.129837793230914 
1815	 0.133579496742868 
1816	 0.135483481488448 
1817	 0.134667626046068 
1818	 0.135092715474831 
1819	 0.135238353222359 
1820	 0.132851191720909 
1821	 0.133726088258947 
1822	 0.138456531918475 
1823	 0.140110597767827 
1824	 0.142314409696733 
1825	 0.143248509833521 
1826	 0.139759317492296 
1827	 0.138225162580219 
1828	 0.136751833774928 
1829	 0.134519812148964 
1830	 0.13358724393954 
1831	 0.135277783047943 
1832	 0.137257782114441 
1833	 0.143489475597625 
1834	 0.149861989536176 
1835	 0.156700909308007 
1836	 0.169168013440483 
1837	 0.192393720722362 
1838	 0.199568405718679 
1839	 0.197280532705911 
1840	 0.174481499342513 
1841	 0.183338624650338 
1842	 0.184921648107728 
1843	 0.194795602043491 
1844	 0.237865181838066 
1845	 0.252050104234267 
1846	 0.259167001340465 
1847	 0.256642892627972 
1848	 0.245616952460288 
1849	 0.212424721871594 
1850	 0.213170901691959 
1851	 0.221378685213032 
1852	 0.224909424105662 
1853	 0.25992823902909 
1854	 0.266146713325222 
1855	 0.260239769803332 
1856	 0.238899783133429 
1857	 0.190665209809596 
1858	 0.168891824599825 
1859	 0.170357720400449 
1860	 0.185812213093704 
1861	 0.169124605420367 
1862	 0.15380245526498 
1863	 0.153307267349645 
1864	 0.118792569952936 
1865	 0.117000941914437 
1866	 0.174518309570911 
1867	 0.218309811583307 
1868	 0.220036391838712 
1869	 0.183639322101575 
1870	 0.179838924987586 
1871	 0.158079437402504 
1872	 0.150492725502297 
1873	 0.193857714387562 
1874	 0.182092278800372 
1875	 0.126836056057292 
1876	 0.117264933313785 
1877	 0.121208960330304 
1878	 0.11298952795741 
1879	 0.118275410254539 
1880	 0.111605027607832 
1881	 0.108035105698346 
1882	 9.33293611663645E-02 
1883	 9.00349839488888E-02 
1884	 9.90853979933388E-02 
1885	 9.83071064336567E-02 
1886	 9.51689241790504E-02 
1887	 9.04214964911788E-02 
1888	 8.24065709735185E-02 
1889	 6.81964660215408E-02 
1890	 6.44757595260334E-02 
1891	 6.41307915176786E-02 
1892	 6.51217460936798E-02 
1893	 0.074509537915667 
1894	 7.86968043194136E-02 
1895	 8.08020521184696E-02 
1896	 8.25914474024559E-02 
1897	 7.92949368373953E-02 
1898	 8.76819974768397E-02 
1899	 9.00913250989009E-02 
1900	 9.83992569952182E-02 
1901	 0.104356914685111 
1902	 0.114350269424925 
1903	 0.106949662970926 
1904	 7.67648798942361E-02 
1905	 6.75896478917982E-02 
1906	 4.94500946419603E-02 
1907	 5.22257042367052E-02 
1908	 8.70600122380626E-02 
1909	 0.101560179691612 
1910	 0.107384977480136 
1911	 9.64727705128329E-02 
1912	 0.078357016470457 
1913	 4.91093446915955E-02 
1914	 3.65623391347646E-02 
1915	 1.83665466307734E-02 
1916	 1.76316155284177E-02 
1917	 0.024015102076999 
1918	 3.32828068641685E-02 
1919	 3.83858599028495E-02 
1920	 4.26101865388197E-02 
1921	 4.33957002676277E-02 
1922	 4.07453430325185E-02 
1923	 4.06413919249499E-02 
1924	 4.27855098373178E-02 
1925	 4.16426104594039E-02 
1926	 3.81787715586559E-02 
1927	 3.69395639346215E-02 
1928	 3.54166000502097E-02 
1929	 3.35999241538769E-02 
1930	 3.33009144276382E-02 
1931	 3.34258368903298E-02 
1932	 3.26660564687822E-02 
1933	 3.19302476281955E-02 
1934	 3.11633765869288E-02 
1935	 3.10828964110565E-02 
1936	 3.04323457687878E-02 
1937	 2.77106002656924E-02 
1938	 2.74642569343901E-02 
1939	 2.78852004000408E-02 
1940	 3.01795212950645E-02 
1941	 3.09110728625296E-02 
1942	 3.19882369194489E-02 
1943	 3.13229903878548E-02 
1944	 2.90233217006742E-02 
1945	 0.028493932340977 
1946	 2.85826412084564E-02 
1947	 2.85458378849636E-02 
1948	 2.90963188127867E-02 
1949	 2.96893458653093E-02 
1950	 3.05404173908116E-02 
1951	 3.07375210506235E-02 
1952	 3.00931677500453E-02 
1953	 2.94984943367424E-02 
1954	 2.76368440584018E-02 
1955	 2.74582763737599E-02 
1956	 2.95387314511365E-02 
1957	 3.03357624960445E-02 
1958	 3.13034091787339E-02 
1959	 3.30264866288878E-02 
1960	 3.33844833527827E-02 
1961	 3.25879745426772E-02 
1962	 3.31066834889198E-02 
1963	 3.33559246327832E-02 
1964	 3.24153325520629E-02 
1965	 3.19990722946363E-02 
1966	 3.16497201754486E-02 
1967	 3.13558381055607E-02 
1968	 3.17776761672299E-02 
1969	 0.031874355210938 
1970	 0.032212399093129 
1971	 3.21547332025985E-02 
1972	 3.19904479067179E-02 
1973	 3.12481026423908E-02 
1974	 3.10247167669698E-02 
1975	 3.12442187690193E-02 
1976	 3.13563119858223E-02 
1977	 3.19241903228769E-02 
1978	 3.19903197731322E-02 
1979	 3.20502036175677E-02 
1980	 3.22511585304253E-02 
1981	 3.19764046085124E-02 
1982	 3.20592240084825E-02 
1983	 3.23934711506192E-02 
1984	 3.25529314495656E-02 
1985	 3.27546185649772E-02 
1986	 3.34151269606737E-02 
1987	 3.37376421693408E-02 
1988	 0.034180538434803 
1989	 3.44378376589056E-02 
1990	 3.43073157600639E-02 
1991	 3.40669688035299E-02 
1992	 3.36827269946081E-02 
1993	 3.35812686082758E-02 
1994	 3.34814831339613E-02 
1995	 3.35571382902674E-02 
1996	 0.034001091347483 
1997	 3.46815550007367E-02 
1998	 3.48719043380492E-02 
1999	 3.50990092818064E-02 
2000	 3.57261949959998E-02 
2001	 3.60541957298844E-02 
2002	 3.60831743003184E-02 
2003	 3.63288275544606E-02 
2004	 3.65261473293225E-02 
2005	 0.035793888882021 
2006	 3.54403756624854E-02 
2007	 3.49930720861755E-02 
2008	 0.035697106585726 
2009	 3.60777396412611E-02 
2010	 3.68331120570661E-02 
2011	 3.84138558662032E-02 
2012	 3.93822973224219E-02 
2013	 3.94415674013795E-02 
2014	 3.92456340881441E-02 
2015	 3.90193451186129E-02 
2016	 3.83661111043907E-02 
2017	 3.82100229113258E-02 
2018	 3.85811249912319E-02 
2019	 0.038772252477907 
2020	 3.89853083357854E-02 
2021	 3.92332352120535E-02 
2022	 3.95689898406041E-02 
2023	 3.99254321752261E-02 
2024	 4.04205241165887E-02 
2025	 4.06147395161488E-02 
2026	 4.02047379746095E-02 
2027	 4.00646363763299E-02 
2028	 0.040158372583899 
2029	 4.02682121641358E-02 
2030	 4.04843039100176E-02 
2031	 4.02840739497976E-02 
2032	 0.040180342412597 
2033	 3.98333859503055E-02 
2034	 3.95639869287059E-02 
2035	 3.94669258182089E-02 
2036	 3.99688831351362E-02 
2037	 4.00932935064499E-02 
2038	 3.99443533357677E-02 
2039	 4.03491875769765E-02 
2040	 4.04160646705925E-02 
2041	 4.05862016052379E-02 
2042	 4.12428278848892E-02 
2043	 4.14471622785283E-02 
2044	 4.14091512231707E-02 
2045	 0.041474936083712 
2046	 4.14144575075403E-02 
2047	 4.14748105289313E-02 
2048	 4.18908001056921E-02 
2049	 4.25057299816107E-02 
2050	 4.32964373841808E-02 
2051	 4.33136833333617E-02 
2052	 4.28465593207622E-02 
2053	 4.25109532445838E-02 
2054	 4.22221773650149E-02 
2055	 4.25817817631788E-02 
2056	 4.25608854173768E-02 
2057	 4.22913285535145E-02 
2058	 4.23288579176267E-02 
2059	 4.24370041888438E-02 
2060	 4.23007901530291E-02 
2061	 4.30203712645106E-02 
2062	 4.37606041606958E-02 
2063	 4.41976100735842E-02 
2064	 4.47943902642535E-02 
2065	 4.47880328373688E-02 
2066	 0.044836336975514 
2067	 4.50359097603404E-02 
2068	 4.52063541868874E-02 
2069	 4.57693983098955E-02 
2070	 4.62703982332316E-02 
2071	 4.63859794627538E-02 
2072	 4.64538521825901E-02 
2073	 4.62135006584067E-02 
2074	 4.61148666941809E-02 
2075	 4.60861450927279E-02 
2076	 4.60785486205675E-02 
2077	 4.64484513477705E-02 
2078	 4.65422722388809E-02 
2079	 4.61057473388998E-02 
2080	 4.62978484672581E-02 
2081	 4.65533634023525E-02 
2082	 4.64287867187229E-02 
2083	 4.70933693046728E-02 
2084	 4.74973090434177E-02 
2085	 4.75850068391312E-02 
2086	 4.79983308642551E-02 
2087	 4.82355387717709E-02 
2088	 0.048312687432784 
2089	 4.87282599510638E-02 
2090	 4.89236303265704E-02 
2091	 4.87432096910274E-02 
2092	 4.88323093055887E-02 
2093	 0.048516498668681 
2094	 0.04819958856379 
2095	 4.83346042603632E-02 
2096	 4.84390868164002E-02 
2097	 4.88115281307629E-02 
2098	 4.92612215026464E-02 
2099	 4.91976724707444E-02 
2100	 4.91980867383044E-02 
2101	 0.04933043033857 
2102	 4.96068141911904E-02 
2103	 4.99625068737503E-02 
2104	 5.07973647594528E-02 
2105	 5.13470054112029E-02 
2106	 5.15546154133867E-02 
2107	 5.14731405148632E-02 
2108	 5.11247862855975E-02 
2109	 0.050849952623201 
2110	 5.09148985452431E-02 
2111	 5.13115211067251E-02 
2112	 5.16851492619809E-02 
2113	 5.22232443794421E-02 
2114	 0.05232896215267 
2115	 5.20406531390596E-02 
2116	 5.20700823950569E-02 
2117	 5.22878504509487E-02 
2118	 5.26556203262574E-02 
2119	 5.31012835225604E-02 
2120	 5.39456120052912E-02 
2121	 5.44117501371598E-02 
2122	 0.054396352540901 
2123	 5.40442997046815E-02 
2124	 5.38705790109903E-02 
2125	 5.39989017826358E-02 
2126	 5.38447720456474E-02 
2127	 0.054122724066426 
2128	 5.42259466838503E-02 
2129	 5.37531584589116E-02 
2130	 5.41703229040768E-02 
2131	 5.47527356487561E-02 
2132	 5.49809079236177E-02 
2133	 5.53440361482567E-02 
2134	 5.56296706268639E-02 
2135	 5.57796952772609E-02 
2136	 5.56921919878661E-02 
2137	 0.055705229657188 
2138	 5.59224262032154E-02 
2139	 5.62025833992216E-02 
2140	 5.64449615915562E-02 
2141	 5.67668799918662E-02 
2142	 5.73806213090609E-02 
2143	 5.74379543383898E-02 
2144	 5.69566476410461E-02 
2145	 5.71272691556794E-02 
2146	 5.73755081162577E-02 
2147	 0.057718037627671 
2148	 5.84198393776156E-02 
2149	 5.82529898654341E-02 
2150	 5.79151002885084E-02 
2151	 5.79173277279601E-02 
2152	 5.77824348926676E-02 
2153	 5.77841857117362E-02 
2154	 5.81831554121329E-02 
2155	 5.86370822023646E-02 
2156	 5.86035532833888E-02 
2157	 5.88346829861729E-02 
2158	 5.96641636794166E-02 
2159	 0.060072266771858 
2160	 6.03015986932334E-02 
2161	 6.05627890341807E-02 
2162	 6.04582883432189E-02 
2163	 6.02205142717498E-02 
2164	 5.97515008794101E-02 
2165	 5.94695662907853E-02 
2166	 5.96921435568682E-02 
2167	 5.97544468309732E-02 
2168	 5.98202576022489E-02 
2169	 6.03459112870651E-02 
2170	 6.05790511684294E-02 
2171	 6.04286697429115E-02 
2172	 6.04300473882814E-02 
2173	 0.06087748462741 
2174	 6.14304987931002E-02 
2175	 6.18296570646019E-02 
2176	 6.23507717942376E-02 
2177	 6.31268822509711E-02 
2178	 6.31312386757149E-02 
2179	 6.32260550416165E-02 
2180	 6.34996159475145E-02 
2181	 6.31111958321192E-02 
2182	 6.26176472752543E-02 
2183	 6.24227997016483E-02 
2184	 6.24192914652989E-02 
2185	 6.29956288711128E-02 
2186	 0.063867164452342 
2187	 6.41831551186751E-02 
2188	 6.42676414576276E-02 
2189	 0.064327042173381 
2190	 0.063971622615534 
2191	 6.37088079987225E-02 
2192	 6.40726033640706E-02 
2193	 6.42752637098532E-02 
2194	 0.064469910175327 
2195	 6.46636649680064E-02 
2196	 6.41529621797072E-02 
2197	 6.40744994854339E-02 
2198	 6.38968809301076E-02 
2199	 0.063287036585639 
2200	 6.33501941500455E-02 
2201	 6.34845858213695E-02 
2202	 6.35700074007181E-02 
2203	 6.35762410878045E-02 
2204	 6.34494826739406E-02 
2205	 0.06352701943282 
2206	 6.35097337968715E-02 
2207	 6.37895091776995E-02 
2208	 6.40857315922262E-02 
2209	 6.44319707465227E-02 
2210	 6.45923340529515E-02 
2211	 6.48201888078983E-02 
2212	 6.50171545768064E-02 
2213	 6.43795038376374E-02 
2214	 6.39574767937717E-02 
2215	 6.32351728554941E-02 
2216	 6.30475477623975E-02 
2217	 6.37166946246424E-02 
2218	 6.43027375007578E-02 
2219	 6.53905662591874E-02 
2220	 6.56742154025118E-02 
2221	 6.52148948635755E-02 
2222	 6.48881594758988E-02 
2223	 6.39371941991626E-02 
2224	 0.063190557549922 
2225	 6.30063231632359E-02 
2226	 6.32038205583163E-02 
2227	 6.37761046863011E-02 
2228	 6.42286361298712E-02 
2229	 6.45648991992621E-02 
2230	 6.44107454714398E-02 
2231	 6.43674561131457E-02 
2232	 6.43998169996784E-02 
2233	 6.39896598558611E-02 
2234	 6.31209141252688E-02 
2235	 6.30445218917293E-02 
2236	 6.26714519108364E-02 
2237	 6.25109043938335E-02 
2238	 6.30715361719605E-02 
2239	 6.30208738844395E-02 
2240	 6.25505268612229E-02 
2241	 6.20928400049151E-02 
2242	 6.18862046472735E-02 
2243	 6.16335074292785E-02 
2244	 6.11473032733535E-02 
2245	 0.060335168497443 
2246	 5.91298677765117E-02 
2247	 5.86309445720615E-02 
2248	 5.88233496429775E-02 
2249	 5.94193459468365E-02 
2250	 6.04297153369458E-02 
2251	 6.08006397615234E-02 
2252	 6.06119579996714E-02 
2253	 5.98185304352638E-02 
2254	 5.88577223122769E-02 
2255	 5.86157734025864E-02 
2256	 5.83663407277659E-02 
2257	 5.83008829813246E-02 
2258	 5.85295725742284E-02 
2259	 5.89115490642436E-02 
2260	 5.86703641280517E-02 
2261	 5.81943367447716E-02 
2262	 5.81313308039357E-02 
2263	 5.75124277168245E-02 
2264	 5.67819981981096E-02 
2265	 5.65502760069006E-02 
2266	 5.61347662560837E-02 
2267	 5.59666930433933E-02 
2268	 5.54210495814447E-02 
2269	 5.44578465288219E-02 
2270	 5.41316349300591E-02 
2271	 5.41173098974522E-02 
2272	 5.41737808555234E-02 
2273	 5.47295183398997E-02 
2274	 5.51570635048602E-02 
2275	 5.46754942820893E-02 
2276	 0.054477662661241 
2277	 5.44110903396091E-02 
2278	 5.38718100536673E-02 
2279	 5.41362656174021E-02 
2280	 0.054308690897833 
2281	 5.35854694165979E-02 
2282	 5.29407444956142E-02 
2283	 5.25835378715184E-02 
2284	 5.27044985098933E-02 
2285	 5.31604161521075E-02 
2286	 5.31764728909925E-02 
2287	 5.32788592738617E-02 
2288	 0.052734188914329 
2289	 5.22786413232236E-02 
2290	 5.21614451220006E-02 
2291	 5.19612558629105E-02 
2292	 5.18149458465774E-02 
2293	 5.13333157630533E-02 
2294	 5.06392910171665E-02 
2295	 5.00638145587751E-02 
2296	 5.03703908971266E-02 
2297	 5.09221092749758E-02 
2298	 0.050290613332825 
2299	 5.05989179162964E-02 
2300	 5.13974891030885E-02 
2301	 5.07460536926366E-02 
2302	 5.05770868101454E-02 
2303	 5.09106595627818E-02 
2304	 0.050133482668272 
2305	 4.89514209382398E-02 
2306	 4.86930581026656E-02 
2307	 4.83946225860239E-02 
2308	 4.71252810345356E-02 
2309	 4.64706922629236E-02 
2310	 0.046267771053163 
2311	 0.04580836146933 
2312	 4.59031291094169E-02 
2313	 4.63450779709442E-02 
2314	 4.65468461031547E-02 
2315	 4.67189035899856E-02 
2316	 4.68336456939811E-02 
2317	 4.62747741516311E-02 
2318	 4.58010644673927E-02 
2319	 4.57022367954188E-02 
2320	 4.56959744263698E-02 
2321	 4.58247254914152E-02 
2322	 4.69670041304957E-02 
2323	 4.72967827411397E-02 
2324	 4.72780718309942E-02 
2325	 4.66364309312058E-02 
2326	 4.61330507325228E-02 
2327	 4.64224257070691E-02 
2328	 4.73540508225141E-02 
2329	 0.048340339106544 
2330	 4.97628840423022E-02 
2331	 4.98328331794978E-02 
2332	 0.048822307589322 
2333	 4.88405597993901E-02 
2334	 4.71690338061379E-02 
2335	 4.54931492077541E-02 
2336	 4.56524006770782E-02 
2337	 4.44516581565616E-02 
2338	 4.38949362729339E-02 
2339	 4.46435279041662E-02 
2340	 4.34433063725277E-02 
2341	 4.19872489049171E-02 
2342	 4.09990748101748E-02 
2343	 3.94012540060071E-02 
2344	 3.85725029552728E-02 
2345	 3.80763919379675E-02 
2346	 3.90286313090263E-02 
2347	 4.07841314240911E-02 
2348	 0.041190867259795 
2349	 4.18103336910111E-02 
2350	 4.12537736864618E-02 
2351	 3.97657329680344E-02 
2352	 3.99198749387087E-02 
2353	 4.05708677453685E-02 
2354	 4.16584529759913E-02 
2355	 4.38116208121217E-02 
2356	 4.43130817930821E-02 
2357	 4.38381849667752E-02 
2358	 4.33442468589302E-02 
2359	 0.04178708593381 
2360	 4.11312695045246E-02 
2361	 4.13843178877102E-02 
2362	 4.14956363275528E-02 
2363	 4.13002830662783E-02 
2364	 4.19286370587524E-02 
2365	 4.38413762812053E-02 
2366	 4.34602785783118E-02 
2367	 0.041119534470195 
2368	 3.97548668989545E-02 
2369	 3.76667745484064E-02 
2370	 3.77283978619868E-02 
2371	 4.15978228659818E-02 
2372	 4.28243700615314E-02 
2373	 4.31730811661342E-02 
2374	 4.39281584263719E-02 
2375	 4.21199942068432E-02 
2376	 4.25588529600831E-02 
2377	 4.67737515445503E-02 
2378	 4.72780489185952E-02 
2379	 4.68230025191244E-02 
2380	 4.61540605943511E-02 
2381	 4.19449807601427E-02 
2382	 4.01850803904059E-02 
2383	 0.039767099169621 
2384	 3.99794843795189E-02 
2385	 4.27477644105771E-02 
2386	 4.28560567620478E-02 
2387	 0.041317997378886 
2388	 3.96937922203702E-02 
2389	 3.63559349115897E-02 
2390	 3.38852182579758E-02 
2391	 3.18235986995902E-02 
2392	 3.22371801035681E-02 
2393	 3.39338913247293E-02 
2394	 3.51952555790416E-02 
2395	 3.81953979223693E-02 
2396	 0.039610436425548 
2397	 3.92973858847515E-02 
2398	 4.02054242574703E-02 
2399	 4.19920883069383E-02 
2400	 4.29413012461952E-02 
2401	 4.44564912013294E-02 
2402	 4.41129677988473E-02 
2403	 4.27700204162493E-02 
2404	 4.55343908602096E-02 
2405	 4.38371700538838E-02 
2406	 4.02541253967217E-02 
2407	 3.83425379446094E-02 
2408	 3.40334392599282E-02 
2409	 3.30832735752673E-02 
2410	 3.63374401214276E-02 
2411	 3.83682430156353E-02 
2412	 3.92640098193612E-02 
2413	 3.90166893802388E-02 
2414	 0.038172318180173 
2415	 4.01455822434579E-02 
2416	 4.08207813915283E-02 
2417	 0.04296256707858 
2418	 4.67287139718438E-02 
2419	 4.69820555785746E-02 
2420	 4.80934258517406E-02 
2421	 4.52934269681883E-02 
2422	 0.044095050956981 
2423	 4.54494224238327E-02 
2424	 4.06291564790078E-02 
2425	 3.72004586863245E-02 
2426	 3.44374773204515E-02 
2427	 3.20464145966529E-02 
2428	 0.034831437355229 
2429	 3.94075311317368E-02 
2430	 4.41623207574584E-02 
2431	 4.46762332733564E-02 
2432	 4.33460853939549E-02 
2433	 4.63022654349066E-02 
2434	 4.56843795753545E-02 
2435	 4.50935329057421E-02 
2436	 4.45285707653522E-02 
2437	 3.97110092966025E-02 
2438	 0.037660921553033 
2439	 3.81072120064525E-02 
2440	 3.79027007830342E-02 
2441	 0.03696646823161 
2442	 3.72732228471663E-02 
2443	 4.07215001608902E-02 
2444	 0.041346737205398 
2445	 4.05241292681977E-02 
2446	 0.040642877227863 
2447	 4.02464336092008E-02 
2448	 0.039252124836995 
2449	 3.87438737965227E-02 
2450	 3.61350316987322E-02 
2451	 2.76805615592447E-02 
2452	 2.36669151329404E-02 
2453	 2.22799733997328E-02 
2454	 0.022234649655401 
2455	 2.76745464827112E-02 
2456	 2.99567549200416E-02 
2457	 2.84870028926503E-02 
2458	 3.30259187643532E-02 
2459	 4.41561150177162E-02 
2460	 4.29974725755126E-02 
2461	 3.73559679113631E-02 
2462	 3.55928090254549E-02 
2463	 2.38359306874639E-02 
2464	 2.10359680392433E-02 
2465	 2.99411624499831E-02 
2466	 3.34018979379764E-02 
2467	 3.64225104434659E-02 
2468	 3.65963573750159E-02 
2469	 3.69199884115074E-02 
2470	 0.033830255469316 
2471	 0.019317639209111 
2472	 1.80367294318754E-02 
2473	 2.83155225130341E-02 
2474	 3.04648138667898E-02 
2475	 3.65001160598829E-02 
2476	 0.038157479724451 
2477	 2.89647218727024E-02 
2478	 2.60143979215515E-02 
2479	 2.21075398558404E-02 
2480	 2.83563316126116E-02 
2481	 4.83494598570434E-02 
2482	 5.00965532715004E-02 
2483	 6.16031734663415E-02 
2484	 5.66846484562934E-02 
2485	 4.45604632802928E-03 
2486	-1.42110285678409E-02 
2487	-3.60431559719037E-02 
2488	-0.068189766526123 
2489	-4.42711764754825E-02 
2490	-8.11126250728419E-03 
2491	 5.85563095069463E-02 
2492	 0.136377490275232 
2493	 0.183599260353947 
2494	 0.183240041899377 
2495	 0.143275424068137 
2496	 0.136490226072519 
2497	 0.117740267171887 
2498	 5.89783853520249E-02 
2499	 3.03690785059876E-02 
2500	-2.07915336859708E-03 
