Wavelength	ref00113.asd
350	 1.53902187687369 
351	 1.55671016529202 
352	 1.58968914185405 
353	 1.53658203050868 
354	 1.54591757686569 
355	 1.55785340760405 
356	 1.52733114104453 
357	 1.51491986348548 
358	 1.53991522279664 
359	 1.54618943425267 
360	 1.49082189279899 
361	 1.48479165669252 
362	 1.49250418571827 
363	 1.49682986189994 
364	 1.49539830284798 
365	 1.488815669586 
366	 1.47672339027727 
367	 1.46581646864827 
368	 1.47240177036287 
369	 1.46182760890951 
370	 1.45444746065756 
371	 1.46356527335974 
372	 1.44195688765226 
373	 1.42102165524157 
374	 1.41171148469352 
375	 1.41128140531047 
376	 1.39731857705918 
377	 1.38467275302108 
378	 1.38110660004508 
379	 1.38225043637457 
380	 1.3647752045249 
381	 1.35075405841808 
382	 1.35364920036934 
383	 1.33877472835362 
384	 1.33343898787269 
385	 1.33508544826782 
386	 1.32965405224223 
387	 1.32209632633011 
388	 1.29576132729219 
389	 1.26799633706931 
390	 1.28298193878009 
391	 1.27717260751198 
392	 1.26807839479238 
393	 1.26935315406516 
394	 1.25357221100594 
395	 1.24020653094429 
396	 1.23153331704985 
397	 1.22283285262495 
398	 1.20480767355007 
399	 1.20032729492834 
400	 1.20201584683083 
401	 1.18176642292761 
402	 1.1758986742731 
403	 1.17329918385214 
404	 1.16457453287416 
405	 1.15639988316886 
406	 1.14768806786257 
407	 1.1400877984283 
408	 1.13411504731283 
409	 1.12090305895009 
410	 1.11186007210942 
411	 1.10679167032372 
412	 1.0960636340644 
413	 1.08862579601899 
414	 1.08442482871175 
415	 1.07989112976106 
416	 1.0665929650001 
417	 1.05772765151001 
418	 1.05154175131554 
419	 1.04249800479851 
420	 1.03210424448758 
421	 1.02555245775586 
422	 1.0210960750431 
423	 1.01190206168139 
424	 1.0079035753468 
425	 1.0035852804856 
426	 0.995725441319492 
427	 0.991139542995233 
428	 0.986418126572446 
429	 0.97956253724589 
430	 0.970215442591326 
431	 0.963729005682228 
432	 0.957391090823523 
433	 0.951465703107167 
434	 0.94862006695119 
435	 0.943456446586677 
436	 0.939102071913868 
437	 0.936382484366486 
438	 0.928176167606859 
439	 0.924201136885969 
440	 0.921299833306696 
441	 0.914281465908033 
442	 0.911922377131281 
443	 0.908455236350947 
444	 0.902442704975596 
445	 0.897049403634722 
446	 0.892620696194623 
447	 0.889964060638072 
448	 0.888376742221012 
449	 0.883826471902872 
450	 0.877652812609389 
451	 0.872744149908307 
452	 0.871386147676024 
453	 0.867773362264908 
454	 0.864044283863011 
455	 0.861102096264398 
456	 0.857780810567558 
457	 0.85443567576732 
458	 0.850394166865833 
459	 0.84591652215435 
460	 0.8447995262725 
461	 0.842563674568492 
462	 0.838549569364411 
463	 0.834470264913763 
464	 0.8327621918681 
465	 0.830764459284813 
466	 0.827543741583433 
467	 0.825488107651763 
468	 0.822690914510523 
469	 0.819694620616743 
470	 0.817185484795324 
471	 0.8137784388517 
472	 0.810678542094929 
473	 0.808133951085368 
474	 0.805597074496465 
475	 0.802035943034902 
476	 0.799137092919978 
477	 0.797273184931115 
478	 0.793670099403961 
479	 0.791297665974303 
480	 0.789792323908013 
481	 0.787844169536457 
482	 0.785320121630366 
483	 0.78359521459394 
484	 0.782269700749953 
485	 0.779281384633674 
486	 0.776338592957103 
487	 0.773380219243966 
488	 0.770331694331793 
489	 0.767790247949652 
490	 0.766200193671667 
491	 0.764710285753443 
492	 0.762184288666948 
493	 0.75978346412071 
494	 0.757548885193381 
495	 0.75526936032529 
496	 0.752546423774114 
497	 0.751235920006073 
498	 0.750224567338744 
499	 0.748263309834594 
500	 0.74618374226546 
501	 0.743519809241285 
502	 0.740346701763567 
503	 0.737137313807157 
504	 0.734871112683645 
505	 0.732737822797233 
506	 0.730394473582013 
507	 0.728594185025789 
508	 0.726507644661926 
509	 0.724509219114292 
510	 0.723023901179832 
511	 0.721253192880744 
512	 0.718405110005458 
513	 0.715276659675982 
514	 0.713800401142067 
515	 0.712282306486344 
516	 0.71115845229248 
517	 0.710391731177074 
518	 0.708020778690988 
519	 0.704937991977584 
520	 0.702131581004576 
521	 0.700313555335521 
522	 0.698446188213659 
523	 0.69682307177919 
524	 0.695482506575506 
525	 0.694133112776633 
526	 0.693100940587195 
527	 0.692091149426877 
528	 0.690757671663336 
529	 0.688933068445179 
530	 0.687678530540889 
531	 0.687001428911007 
532	 0.686321144222506 
533	 0.68568377620824 
534	 0.685267998043081 
535	 0.684810495162249 
536	 0.683269936215564 
537	 0.682015464933758 
538	 0.681950728273459 
539	 0.683089022161913 
540	 0.68238011791566 
541	 0.681861761102585 
542	 0.682125494229272 
543	 0.682342935570601 
544	 0.681920183903962 
545	 0.681500369148997 
546	 0.681788940285146 
547	 0.683294433992209 
548	 0.684416417894809 
549	 0.684966168959936 
550	 0.685411300320095 
551	 0.686043836302518 
552	 0.686865356500236 
553	 0.688115450648712 
554	 0.690329481763044 
555	 0.690025072761816 
556	 0.690214580891699 
557	 0.693268616833552 
558	 0.693900526771585 
559	 0.695244863819558 
560	 0.697462493767572 
561	 0.698995810453083 
562	 0.701863884258083 
563	 0.703970285948727 
564	 0.704989647588869 
565	 0.7086065485112 
566	 0.711863378196897 
567	 0.714774934796066 
568	 0.718166862092386 
569	 0.721931826589611 
570	 0.725504133834201 
571	 0.728520321667006 
572	 0.730937752577343 
573	 0.734236379357876 
574	 0.737517539910278 
575	 0.740074007352205 
576	 0.742672745278505 
577	 0.745957816318415 
578	 0.749651623793818 
579	 0.753135496865012 
580	 0.757119182221771 
581	 0.760894939255412 
582	 0.764286038371053 
583	 0.767961124962336 
584	 0.771786268920205 
585	 0.775699389083032 
586	 0.779554884958951 
587	 0.783043534466131 
588	 0.785849764312384 
589	 0.788259533252023 
590	 0.790944912124917 
591	 0.793758963707566 
592	 0.79712610386883 
593	 0.800819466961061 
594	 0.803036905657245 
595	 0.806374501136456 
596	 0.810119863836228 
597	 0.81277326465673 
598	 0.814838811998661 
599	 0.817163782064989 
600	 0.819887418993481 
601	 0.822423414048776 
602	 0.824637465172535 
603	 0.826909797440468 
604	 0.829332113093032 
605	 0.830963943670937 
606	 0.832266770016769 
607	 0.833994198401903 
608	 0.836682780961786 
609	 0.838065436933909 
610	 0.838830658947404 
611	 0.839662333627273 
612	 0.840794332495588 
613	 0.84266747349531 
614	 0.844178183026803 
615	 0.844517016221077 
616	 0.845644073542502 
617	 0.846264584838888 
618	 0.846344798380204 
619	 0.846763373265928 
620	 0.847643934681291 
621	 0.848580877789812 
622	 0.849186956219331 
623	 0.849241229978278 
624	 0.849089002996723 
625	 0.848805877589197 
626	 0.848461178624102 
627	 0.848608770092133 
628	 0.848332547029914 
629	 0.847655518644477 
630	 0.847530031270871 
631	 0.847699155248257 
632	 0.847126621954108 
633	 0.845709309309069 
634	 0.846060878977688 
635	 0.846507883791744 
636	 0.846402213372497 
637	 0.84574781033859 
638	 0.84571249216965 
639	 0.846132495206744 
640	 0.846757861534158 
641	 0.847369508327974 
642	 0.847799075626265 
643	 0.848131125893761 
644	 0.84835759194702 
645	 0.847801002550161 
646	 0.847734529880655 
647	 0.848154406290928 
648	 0.848324608690818 
649	 0.848900796813553 
650	 0.849486000586922 
651	 0.849678289892353 
652	 0.849286196388594 
653	 0.84888396981288 
654	 0.848796723488666 
655	 0.849108430121758 
656	 0.849304625596288 
657	 0.849116185236517 
658	 0.848636909815413 
659	 0.848316402779841 
660	 0.849921622905142 
661	 0.85072155274327 
662	 0.849775348468861 
663	 0.850804311876057 
664	 0.85144763572233 
665	 0.85171775317077 
666	 0.85225333406854 
667	 0.852649801306698 
668	 0.853339465867554 
669	 0.853955344539678 
670	 0.853521472107068 
671	 0.853768334135119 
672	 0.854040715824756 
673	 0.853691072199474 
674	 0.853019229412064 
675	 0.853036781526114 
676	 0.852894431528275 
677	 0.85155119207246 
678	 0.851519978423369 
679	 0.851473907340953 
680	 0.850628534090407 
681	 0.84908337867967 
682	 0.84837905143431 
683	 0.846982513455586 
684	 0.844071839832446 
685	 0.842214024666956 
686	 0.840407122399591 
687	 0.837371229991997 
688	 0.832539597689716 
689	 0.829781431998012 
690	 0.826642825722243 
691	 0.822337738065626 
692	 0.818458831979041 
693	 0.814158549409943 
694	 0.809934092131074 
695	 0.806303652564449 
696	 0.803088127211066 
697	 0.800507257293419 
698	 0.797957377718729 
699	 0.794691638638935 
700	 0.791366235792742 
701	 0.788338429662592 
702	 0.785655992428953 
703	 0.783038383087543 
704	 0.781432377145356 
705	 0.779428685926039 
706	 0.776303089368021 
707	 0.774404834290385 
708	 0.773157197978836 
709	 0.771694917730535 
710	 0.769363853418999 
711	 0.768040782472589 
712	 0.766166455552276 
713	 0.763799062435181 
714	 0.762994045595247 
715	 0.760662164198346 
716	 0.757720447205601 
717	 0.755194640218037 
718	 0.751986633147078 
719	 0.749625305640141 
720	 0.748673320457193 
721	 0.748574823277308 
722	 0.747146658422624 
723	 0.745690759341728 
724	 0.744277721874155 
725	 0.741741099762905 
726	 0.740041933975736 
727	 0.738876651463546 
728	 0.737813317643408 
729	 0.737512821096769 
730	 0.736459542045129 
731	 0.735141408257585 
732	 0.734687771811668 
733	 0.735291437561021 
734	 0.734734494543481 
735	 0.732948380460622 
736	 0.731826442189671 
737	 0.731601255857012 
738	 0.731083087399164 
739	 0.729709890967684 
740	 0.72874449084633 
741	 0.728116596101358 
742	 0.727704135013626 
743	 0.727298526286683 
744	 0.726656556273191 
745	 0.725672546183527 
746	 0.724493190848071 
747	 0.723471246019526 
748	 0.723075382545374 
749	 0.722401715942354 
750	 0.72115898077568 
751	 0.720362950596768 
752	 0.719842159848228 
753	 0.719332636113709 
754	 0.718538364315495 
755	 0.717153293788803 
756	 0.716200603866122 
757	 0.715782773199875 
758	 0.715376413714407 
759	 0.714311117415607 
760	 0.713234194905143 
761	 0.712520047197757 
762	 0.711318303945542 
763	 0.71116713729207 
764	 0.710634055135794 
765	 0.709127264684216 
766	 0.708281554022625 
767	 0.707442737114981 
768	 0.706362045103683 
769	 0.705003250283328 
770	 0.703794502971584 
771	 0.702871285642732 
772	 0.702211715569264 
773	 0.701593857847562 
774	 0.700020935477945 
775	 0.698764531350163 
776	 0.698376191620613 
777	 0.697646823937947 
778	 0.69629540736472 
779	 0.695049285313462 
780	 0.694452333142501 
781	 0.693280621192155 
782	 0.692077787586108 
783	 0.691227282911724 
784	 0.690806885919842 
785	 0.689619517906785 
786	 0.688087676989614 
787	 0.686636499891992 
788	 0.685497047575046 
789	 0.684051660946546 
790	 0.682877920787385 
791	 0.682177985308111 
792	 0.680943581726694 
793	 0.679520018528522 
794	 0.678361405614378 
795	 0.677616300002753 
796	 0.676045099198718 
797	 0.674748321320601 
798	 0.673870568877298 
799	 0.672929326763485 
800	 0.671520090678371 
801	 0.670330229021753 
802	 0.669392422572329 
803	 0.667924865492986 
804	 0.666969703330315 
805	 0.665939887840721 
806	 0.664478555510474 
807	 0.66331665153712 
808	 0.66216238447889 
809	 0.661194753552184 
810	 0.660372797287006 
811	 0.658312468144368 
812	 0.656177658107036 
813	 0.654417963113114 
814	 0.652947608505279 
815	 0.651197318159636 
816	 0.649692294801646 
817	 0.648537878800005 
818	 0.647292318810571 
819	 0.646375855647838 
820	 0.64579244155204 
821	 0.645247405037242 
822	 0.644088804365461 
823	 0.642950818679961 
824	 0.641895855418012 
825	 0.640938220314123 
826	 0.640332123534289 
827	 0.639688842344988 
828	 0.639044589467856 
829	 0.638420095288736 
830	 0.63653528259073 
831	 0.635779521070926 
832	 0.635765440083318 
833	 0.634301092982279 
834	 0.633645524105782 
835	 0.632721101773833 
836	 0.631569715626466 
837	 0.631815595965269 
838	 0.63116787462049 
839	 0.630227910651751 
840	 0.629550825075174 
841	 0.628426279105539 
842	 0.627940586366211 
843	 0.627663944155441 
844	 0.626964217508482 
845	 0.626113173787913 
846	 0.625109661252767 
847	 0.624115462480317 
848	 0.623261320873878 
849	 0.622190898426598 
850	 0.621098402689478 
851	 0.620411317168718 
852	 0.620436989988411 
853	 0.619413402128559 
854	 0.618582932881669 
855	 0.618167836706621 
856	 0.616983106500281 
857	 0.615871507730783 
858	 0.615234704908273 
859	 0.614971351960382 
860	 0.61438072622643 
861	 0.614386333608721 
862	 0.614052830660683 
863	 0.612887268053974 
864	 0.612703358473721 
865	 0.612259429406167 
866	 0.611539883048317 
867	 0.610820104847774 
868	 0.609730735998085 
869	 0.609298607619722 
870	 0.60924476921669 
871	 0.608841816179481 
872	 0.608651337142813 
873	 0.608240808938316 
874	 0.607447331488123 
875	 0.606513632342321 
876	 0.606842113111558 
877	 0.606591220153952 
878	 0.605420802990175 
879	 0.604753885273671 
880	 0.604550462917373 
881	 0.604355608390941 
882	 0.60387185580631 
883	 0.60317239675233 
884	 0.603045513005686 
885	 0.603154047412384 
886	 0.602887241791059 
887	 0.601633021856717 
888	 0.600909176234041 
889	 0.600873742428582 
890	 0.600996066062766 
891	 0.600094641494052 
892	 0.599069618812761 
893	 0.598410970739086 
894	 0.598107364164717 
895	 0.59683843130135 
896	 0.596565540767954 
897	 0.596599488140123 
898	 0.595666657954002 
899	 0.595533740585553 
900	 0.596600544787764 
901	 0.59687710081623 
902	 0.594672783371926 
903	 0.595925621464172 
904	 0.596715595984581 
905	 0.596475192027824 
906	 0.5966630523004 
907	 0.594961552909349 
908	 0.593934838481156 
909	 0.594067531286143 
910	 0.593874185808485 
911	 0.594146575906846 
912	 0.59386129289148 
913	 0.592935494457915 
914	 0.592433757636029 
915	 0.593887370279832 
916	 0.593629628061424 
917	 0.59233744588721 
918	 0.595362437005957 
919	 0.595850843178441 
920	 0.594754462713358 
921	 0.59422987552896 
922	 0.595978284949806 
923	 0.596452530316582 
924	 0.596226256058673 
925	 0.596156264440696 
926	 0.596269358035246 
927	 0.595208422174493 
928	 0.593905602818488 
929	 0.593028041422122 
930	 0.591752769918032 
931	 0.592173896316547 
932	 0.592135808768939 
933	 0.589802152946046 
934	 0.587056714642651 
935	 0.587575962074902 
936	 0.590609325258843 
937	 0.593269003517312 
938	 0.59229897859099 
939	 0.591184085850082 
940	 0.593960920807827 
941	 0.599090671672879 
942	 0.595090423293257 
943	 0.595875898391186 
944	 0.599911348454421 
945	 0.602252415453515 
946	 0.599666622156992 
947	 0.597858302525101 
948	 0.598131872246171 
949	 0.599846760164921 
950	 0.601241348600211 
951	 0.60587327115022 
952	 0.607789202005395 
953	 0.604649106702506 
954	 0.605870630813111 
955	 0.608321534228459 
956	 0.611609271035512 
957	 0.61398897086309 
958	 0.610503713315426 
959	 0.609566342649711 
960	 0.613165528724735 
961	 0.618286428939123 
962	 0.616888559643974 
963	 0.620661473397763 
964	 0.624075462726778 
965	 0.62294651356327 
966	 0.622093292561818 
967	 0.627027887277011 
968	 0.629502880202843 
969	 0.626481066011192 
970	 0.627189006210696 
971	 0.629653963284394 
972	 0.632817783742966 
973	 0.634382833962723 
974	 0.631184467554277 
975	 0.631125479749831 
976	 0.634763651891416 
977	 0.63882879205453 
978	 0.638201445866705 
979	 0.638498817847457 
980	 0.638140623345125 
981	 0.637863717335793 
982	 0.640954629073491 
983	 0.638971178874136 
984	 0.641216315270628 
985	 0.646012675532768 
986	 0.642494633828815 
987	 0.646720721436885 
988	 0.64752334756662 
989	 0.645783899760799 
990	 0.650989720131786 
991	 0.651655496543643 
992	 0.652996452520205 
993	 0.654893025142967 
994	 0.654217154550892 
995	 0.655272145283708 
996	 0.651882825152967 
997	 0.649168075053806 
998	 0.654119235766897 
999	 0.657498998827669 
1000	 0.655786444818988 
1001	 0.67372079244557 
1002	 0.674081011108012 
1003	 0.674745980672539 
1004	 0.675410596308164 
1005	 0.676359771751894 
1006	 0.677669239580669 
1007	 0.678638395558379 
1008	 0.679816739480917 
1009	 0.680556731280432 
1010	 0.681017577625072 
1011	 0.681198248275381 
1012	 0.681547982508105 
1013	 0.682257253232674 
1014	 0.682700708949414 
1015	 0.683630616550764 
1016	 0.684910570073494 
1017	 0.685515484291619 
1018	 0.686293001370923 
1019	 0.687432895833913 
1020	 0.688360284956529 
1021	 0.688989814012371 
1022	 0.689656254851628 
1023	 0.690463180713362 
1024	 0.690846288624283 
1025	 0.691478506780606 
1026	 0.692612509980134 
1027	 0.693367330319745 
1028	 0.694065697934258 
1029	 0.694725257774372 
1030	 0.694882046794864 
1031	 0.695834570460589 
1032	 0.697223276358919 
1033	 0.69798400460028 
1034	 0.698496773305167 
1035	 0.69919516755226 
1036	 0.699459922933818 
1037	 0.699936022976027 
1038	 0.700607332280578 
1039	 0.701515843449054 
1040	 0.702079802152013 
1041	 0.702342243542344 
1042	 0.702941115898607 
1043	 0.703936051840771 
1044	 0.704631435484235 
1045	 0.70552627290299 
1046	 0.706181595189742 
1047	 0.706206224335844 
1048	 0.706620247114424 
1049	 0.707475429992102 
1050	 0.708274652553423 
1051	 0.709375027695048 
1052	 0.710307070938065 
1053	 0.710909946695921 
1054	 0.711423025011811 
1055	 0.712037027325434 
1056	 0.712804973280645 
1057	 0.713778994510753 
1058	 0.714825535849255 
1059	 0.715487854705077 
1060	 0.716060436628024 
1061	 0.716623384251389 
1062	 0.716653415001008 
1063	 0.717206357192819 
1064	 0.718546979351559 
1065	 0.71935524044546 
1066	 0.7200221039199 
1067	 0.720889563459267 
1068	 0.721911852384905 
1069	 0.722336621585817 
1070	 0.723422254573636 
1071	 0.725028553209136 
1072	 0.725846419262588 
1073	 0.726801817948685 
1074	 0.727783429079067 
1075	 0.728050446791733 
1076	 0.728465638748946 
1077	 0.729099762920073 
1078	 0.729481519926601 
1079	 0.730184879340689 
1080	 0.731553195823602 
1081	 0.732466787940126 
1082	 0.73325631104052 
1083	 0.733643215098973 
1084	 0.734191432369513 
1085	 0.734895327249201 
1086	 0.735810664170111 
1087	 0.736857610463902 
1088	 0.737962189209591 
1089	 0.738407026529149 
1090	 0.738446156941017 
1091	 0.739080537937859 
1092	 0.739883504184266 
1093	 0.740569890780614 
1094	 0.741385574816003 
1095	 0.742185060215948 
1096	 0.742934406853873 
1097	 0.743756100623545 
1098	 0.744295067262306 
1099	 0.74474501370929 
1100	 0.744959194251097 
1101	 0.745128640349749 
1102	 0.745357189682127 
1103	 0.746065919782745 
1104	 0.746731413957298 
1105	 0.747018816871692 
1106	 0.747404248272524 
1107	 0.747771917276868 
1108	 0.748076173770731 
1109	 0.748229389964831 
1110	 0.747829079636573 
1111	 0.747502000425834 
1112	 0.74660523654983 
1113	 0.746057758573734 
1114	 0.745915613864429 
1115	 0.745451795054316 
1116	 0.744754993013488 
1117	 0.744061586612403 
1118	 0.743446499183449 
1119	 0.742462676726553 
1120	 0.741494067610937 
1121	 0.740703230232101 
1122	 0.740046384572925 
1123	 0.740226266923464 
1124	 0.741056661660303 
1125	 0.742267081456748 
1126	 0.74365356341904 
1127	 0.745140170611259 
1128	 0.74692357205439 
1129	 0.749053308279168 
1130	 0.751023021471682 
1131	 0.753220725464523 
1132	 0.755411902531154 
1133	 0.757394918886165 
1134	 0.759548144771784 
1135	 0.762366855788404 
1136	 0.764436566530081 
1137	 0.766730943663377 
1138	 0.769054838335539 
1139	 0.770765004491778 
1140	 0.772382092096862 
1141	 0.773597231563838 
1142	 0.774944867434707 
1143	 0.77641772867465 
1144	 0.77775146066593 
1145	 0.779428447988222 
1146	 0.781464551192064 
1147	 0.783277834715266 
1148	 0.784729770006184 
1149	 0.786902385161251 
1150	 0.789336391751092 
1151	 0.791842297410249 
1152	 0.794756424480319 
1153	 0.79742791570195 
1154	 0.799881220697435 
1155	 0.802027036725971 
1156	 0.804061714384614 
1157	 0.806197268111726 
1158	 0.808320315779445 
1159	 0.810028585893871 
1160	 0.811897211426992 
1161	 0.813963018713125 
1162	 0.81562067604171 
1163	 0.817275204806244 
1164	 0.81859766444863 
1165	 0.819474251452351 
1166	 0.820503339638494 
1167	 0.821496897709937 
1168	 0.822470302123179 
1169	 0.823529151611793 
1170	 0.82445923818622 
1171	 0.825256263581114 
1172	 0.825910809755539 
1173	 0.826564903598579 
1174	 0.827412519316441 
1175	 0.828141757891085 
1176	 0.828809563957352 
1177	 0.829277916313836 
1178	 0.829413922609301 
1179	 0.829808340740849 
1180	 0.830130756904761 
1181	 0.83063961254878 
1182	 0.831377222651221 
1183	 0.832031670988511 
1184	 0.832673123387745 
1185	 0.8333663694069 
1186	 0.834097175953216 
1187	 0.834784638323979 
1188	 0.83550719511935 
1189	 0.836266261817905 
1190	 0.836692031448062 
1191	 0.837362420794646 
1192	 0.838053268601767 
1193	 0.838700960811158 
1194	 0.839260355763598 
1195	 0.83995499854128 
1196	 0.840264322726035 
1197	 0.840127995873098 
1198	 0.840409478086214 
1199	 0.840705878225186 
1200	 0.841084417253138 
1201	 0.841856902150745 
1202	 0.842250485952268 
1203	 0.842340171237976 
1204	 0.842589799852107 
1205	 0.842728187460137 
1206	 0.84299695209623 
1207	 0.843576346136417 
1208	 0.843860519391506 
1209	 0.843921841266483 
1210	 0.844035936064037 
1211	 0.844442119694036 
1212	 0.844801343795941 
1213	 0.84508607705086 
1214	 0.845629832831215 
1215	 0.845893775542403 
1216	 0.84571123400502 
1217	 0.846013111643182 
1218	 0.846657114832913 
1219	 0.846979875947147 
1220	 0.847351813856296 
1221	 0.847599047371113 
1222	 0.84762261230428 
1223	 0.847702715567079 
1224	 0.847885199770289 
1225	 0.847877923110331 
1226	 0.84760451436876 
1227	 0.8475123189606 
1228	 0.847427259737347 
1229	 0.847295136530965 
1230	 0.847397680362671 
1231	 0.847590998967762 
1232	 0.847785207573448 
1233	 0.848156343492121 
1234	 0.848187637150831 
1235	 0.848080053706587 
1236	 0.848062743609034 
1237	 0.847784072580583 
1238	 0.847794664193662 
1239	 0.848185889178387 
1240	 0.848175925787112 
1241	 0.848006014174058 
1242	 0.847919302374638 
1243	 0.84760297190437 
1244	 0.84746806228395 
1245	 0.847576597448486 
1246	 0.847541947271639 
1247	 0.847456586128678 
1248	 0.847385609406482 
1249	 0.847197153372914 
1250	 0.847107805733116 
1251	 0.847042449031387 
1252	 0.847142398256017 
1253	 0.847058808656891 
1254	 0.846989132739723 
1255	 0.846891848481228 
1256	 0.846706516834392 
1257	 0.846475628233941 
1258	 0.84622092441395 
1259	 0.845994943822028 
1260	 0.845621848838293 
1261	 0.845427062371546 
1262	 0.845402351129097 
1263	 0.845302151609338 
1264	 0.845280220129663 
1265	 0.845153467845049 
1266	 0.844894260807386 
1267	 0.844761436118912 
1268	 0.844675236159782 
1269	 0.844542190188734 
1270	 0.844419501739419 
1271	 0.844367041032227 
1272	 0.844379989169329 
1273	 0.84433839010865 
1274	 0.844086048656682 
1275	 0.843701279609451 
1276	 0.843637817273102 
1277	 0.843432055686151 
1278	 0.843490822275089 
1279	 0.844116244479992 
1280	 0.844161568309364 
1281	 0.843812822690145 
1282	 0.843852541093631 
1283	 0.843903046455442 
1284	 0.843979039415511 
1285	 0.84428724671816 
1286	 0.844492439059657 
1287	 0.84456170255489 
1288	 0.844720218252484 
1289	 0.845001828989012 
1290	 0.845215281670043 
1291	 0.845394668317549 
1292	 0.845572577184528 
1293	 0.845698620947161 
1294	 0.845893019236195 
1295	 0.846300698716402 
1296	 0.846396532746251 
1297	 0.846513215924053 
1298	 0.846628123364021 
1299	 0.846677964177283 
1300	 0.846498839866325 
1301	 0.846621773192211 
1302	 0.846870290936937 
1303	 0.847106678133607 
1304	 0.8475304208337 
1305	 0.847759865024731 
1306	 0.847841203108312 
1307	 0.848089489461689 
1308	 0.848467077831436 
1309	 0.848610615435625 
1310	 0.848593807358561 
1311	 0.848800532044181 
1312	 0.848916804634412 
1313	 0.849136952745489 
1314	 0.849781207913709 
1315	 0.850126830735391 
1316	 0.85013904351071 
1317	 0.850341360507922 
1318	 0.850608131683919 
1319	 0.850824893019218 
1320	 0.851017561589246 
1321	 0.851433851553448 
1322	 0.851635556965657 
1323	 0.851721948666059 
1324	 0.851818544465374 
1325	 0.851906873365264 
1326	 0.851926735973426 
1327	 0.851901815921031 
1328	 0.851753114862751 
1329	 0.851304666187208 
1330	 0.851350530035555 
1331	 0.851570725519687 
1332	 0.851746638594451 
1333	 0.852326129540162 
1334	 0.852603442015451 
1335	 0.852650969763053 
1336	 0.85273901129906 
1337	 0.852833963574472 
1338	 0.852885709647127 
1339	 0.853041085404108 
1340	 0.852787363569675 
1341	 0.852438198604372 
1342	 0.851724753317906 
1343	 0.850111435407562 
1344	 0.848576553624823 
1345	 0.846928066176622 
1346	 0.844136743286522 
1347	 0.841368904527914 
1348	 0.838183404975624 
1349	 0.834545454497631 
1350	 0.830016918700332 
1351	 0.824494516880095 
1352	 0.816881959909385 
1353	 0.809769731224244 
1354	 0.802821214986389 
1355	 0.793614823190448 
1356	 0.789969268184053 
1357	 0.780422661416361 
1358	 0.770345717676922 
1359	 0.753025434889129 
1360	 0.737079323421077 
1361	 0.715228709744051 
1362	 0.701552939428903 
1363	 0.68441763280342 
1364	 0.706098279603504 
1365	 0.706053701593019 
1366	 0.693430025778668 
1367	 0.69282849751825 
1368	 0.694412863468462 
1369	 0.695642550650361 
1370	 0.704558330416255 
1371	 0.707216534153948 
1372	 0.69762590427864 
1373	 0.700865961672894 
1374	 0.712363967373251 
1375	 0.720794051976557 
1376	 0.721052413387878 
1377	 0.724125212582738 
1378	 0.722792444612723 
1379	 0.708267116138221 
1380	 0.708260711344852 
1381	 0.715695375074839 
1382	 0.721978741645804 
1383	 0.728797052902192 
1384	 0.740405272111369 
1385	 0.75965707550791 
1386	 0.764556321368813 
1387	 0.765633260519999 
1388	 0.767463703662145 
1389	 0.759823349029248 
1390	 0.762058821741251 
1391	 0.768684428754707 
1392	 0.77589505199475 
1393	 0.788026788765681 
1394	 0.794796644331866 
1395	 0.799530312265747 
1396	 0.806648713408527 
1397	 0.810197448407951 
1398	 0.817630096991274 
1399	 0.831653097708729 
1400	 0.841000804607183 
1401	 0.850893498730775 
1402	 0.856854732897185 
1403	 0.852580558850498 
1404	 0.858546321458918 
1405	 0.869211180431146 
1406	 0.876683412699255 
1407	 0.888015343010584 
1408	 0.900861474230881 
1409	 0.902227364506984 
1410	 0.904879780306695 
1411	 0.911889756318111 
1412	 0.919351450859605 
1413	 0.926202294355613 
1414	 0.93628479847124 
1415	 0.94208684166279 
1416	 0.944899212053122 
1417	 0.949331280209272 
1418	 0.953543378221678 
1419	 0.958066532664624 
1420	 0.96247015510465 
1421	 0.967736585076687 
1422	 0.974340708859794 
1423	 0.978659087303357 
1424	 0.982978713702494 
1425	 0.986089521096194 
1426	 0.987356048715313 
1427	 0.989659228848451 
1428	 0.992378679644874 
1429	 0.994698103022451 
1430	 0.997414076701541 
1431	 0.999338442643818 
1432	 1.00030542375985 
1433	 1.00194036401022 
1434	 1.00353347012603 
1435	 1.0052463124918 
1436	 1.00789076983536 
1437	 1.00955378793771 
1438	 1.01018849817448 
1439	 1.01128024361976 
1440	 1.01177993787813 
1441	 1.01307779469303 
1442	 1.01530326661105 
1443	 1.01705884291084 
1444	 1.01872393995302 
1445	 1.02031416464135 
1446	 1.02255646214068 
1447	 1.02571712605098 
1448	 1.02794614587956 
1449	 1.03072618748516 
1450	 1.03239485982455 
1451	 1.03289012589552 
1452	 1.03444330038684 
1453	 1.03637200960556 
1454	 1.03776865735342 
1455	 1.03937646922287 
1456	 1.04034317405473 
1457	 1.04109375458324 
1458	 1.04127935123598 
1459	 1.04123532597078 
1460	 1.04074204073741 
1461	 1.03914178380017 
1462	 1.03846107893531 
1463	 1.03822575117483 
1464	 1.03718116042355 
1465	 1.03639599977403 
1466	 1.03478935670019 
1467	 1.03111161581831 
1468	 1.0295433698878 
1469	 1.02900166876671 
1470	 1.02813751189263 
1471	 1.02868359426135 
1472	 1.02820885381064 
1473	 1.02653019026052 
1474	 1.0258981695465 
1475	 1.02567797342312 
1476	 1.02544410793568 
1477	 1.02541190216086 
1478	 1.02569994942933 
1479	 1.02663743621754 
1480	 1.02665720314414 
1481	 1.02610924895552 
1482	 1.02626071900884 
1483	 1.02626913996754 
1484	 1.02624921964405 
1485	 1.02718787989318 
1486	 1.02738633437613 
1487	 1.02681829956968 
1488	 1.02614326777566 
1489	 1.02643395578393 
1490	 1.02659790495016 
1491	 1.02722719479936 
1492	 1.02809686934624 
1493	 1.02803447159941 
1494	 1.02752554586957 
1495	 1.0272859725824 
1496	 1.02679511628639 
1497	 1.0263971279414 
1498	 1.02627543229468 
1499	 1.02565823556902 
1500	 1.02462482508317 
1501	 1.02388070777904 
1502	 1.02317312531838 
1503	 1.02222981540605 
1504	 1.02129627656715 
1505	 1.02023072421547 
1506	 1.01883983541762 
1507	 1.01775494596462 
1508	 1.01687863973195 
1509	 1.01576142292332 
1510	 1.01451911466368 
1511	 1.01345996867542 
1512	 1.01236452277795 
1513	 1.01131913789973 
1514	 1.01044993198184 
1515	 1.00949105574162 
1516	 1.00834014127924 
1517	 1.00745420266744 
1518	 1.00699766988683 
1519	 1.00588418418098 
1520	 1.00441430424278 
1521	 1.0032309728406 
1522	 1.00167983912995 
1523	 1.00049492300089 
1524	 0.9997788411208 
1525	 0.998896212920376 
1526	 0.998063953871176 
1527	 0.997018118410999 
1528	 0.995826673478643 
1529	 0.994781194242912 
1530	 0.99342906809345 
1531	 0.992532638872579 
1532	 0.992376344494541 
1533	 0.991516088672289 
1534	 0.990345989491059 
1535	 0.989373781552607 
1536	 0.988172326546443 
1537	 0.986940054259493 
1538	 0.985854872018086 
1539	 0.98478898869613 
1540	 0.98349405554639 
1541	 0.982291066775735 
1542	 0.981336192821137 
1543	 0.980275196967716 
1544	 0.978989426926878 
1545	 0.977921438524252 
1546	 0.97707853227849 
1547	 0.976094062572684 
1548	 0.975132456872515 
1549	 0.974138206148325 
1550	 0.972831486728377 
1551	 0.971897559480113 
1552	 0.971463478332658 
1553	 0.970611536412975 
1554	 0.969666249594871 
1555	 0.968776095513182 
1556	 0.967520987474167 
1557	 0.966443506038304 
1558	 0.965629585345121 
1559	 0.964790716897221 
1560	 0.963840038786595 
1561	 0.963056270335698 
1562	 0.962548783522765 
1563	 0.961866499085911 
1564	 0.961268612721842 
1565	 0.960532413608382 
1566	 0.959442310273362 
1567	 0.958121565901709 
1568	 0.957137232209861 
1569	 0.955981954559295 
1570	 0.955389175825393 
1571	 0.955334838876113 
1572	 0.954739850251678 
1573	 0.95421415710548 
1574	 0.95351580489922 
1575	 0.952578720910095 
1576	 0.951558586334132 
1577	 0.950490335365123 
1578	 0.94950654843973 
1579	 0.948229835138683 
1580	 0.947490249365613 
1581	 0.947271979076983 
1582	 0.946396235068103 
1583	 0.945335972864123 
1584	 0.94458974500996 
1585	 0.943613916227842 
1586	 0.942934647227599 
1587	 0.942849475237005 
1588	 0.942004441997781 
1589	 0.940664219412593 
1590	 0.939863445562592 
1591	 0.939050711571952 
1592	 0.938232890355536 
1593	 0.93779253369328 
1594	 0.936888400393899 
1595	 0.935496922954508 
1596	 0.934662560638186 
1597	 0.934020212006283 
1598	 0.933196033421099 
1599	 0.932553382110881 
1600	 0.931738485666305 
1601	 0.930686896134608 
1602	 0.929750231835133 
1603	 0.928797863825348 
1604	 0.928088320734115 
1605	 0.927488004756771 
1606	 0.926807440573325 
1607	 0.926396542687741 
1608	 0.92561315549195 
1609	 0.924454649062674 
1610	 0.923685005309927 
1611	 0.922891980279831 
1612	 0.922427067712232 
1613	 0.922456726053254 
1614	 0.921811851160832 
1615	 0.921027418878715 
1616	 0.920313119370943 
1617	 0.919236823800024 
1618	 0.918409505886419 
1619	 0.91780669682216 
1620	 0.917119114619791 
1621	 0.916202006365049 
1622	 0.915774398260775 
1623	 0.915818124956503 
1624	 0.915330199757536 
1625	 0.914811263474714 
1626	 0.914265453200027 
1627	 0.91335552815412 
1628	 0.91283759408139 
1629	 0.912624967744036 
1630	 0.91213933738428 
1631	 0.91161282515255 
1632	 0.911029365645513 
1633	 0.910347825139727 
1634	 0.909749404457458 
1635	 0.909119870538703 
1636	 0.908552981125991 
1637	 0.908017249643464 
1638	 0.907467372232354 
1639	 0.906901661590692 
1640	 0.906558406742565 
1641	 0.906291811037109 
1642	 0.90607551422487 
1643	 0.906178741196695 
1644	 0.905780022618985 
1645	 0.905004773953609 
1646	 0.904772840864848 
1647	 0.904649811201498 
1648	 0.904350050434381 
1649	 0.904250272726334 
1650	 0.904181702750198 
1651	 0.903909382879466 
1652	 0.903644603045988 
1653	 0.903617045620933 
1654	 0.903584245317249 
1655	 0.903367802580611 
1656	 0.903136097085964 
1657	 0.903114600388377 
1658	 0.902683010125854 
1659	 0.90225742369663 
1660	 0.902422975286667 
1661	 0.902653113112204 
1662	 0.902378648700315 
1663	 0.902203544228032 
1664	 0.901917947804935 
1665	 0.901649561426646 
1666	 0.90185323240923 
1667	 0.901984758375857 
1668	 0.901885465281102 
1669	 0.901961592955303 
1670	 0.902120547930167 
1671	 0.902210716922027 
1672	 0.902184818253056 
1673	 0.902111415943434 
1674	 0.901990572650729 
1675	 0.901790275790718 
1676	 0.901738195529222 
1677	 0.901732750336897 
1678	 0.901554611838396 
1679	 0.901251146407196 
1680	 0.901008027785838 
1681	 0.900819143773462 
1682	 0.900962736156624 
1683	 0.901545313176339 
1684	 0.901958170769621 
1685	 0.902433185402811 
1686	 0.902734284597885 
1687	 0.902495414745502 
1688	 0.902762638358979 
1689	 0.903249423913371 
1690	 0.903008104083434 
1691	 0.903314445683594 
1692	 0.90388286586494 
1693	 0.904051788949384 
1694	 0.904573221826992 
1695	 0.904763832313746 
1696	 0.903901940605193 
1697	 0.903925518253538 
1698	 0.904488651356826 
1699	 0.905019865133306 
1700	 0.906414716039695 
1701	 0.906945478566808 
1702	 0.906774933312994 
1703	 0.906872462262014 
1704	 0.906416333213262 
1705	 0.906543242733493 
1706	 0.907410790932724 
1707	 0.90778665039435 
1708	 0.907963013376264 
1709	 0.908420220063515 
1710	 0.908785299417267 
1711	 0.909235517555255 
1712	 0.910234117998302 
1713	 0.910678017837672 
1714	 0.910622722470342 
1715	 0.910887005096921 
1716	 0.911073401243574 
1717	 0.911286020001036 
1718	 0.911603737215282 
1719	 0.912027123101009 
1720	 0.912729713341436 
1721	 0.912942571482552 
1722	 0.912779001538315 
1723	 0.912987599295249 
1724	 0.913108613361937 
1725	 0.913116365520283 
1726	 0.913580587606323 
1727	 0.913685528626498 
1728	 0.913098277282418 
1729	 0.912900923430574 
1730	 0.912983042439085 
1731	 0.912671073412217 
1732	 0.912908658917762 
1733	 0.913027239073623 
1734	 0.912732290809588 
1735	 0.912480607760269 
1736	 0.911833046361421 
1737	 0.911218029623291 
1738	 0.911420523992845 
1739	 0.91146229646655 
1740	 0.911343713085292 
1741	 0.911636435489029 
1742	 0.911265407891552 
1743	 0.911397165674406 
1744	 0.912321535022521 
1745	 0.912749025255387 
1746	 0.913286675119597 
1747	 0.913376016792457 
1748	 0.913394161522399 
1749	 0.914132339417842 
1750	 0.914904132356087 
1751	 0.915756960956251 
1752	 0.916490071699536 
1753	 0.916945672177992 
1754	 0.916859388527935 
1755	 0.916692375144364 
1756	 0.916717741146545 
1757	 0.916257741673805 
1758	 0.91637244144904 
1759	 0.917445040765081 
1760	 0.91774807143505 
1761	 0.917596385489604 
1762	 0.917868090131745 
1763	 0.918016494148252 
1764	 0.917766333815977 
1765	 0.917946332169995 
1766	 0.917714048074253 
1767	 0.916606661090969 
1768	 0.915978607227455 
1769	 0.915224041334085 
1770	 0.914983701172419 
1771	 0.915117429295808 
1772	 0.915023596395787 
1773	 0.915768541102907 
1774	 0.915058688706106 
1775	 0.914199227205547 
1776	 0.913846339359029 
1777	 0.91232336222329 
1778	 0.911184273201167 
1779	 0.910679843586295 
1780	 0.9093478866701 
1781	 0.90852833555037 
1782	 0.907935620116468 
1783	 0.907989693323292 
1784	 0.908639661296497 
1785	 0.908828250589055 
1786	 0.908737810903188 
1787	 0.906747836230492 
1788	 0.904813535730797 
1789	 0.904177023560321 
1790	 0.903502957786452 
1791	 0.903035761690954 
1792	 0.900976223745468 
1793	 0.898291018053401 
1794	 0.895830140545198 
1795	 0.892649468805675 
1796	 0.891183717394051 
1797	 0.889866246125606 
1798	 0.886913704918752 
1799	 0.88615872780271 
1800	 0.883834947929677 
1801	 0.884607075816672 
1802	 0.880603217804726 
1803	 0.876958213861067 
1804	 0.872165267244616 
1805	 0.868028018434303 
1806	 0.865006233313549 
1807	 0.861529207958135 
1808	 0.858772436894084 
1809	 0.853056242804153 
1810	 0.84941423659332 
1811	 0.845909335591783 
1812	 0.844629961467981 
1813	 0.848624191895301 
1814	 0.845853674526316 
1815	 0.839890922103697 
1816	 0.836052686166225 
1817	 0.823638774050188 
1818	 0.817530441046883 
1819	 0.815371725508464 
1820	 0.825507982332776 
1821	 0.823660645589136 
1822	 0.818106824623838 
1823	 0.816715006876729 
1824	 0.813891083858066 
1825	 0.807575439100243 
1826	 0.805486994388329 
1827	 0.798226379085643 
1828	 0.784450275965343 
1829	 0.740834213172059 
1830	 0.729355714592907 
1831	 0.735800194267643 
1832	 0.750881412621453 
1833	 0.864631066611932 
1834	 0.914039226254561 
1835	 0.895996942670269 
1836	 0.896389351134258 
1837	 0.775076451517362 
1838	 0.724051040812879 
1839	 0.701231239710546 
1840	 0.765217441598013 
1841	 0.736153005352385 
1842	 0.689687526844086 
1843	 0.673172280063221 
1844	 0.617556868505575 
1845	 0.609420656152132 
1846	 0.68960924509509 
1847	 0.702809482015843 
1848	 0.695644287454655 
1849	 0.663790589931966 
1850	 0.643295398631422 
1851	 0.577487603384538 
1852	 0.564579273852619 
1853	 0.596086692501319 
1854	 0.593426409498073 
1855	 0.581591374331542 
1856	 0.585338217468702 
1857	 0.557152675025622 
1858	 0.585108355554283 
1859	 0.611884329106097 
1860	 0.683477645855462 
1861	 0.683361107929992 
1862	 0.648061356352281 
1863	 0.654024566868021 
1864	 0.622126423226994 
1865	 0.640209803627658 
1866	 0.77865105552886 
1867	 0.856786583540677 
1868	 0.809538586480978 
1869	 0.81919630736199 
1870	 0.830942271551148 
1871	 0.772740423554477 
1872	 0.77210532125561 
1873	 0.874502316422784 
1874	 0.869854124685768 
1875	 0.774089324596638 
1876	 0.769136669004156 
1877	 0.775133637846809 
1878	 0.789192869877927 
1879	 0.828552919842348 
1880	 0.901923286067094 
1881	 0.927497110287048 
1882	 0.956593297893562 
1883	 0.946284061805844 
1884	 0.887967841566347 
1885	 0.876748541319977 
1886	 0.867343795870403 
1887	 0.86385349436784 
1888	 0.870278215386964 
1889	 0.856132275732673 
1890	 0.870927972306214 
1891	 0.894318782187818 
1892	 0.900599883673708 
1893	 0.937253934461772 
1894	 0.955304854261283 
1895	 0.91264295088679 
1896	 0.911983675336929 
1897	 0.945178509732407 
1898	 0.990613875050796 
1899	 1.04114733164606 
1900	 1.09494537727943 
1901	 1.10722670107642 
1902	 1.0048345764079 
1903	 1.02473868557757 
1904	 1.06676822620065 
1905	 1.10683004835349 
1906	 1.21016146122514 
1907	 1.41423933760167 
1908	 1.30598188784122 
1909	 1.23940504713695 
1910	 1.19279267847516 
1911	 1.1011279440701 
1912	 1.09704323484827 
1913	 1.14284064634125 
1914	 1.14065654214283 
1915	 1.14446932097328 
1916	 1.15034946248784 
1917	 1.13915894820503 
1918	 1.14575300611621 
1919	 1.17176922334714 
1920	 1.17435796094633 
1921	 1.18094806739663 
1922	 1.18099996442275 
1923	 1.17418751309593 
1924	 1.14799693424139 
1925	 1.15293625878843 
1926	 1.1659240429055 
1927	 1.17697304629575 
1928	 1.20235614478466 
1929	 1.23034291944615 
1930	 1.22855471944062 
1931	 1.22239536120332 
1932	 1.22147096788907 
1933	 1.21608171069668 
1934	 1.21577720250279 
1935	 1.2176962119781 
1936	 1.22378586080277 
1937	 1.23477631406676 
1938	 1.23994652526402 
1939	 1.24586068308824 
1940	 1.24948564834845 
1941	 1.24840454330879 
1942	 1.24828034379139 
1943	 1.25273129693628 
1944	 1.25267860845935 
1945	 1.2544235409624 
1946	 1.25009187703143 
1947	 1.25099048836187 
1948	 1.25682039973641 
1949	 1.25890103818312 
1950	 1.2602178963695 
1951	 1.26424029462835 
1952	 1.26494631768462 
1953	 1.25298950067929 
1954	 1.24801946376443 
1955	 1.25176556972447 
1956	 1.25000545216954 
1957	 1.24759272636501 
1958	 1.24853499908262 
1959	 1.24982712282232 
1960	 1.24993014450508 
1961	 1.25063421273608 
1962	 1.25542754947163 
1963	 1.25506767509347 
1964	 1.25114120891159 
1965	 1.24786655342031 
1966	 1.24347675455494 
1967	 1.24000255210662 
1968	 1.23863089229686 
1969	 1.23724295784314 
1970	 1.23646297449324 
1971	 1.23641435138558 
1972	 1.23721225560707 
1973	 1.23656580334247 
1974	 1.23740256029964 
1975	 1.23695654848884 
1976	 1.23445479632965 
1977	 1.23231641841004 
1978	 1.22760229370232 
1979	 1.22357774328858 
1980	 1.22047722614389 
1981	 1.21652041861253 
1982	 1.21421026935876 
1983	 1.21367715485489 
1984	 1.2119996429155 
1985	 1.21051777599141 
1986	 1.21068308242448 
1987	 1.20900969309512 
1988	 1.20734256839923 
1989	 1.20551246434171 
1990	 1.20153429539598 
1991	 1.19763417223546 
1992	 1.19547314337083 
1993	 1.19262866226092 
1994	 1.18958777804673 
1995	 1.1869941792049 
1996	 1.18529964314293 
1997	 1.1817024452914 
1998	 1.17902852286119 
1999	 1.17530299611559 
2000	 1.1733474903159 
2001	 1.1749740670953 
2002	 1.1743689856543 
2003	 1.17715524263702 
2004	 1.17984110177637 
2005	 1.17686132599947 
2006	 1.17473894058248 
2007	 1.1717063573731 
2008	 1.16912038660509 
2009	 1.16701007475926 
2010	 1.1682447503394 
2011	 1.16766766458911 
2012	 1.16490945034311 
2013	 1.16083834919931 
2014	 1.15560322559779 
2015	 1.15337854582532 
2016	 1.15238581692514 
2017	 1.15531215525334 
2018	 1.15699539329523 
2019	 1.1560751175272 
2020	 1.15292682875103 
2021	 1.15304007254482 
2022	 1.15283402103943 
2023	 1.15181782035686 
2024	 1.15488924718341 
2025	 1.15797173737742 
2026	 1.15690842402937 
2027	 1.1567843995281 
2028	 1.15743554484687 
2029	 1.15702740630182 
2030	 1.15810258097928 
2031	 1.16089412147879 
2032	 1.16184390531919 
2033	 1.16232730496979 
2034	 1.16072704583173 
2035	 1.16015412724947 
2036	 1.15927626474162 
2037	 1.15756074637196 
2038	 1.15800616826554 
2039	 1.15807830111113 
2040	 1.15671884010673 
2041	 1.15747149896655 
2042	 1.15863427912743 
2043	 1.15984793931024 
2044	 1.16307413248881 
2045	 1.16388079900362 
2046	 1.16331387963664 
2047	 1.16174932691339 
2048	 1.1626404167338 
2049	 1.16282050070726 
2050	 1.16361509861337 
2051	 1.16716847877264 
2052	 1.16896424080904 
2053	 1.16817310316181 
2054	 1.169437439926 
2055	 1.16880613396228 
2056	 1.16866653668644 
2057	 1.17045231320918 
2058	 1.16916727479184 
2059	 1.16950834811206 
2060	 1.17147976880515 
2061	 1.1729165059846 
2062	 1.17307040133546 
2063	 1.17380409222874 
2064	 1.17227619802404 
2065	 1.17111301798059 
2066	 1.17007665196866 
2067	 1.16930398893707 
2068	 1.16938264729734 
2069	 1.16830572471592 
2070	 1.16697872139774 
2071	 1.16733112480046 
2072	 1.16844198648626 
2073	 1.17161738668622 
2074	 1.17340729529012 
2075	 1.17296816972248 
2076	 1.1712590031507 
2077	 1.16926310375742 
2078	 1.16948669849574 
2079	 1.17056997800307 
2080	 1.171971036325 
2081	 1.17365107954033 
2082	 1.17264323350777 
2083	 1.16956551283106 
2084	 1.16745686523228 
2085	 1.16580730971556 
2086	 1.16540636963059 
2087	 1.1652512356938 
2088	 1.16678587457977 
2089	 1.1682162252175 
2090	 1.16827771451596 
2091	 1.16688361304776 
2092	 1.16798964919746 
2093	 1.16795752757636 
2094	 1.16635908829571 
2095	 1.16742825239424 
2096	 1.16631014911461 
2097	 1.16329968413986 
2098	 1.16255743772661 
2099	 1.16131831390369 
2100	 1.15946751457447 
2101	 1.15983991256929 
2102	 1.15945405708642 
2103	 1.15933069009163 
2104	 1.15783660535802 
2105	 1.1576431737081 
2106	 1.15792295853501 
2107	 1.15828100239868 
2108	 1.15880196112279 
2109	 1.15892038052313 
2110	 1.15778621595786 
2111	 1.15599745214667 
2112	 1.15393348189805 
2113	 1.15019889278421 
2114	 1.14794761706042 
2115	 1.14760342171596 
2116	 1.14821032387945 
2117	 1.14795665406584 
2118	 1.14797810821175 
2119	 1.14787989508334 
2120	 1.14758053194418 
2121	 1.14631590166697 
2122	 1.14451719616352 
2123	 1.1432936426958 
2124	 1.14080280623851 
2125	 1.1393004624672 
2126	 1.14020616060447 
2127	 1.1423927314274 
2128	 1.14251098553163 
2129	 1.14050988830628 
2130	 1.13903941435623 
2131	 1.13743951500979 
2132	 1.13616200877133 
2133	 1.13536451472031 
2134	 1.13529056096493 
2135	 1.13598532031464 
2136	 1.13538481081081 
2137	 1.13445072442314 
2138	 1.13556245415144 
2139	 1.13407106216299 
2140	 1.1320751049422 
2141	 1.13197152330733 
2142	 1.1293053404276 
2143	 1.1269454410247 
2144	 1.12681064297189 
2145	 1.12532955153106 
2146	 1.12464591109456 
2147	 1.12507396180005 
2148	 1.12305690527643 
2149	 1.12041463949911 
2150	 1.11928729194825 
2151	 1.11844734997108 
2152	 1.11773943676684 
2153	 1.11741136534634 
2154	 1.11878330479395 
2155	 1.11831623031808 
2156	 1.11484611119136 
2157	 1.11113953445326 
2158	 1.10688560428019 
2159	 1.10234186009437 
2160	 1.10280622828573 
2161	 1.10364997201598 
2162	 1.10360081584191 
2163	 1.10506292307283 
2164	 1.10386329250762 
2165	 1.10350498481286 
2166	 1.10338085883585 
2167	 1.10221839710049 
2168	 1.10146652180296 
2169	 1.10033862234843 
2170	 1.09924341403972 
2171	 1.09799386597473 
2172	 1.09791415060637 
2173	 1.0979545386194 
2174	 1.09771024624362 
2175	 1.09827643683676 
2176	 1.0992900654818 
2177	 1.09892516556703 
2178	 1.09642629866999 
2179	 1.09181318442483 
2180	 1.0872249854158 
2181	 1.08433805567077 
2182	 1.08268897963229 
2183	 1.08485537735711 
2184	 1.08604564681839 
2185	 1.08308798700081 
2186	 1.08232251070345 
2187	 1.08196626075669 
2188	 1.0815493141632 
2189	 1.08009988276117 
2190	 1.07963598344614 
2191	 1.07776720768347 
2192	 1.07417977486575 
2193	 1.07137132407615 
2194	 1.07153156818096 
2195	 1.07242839315971 
2196	 1.07180963353383 
2197	 1.07011716885335 
2198	 1.06905921160652 
2199	 1.06807421263618 
2200	 1.06895806451671 
2201	 1.07130485166012 
2202	 1.07082842187966 
2203	 1.0670569734903 
2204	 1.06336863886957 
2205	 1.06156442899696 
2206	 1.05982613309258 
2207	 1.06175116447882 
2208	 1.06353557259267 
2209	 1.06573384209454 
2210	 1.06587851129017 
2211	 1.06604611018817 
2212	 1.06773349118204 
2213	 1.06423963003625 
2214	 1.06284154970336 
2215	 1.06305607303342 
2216	 1.05899192169042 
2217	 1.05878336253904 
2218	 1.0598154796654 
2219	 1.05815241472144 
2220	 1.05892070754998 
2221	 1.06006248309413 
2222	 1.05950980825042 
2223	 1.05927116510435 
2224	 1.05998393273376 
2225	 1.05906678905259 
2226	 1.05865100070768 
2227	 1.05982424915616 
2228	 1.05997508260819 
2229	 1.06188961903009 
2230	 1.06452464824211 
2231	 1.06624166111243 
2232	 1.06933435835482 
2233	 1.07076957554263 
2234	 1.07008719034457 
2235	 1.07060200753197 
2236	 1.07072121123034 
2237	 1.07036480920027 
2238	 1.07415965449588 
2239	 1.07506398394024 
2240	 1.07838212404828 
2241	 1.08523035739183 
2242	 1.08780092672539 
2243	 1.09150170885557 
2244	 1.0929570744753 
2245	 1.0921170662254 
2246	 1.09344545664985 
2247	 1.0941890255275 
2248	 1.09645514456525 
2249	 1.10053627191021 
2250	 1.10476326805959 
2251	 1.10721799337984 
2252	 1.11105617693884 
2253	 1.11481193994393 
2254	 1.11785159308545 
2255	 1.12419678282846 
2256	 1.12669313401264 
2257	 1.12696095948568 
2258	 1.1280771698947 
2259	 1.12924889654519 
2260	 1.1279213805497 
2261	 1.13255844246732 
2262	 1.13556089283599 
2263	 1.13616504609011 
2264	 1.1383516146356 
2265	 1.13910703133748 
2266	 1.14241720353075 
2267	 1.14700156133637 
2268	 1.14999651510764 
2269	 1.15392394930323 
2270	 1.15623175580791 
2271	 1.15782287848831 
2272	 1.16049525256246 
2273	 1.16184711240336 
2274	 1.1620876849175 
2275	 1.16010711674915 
2276	 1.15674012714084 
2277	 1.15721262578784 
2278	 1.15638108039494 
2279	 1.15357736289595 
2280	 1.15249546138011 
2281	 1.14825056800359 
2282	 1.1496630975627 
2283	 1.15509838894199 
2284	 1.15612091092305 
2285	 1.1570352261867 
2286	 1.15780826127823 
2287	 1.15544079687242 
2288	 1.15195611407603 
2289	 1.15417820866215 
2290	 1.16125970810667 
2291	 1.16424560484448 
2292	 1.16617231143044 
2293	 1.17017789336575 
2294	 1.16926304091396 
2295	 1.16730185544226 
2296	 1.1707474660253 
2297	 1.17331562138718 
2298	 1.17180006078551 
2299	 1.17311191502196 
2300	 1.17334657484972 
2301	 1.17333602142382 
2302	 1.17692775912532 
2303	 1.1813779083938 
2304	 1.18548858940758 
2305	 1.18468866292421 
2306	 1.18367229808527 
2307	 1.1862666789165 
2308	 1.19205388103107 
2309	 1.19891431156553 
2310	 1.20291262101423 
2311	 1.20525840206641 
2312	 1.20145175210126 
2313	 1.19877629149145 
2314	 1.20013304697755 
2315	 1.19546317452849 
2316	 1.19201894427818 
2317	 1.19438670626939 
2318	 1.19681444020882 
2319	 1.19481090789881 
2320	 1.19669851204915 
2321	 1.20120650649384 
2322	 1.20259041249956 
2323	 1.20482006344645 
2324	 1.21252815661366 
2325	 1.22090416109813 
2326	 1.2226110693181 
2327	 1.22439593004146 
2328	 1.22714894958403 
2329	 1.22816332539405 
2330	 1.22260014536651 
2331	 1.21927862327214 
2332	 1.21920794380899 
2333	 1.21522402070735 
2334	 1.21735235942547 
2335	 1.22542230511454 
2336	 1.2331732629051 
2337	 1.24111616976949 
2338	 1.24038810167578 
2339	 1.23349184694753 
2340	 1.22573744195041 
2341	 1.21690499461307 
2342	 1.20934923912504 
2343	 1.20328412877901 
2344	 1.20258631507946 
2345	 1.2049467181889 
2346	 1.21502342589335 
2347	 1.22915686292659 
2348	 1.2340726291101 
2349	 1.2357224059493 
2350	 1.23800869068717 
2351	 1.23913603932007 
2352	 1.24097862324906 
2353	 1.24484021599161 
2354	 1.24588884734323 
2355	 1.24258656952895 
2356	 1.24775283918197 
2357	 1.25427057250041 
2358	 1.25135936931053 
2359	 1.25030912503213 
2360	 1.2428745193952 
2361	 1.23733348876849 
2362	 1.24197877623377 
2363	 1.23988179294816 
2364	 1.23569605852651 
2365	 1.23106868668992 
2366	 1.2222041372554 
2367	 1.22595903334651 
2368	 1.24475442525458 
2369	 1.25632705110662 
2370	 1.26816343282321 
2371	 1.27087797015435 
2372	 1.26409114550802 
2373	 1.23588357076476 
2374	 1.22927234371381 
2375	 1.22707321537144 
2376	 1.22604606802334 
2377	 1.23725314891972 
2378	 1.23563867556735 
2379	 1.21944604142919 
2380	 1.21611979049581 
2381	 1.21918124132184 
2382	 1.22463952510752 
2383	 1.24081426071158 
2384	 1.24560768926097 
2385	 1.24466002341175 
2386	 1.23910341005644 
2387	 1.22434524504836 
2388	 1.22522909281165 
2389	 1.23323147013875 
2390	 1.23516930449069 
2391	 1.23678954287144 
2392	 1.23829709211245 
2393	 1.23382977862638 
2394	 1.24046226267536 
2395	 1.26371406762252 
2396	 1.27643095599451 
2397	 1.29718458493556 
2398	 1.29060755022078 
2399	 1.2522470289559 
2400	 1.24118070269083 
2401	 1.22401062614623 
2402	 1.21845226254651 
2403	 1.24602691576364 
2404	 1.25856712366121 
2405	 1.26155933033139 
2406	 1.26137417071753 
2407	 1.25086123164956 
2408	 1.24400751599531 
2409	 1.22916965910374 
2410	 1.22492957891692 
2411	 1.23387584207836 
2412	 1.24042312259254 
2413	 1.27053265014496 
2414	 1.28427694758294 
2415	 1.27121577634377 
2416	 1.2902153041924 
2417	 1.29449275954046 
2418	 1.29153743442376 
2419	 1.31585533346274 
2420	 1.32111699991365 
2421	 1.32896064423262 
2422	 1.34713427133066 
2423	 1.33768750898391 
2424	 1.31920444287479 
2425	 1.29445167497317 
2426	 1.26883133315734 
2427	 1.27195289380889 
2428	 1.28771973315889 
2429	 1.30650910863682 
2430	 1.32957769357352 
2431	 1.36484460846653 
2432	 1.37438996726527 
2433	 1.38183882133437 
2434	 1.37207794589641 
2435	 1.31037379928014 
2436	 1.29826142770651 
2437	 1.29009103964514 
2438	 1.29278183111468 
2439	 1.34570651651417 
2440	 1.36521155206269 
2441	 1.37848911709282 
2442	 1.39220845142409 
2443	 1.38905530542543 
2444	 1.38218410204263 
2445	 1.36159650022715 
2446	 1.36013078814892 
2447	 1.3775533374584 
2448	 1.37515199716042 
2449	 1.38271177568591 
2450	 1.37687259405808 
2451	 1.30642572196935 
2452	 1.3004219979943 
2453	 1.35034227766084 
2454	 1.36748608780193 
2455	 1.42603190793552 
2456	 1.43217793834204 
2457	 1.36670956329129 
2458	 1.34320085200875 
2459	 1.3116143395065 
2460	 1.31709528066885 
2461	 1.37334174393775 
2462	 1.38282162240732 
2463	 1.3786895328805 
2464	 1.36307433632704 
2465	 1.29347393677681 
2466	 1.29698153508273 
2467	 1.36685120966284 
2468	 1.39985715267385 
2469	 1.47514823055287 
2470	 1.5046066154834 
2471	 1.46778546804975 
2472	 1.47172557382424 
2473	 1.45759514896867 
2474	 1.45067161825146 
2475	 1.44712073724966 
2476	 1.47202491370293 
2477	 1.61416981466318 
2478	 1.61282959466023 
2479	 1.4649115385011 
2480	 1.42329688319032 
2481	 1.30152520976413 
2482	 1.27318089104949 
2483	 1.49063779397207 
2484	 1.57645277753316 
2485	 1.57981000298218 
2486	 1.44738742165125 
2487	 1.28094037643358 
2488	 1.30873751556051 
2489	 1.03287601053505 
2490	 0.954649600463265 
2491	 1.41353827415793 
2492	 1.26714545191576 
2493	 1.37913419180533 
2494	 1.63331266558218 
2495	 1.39499671937025 
2496	 1.59516772984132 
2497	 1.81209028860862 
2498	 1.56908215398866 
2499	 1.72878891673082 
2500	 1.48900835258198 
