Wavelength	ref00045.asd
350	 5.67606404941878E-02 
351	 5.71744607591758E-02 
352	 5.66943983274235E-02 
353	 5.65482553106861E-02 
354	 5.63009080603873E-02 
355	 5.65729032020643E-02 
356	 5.72428267726441E-02 
357	 5.62748898574302E-02 
358	 5.59179619451034E-02 
359	 5.62765878567436E-02 
360	 5.67874253920673E-02 
361	 0.057346278529298 
362	 0.057320646660292 
363	 5.70779678681769E-02 
364	 5.74651222853415E-02 
365	 5.71125725941853E-02 
366	 5.71853602693568E-02 
367	 0.057913859934887 
368	 5.78597570176219E-02 
369	 0.057594409087157 
370	 5.75905451750651E-02 
371	 5.80581196671176E-02 
372	 5.85986131340242E-02 
373	 5.84215932086289E-02 
374	 5.78071983050434E-02 
375	 5.75767767579326E-02 
376	 5.79289703494534E-02 
377	 5.81821062577503E-02 
378	 5.81924072666112E-02 
379	 5.85401847987477E-02 
380	 5.86322772957639E-02 
381	 5.86793277811615E-02 
382	 5.88508183191673E-02 
383	 5.86976266548491E-02 
384	 5.87453692865132E-02 
385	 5.89204396892101E-02 
386	 0.058973621992246 
387	 5.94143922320683E-02 
388	 5.97992203950911E-02 
389	 5.99045263939179E-02 
390	 5.98320233672639E-02 
391	 5.99412423295901E-02 
392	 6.03657687783709E-02 
393	 6.08461377225819E-02 
394	 6.02635099358537E-02 
395	 6.04367179967769E-02 
396	 6.10299267100989E-02 
397	 6.11733769276599E-02 
398	 6.16400062869347E-02 
399	 6.17570196741581E-02 
400	 6.15923436252057E-02 
401	 6.18239679832795E-02 
402	 6.20973745948284E-02 
403	 6.22594955786081E-02 
404	 6.23255760535288E-02 
405	 6.25876724215206E-02 
406	 6.28589564888776E-02 
407	 6.29852084825461E-02 
408	 6.29180983891768E-02 
409	 6.30860948039837E-02 
410	 6.31654237373112E-02 
411	 6.32009837935231E-02 
412	 6.35453860461873E-02 
413	 6.37053340520961E-02 
414	 6.38223210452809E-02 
415	 6.40101697370213E-02 
416	 6.40889117160785E-02 
417	 6.43419164814718E-02 
418	 6.46060119070548E-02 
419	 6.46346112978646E-02 
420	 6.45711639978919E-02 
421	 6.46438581109015E-02 
422	 6.48289356902842E-02 
423	 6.48901854055734E-02 
424	 6.49232318798928E-02 
425	 6.50810572648669E-02 
426	 6.53436615580194E-02 
427	 6.52671633907313E-02 
428	 6.54936839074924E-02 
429	 6.57691331576136E-02 
430	 6.56896404540162E-02 
431	 6.58370507537874E-02 
432	 6.60299252077562E-02 
433	 6.61333919462954E-02 
434	 6.61128950437661E-02 
435	 6.63016522535152E-02 
436	 6.64805536437017E-02 
437	 6.65148173272117E-02 
438	 6.66184358952013E-02 
439	 6.68204685308527E-02 
440	 6.70019484202655E-02 
441	 6.70204074650293E-02 
442	 6.69233047401593E-02 
443	 6.69514304983342E-02 
444	 6.71158789168828E-02 
445	 0.067209744588577 
446	 6.72932366155148E-02 
447	 6.73693657225867E-02 
448	 6.74438708607307E-02 
449	 6.75583918997206E-02 
450	 6.75831015557515E-02 
451	 6.75682818926103E-02 
452	 6.76322905854208E-02 
453	 6.77758908562731E-02 
454	 6.79103513304937E-02 
455	 6.80127033250186E-02 
456	 6.81444920302986E-02 
457	 6.82468256506654E-02 
458	 6.82788927481963E-02 
459	 6.82723161000028E-02 
460	 6.84587071096494E-02 
461	 6.86406342805176E-02 
462	 6.87171584164803E-02 
463	 6.86759521286301E-02 
464	 6.87341562764261E-02 
465	 6.88891223795838E-02 
466	 0.069058195472349 
467	 6.90805013543733E-02 
468	 6.91660764584501E-02 
469	 6.92687504617575E-02 
470	 6.93125331940058E-02 
471	 6.94016789144118E-02 
472	 6.94684418093657E-02 
473	 6.95270762110578E-02 
474	 6.96426166541582E-02 
475	 6.97574740279664E-02 
476	 6.97395066271466E-02 
477	 6.96397258247365E-02 
478	 6.98813464834368E-02 
479	 6.99749715235054E-02 
480	 7.00254061122783E-02 
481	 7.02450571198063E-02 
482	 7.02966143004167E-02 
483	 7.03692394472029E-02 
484	 7.05356111081366E-02 
485	 7.07247635469454E-02 
486	 7.08483699949567E-02 
487	 7.09051207505603E-02 
488	 7.09342258412195E-02 
489	 7.10057542297457E-02 
490	 7.12041976309982E-02 
491	 7.13663451480793E-02 
492	 7.13140514022439E-02 
493	 7.15151163619676E-02 
494	 7.18067398292656E-02 
495	 7.19999440837158E-02 
496	 7.19462611328544E-02 
497	 7.20770806398552E-02 
498	 7.23413302156471E-02 
499	 7.25687268894174E-02 
500	 7.26129405806909E-02 
501	 7.28098029401562E-02 
502	 7.31049433890482E-02 
503	 0.073221390542379 
504	 7.33323012442013E-02 
505	 0.073423545161036 
506	 7.35096598799755E-02 
507	 7.36853189677501E-02 
508	 0.073884465909822 
509	 7.40712410217508E-02 
510	 7.42432428368974E-02 
511	 7.45047569600492E-02 
512	 7.47883607171348E-02 
513	 7.50000105250166E-02 
514	 7.50503408713181E-02 
515	 7.52128322380417E-02 
516	 7.55005502287258E-02 
517	 7.58146457952229E-02 
518	 7.59025324363455E-02 
519	 7.61166215756948E-02 
520	 0.076396237821495 
521	 7.65590350407179E-02 
522	 7.67587681179886E-02 
523	 7.70247210116545E-02 
524	 7.72980788487604E-02 
525	 7.74329829050867E-02 
526	 7.76297993973512E-02 
527	 7.79194540975591E-02 
528	 7.82396394182446E-02 
529	 7.83713997991594E-02 
530	 7.85613707594432E-02 
531	 7.88669386309629E-02 
532	 0.07921645729317 
533	 7.94137011339094E-02 
534	 7.96728203489122E-02 
535	 8.00507135896155E-02 
536	 8.02653256168212E-02 
537	 0.080571423701917 
538	 8.09158663298342E-02 
539	 8.11951101203218E-02 
540	 8.15199109047278E-02 
541	 8.19049908764265E-02 
542	 8.23214365267138E-02 
543	 8.27093090119274E-02 
544	 8.31194854645888E-02 
545	 8.34731811723377E-02 
546	 8.37759695837846E-02 
547	 8.42785639274734E-02 
548	 8.47655863488079E-02 
549	 8.52176542960942E-02 
550	 8.56832673565024E-02 
551	 8.60915918326603E-02 
552	 8.65331463927381E-02 
553	 8.70277937020626E-02 
554	 8.74970781097198E-02 
555	 8.80092336415157E-02 
556	 8.85945924882666E-02 
557	 8.92351221501412E-02 
558	 8.97802088997462E-02 
559	 9.03303716939068E-02 
560	 9.09417121239283E-02 
561	 9.16400711404998E-02 
562	 9.24661242690986E-02 
563	 9.31596708574365E-02 
564	 9.37075491848565E-02 
565	 9.45947920585233E-02 
566	 9.54184070734425E-02 
567	 9.61238322550131E-02 
568	 0.096796243871379 
569	 9.76049364548825E-02 
570	 9.83552028879423E-02 
571	 9.90838067064587E-02 
572	 0.100032062034404 
573	 0.100730027053959 
574	 0.101437506458408 
575	 0.102347225801183 
576	 0.103109261336484 
577	 0.103906379715134 
578	 0.104759566916795 
579	 0.105619584423603 
580	 0.106475012736711 
581	 0.107353374629965 
582	 0.108217927641885 
583	 0.108944642524487 
584	 0.109747036246069 
585	 0.110655194734039 
586	 0.111597877794961 
587	 0.112341920437345 
588	 0.11316810750879 
589	 0.114079866521637 
590	 0.11486955088802 
591	 0.115738068250608 
592	 0.116596389512576 
593	 0.117415014453355 
594	 0.118292096573478 
595	 0.11922400552084 
596	 0.12009180494481 
597	 0.120796287615014 
598	 0.12151837790472 
599	 0.122231826083767 
600	 0.122953367761729 
601	 0.123744727754801 
602	 0.124525364787771 
603	 0.125241801774995 
604	 0.125883257034247 
605	 0.126521586704741 
606	 0.127208892187202 
607	 0.127899530164275 
608	 0.128509869344583 
609	 0.129124782181921 
610	 0.129768565453217 
611	 0.130424137501824 
612	 0.131033274396304 
613	 0.131546492278209 
614	 0.132036761881518 
615	 0.132574532915656 
616	 0.133090844742925 
617	 0.133567526037255 
618	 0.134035478746022 
619	 0.134552877094576 
620	 0.134986899451133 
621	 0.135393680438973 
622	 0.135820558066166 
623	 0.136248588290844 
624	 0.136655747783772 
625	 0.137067249290103 
626	 0.137506904190579 
627	 0.137908148878024 
628	 0.13827050479587 
629	 0.138616836465325 
630	 0.138983637543628 
631	 0.139359760045656 
632	 0.139701620044776 
633	 0.139996969498929 
634	 0.140336632437044 
635	 0.140615309505789 
636	 0.140857350402026 
637	 0.141140160238139 
638	 0.14147163919722 
639	 0.141756457692957 
640	 0.142001362018326 
641	 0.142343312169279 
642	 0.142638374217512 
643	 0.142920732067168 
644	 0.143249642773396 
645	 0.143622929776329 
646	 0.143862987881292 
647	 0.144022341123269 
648	 0.144291793350721 
649	 0.14465502855399 
650	 0.144920401311596 
651	 0.145072174196683 
652	 0.145418953736743 
653	 0.145755137060337 
654	 0.146033552248327 
655	 0.146291921847483 
656	 0.146711119822002 
657	 0.147088088124756 
658	 0.147341676319072 
659	 0.147578011712941 
660	 0.147825028578163 
661	 0.148106464136901 
662	 0.14843222785652 
663	 0.148822475684373 
664	 0.149131477457975 
665	 0.149364083645976 
666	 0.149595357087081 
667	 0.149909577810438 
668	 0.150240729463121 
669	 0.150547802683357 
670	 0.150829356870152 
671	 0.15113367199673 
672	 0.151467903098869 
673	 0.151816540298482 
674	 0.15214469424808 
675	 0.15247790943454 
676	 0.152788793324802 
677	 0.153058315013161 
678	 0.153445162667502 
679	 0.1537761346789 
680	 0.15406616231208 
681	 0.154530863941056 
682	 0.154925536166139 
683	 0.155297370656037 
684	 0.155694162927742 
685	 0.156004684528808 
686	 0.156250388811625 
687	 0.156567615605936 
688	 0.157076109404602 
689	 0.157516872459459 
690	 0.157858891849002 
691	 0.158175853134698 
692	 0.158581207528905 
693	 0.159063650854684 
694	 0.159552203588079 
695	 0.159987511104871 
696	 0.160395725503494 
697	 0.160801286206834 
698	 0.161225913521591 
699	 0.161661306948413 
700	 0.161916378151815 
701	 0.162377248357833 
702	 0.163013390727331 
703	 0.163265398807643 
704	 0.163549050648955 
705	 0.163951553028354 
706	 0.164442159678269 
707	 0.164857459656595 
708	 0.165318394883822 
709	 0.165748624866074 
710	 0.166023017859527 
711	 0.166346758381863 
712	 0.1667719410306 
713	 0.167219799302017 
714	 0.167489654003247 
715	 0.167854456962511 
716	 0.168245634109384 
717	 0.168574904272245 
718	 0.16887593841176 
719	 0.169253689208819 
720	 0.169718358266276 
721	 0.170210644486376 
722	 0.170675842130545 
723	 0.170995114551914 
724	 0.171244472564561 
725	 0.171666005721387 
726	 0.172048830061492 
727	 0.172390192115919 
728	 0.172727280843706 
729	 0.173048198465503 
730	 0.173435592675162 
731	 0.17383114197456 
732	 0.174146831364472 
733	 0.17444682611778 
734	 0.174708506723302 
735	 0.17501942359387 
736	 0.175533863729414 
737	 0.175864588774118 
738	 0.176138972686652 
739	 0.176464291725137 
740	 0.176690208261697 
741	 0.1769133303338 
742	 0.177204913317395 
743	 0.17757503172323 
744	 0.17782996553309 
745	 0.178095187628054 
746	 0.178345443370215 
747	 0.178462630003547 
748	 0.178720469058632 
749	 0.179034738548078 
750	 0.179303432046368 
751	 0.179482409173115 
752	 0.179649980501084 
753	 0.179881051726707 
754	 0.180175518580921 
755	 0.180283591526969 
756	 0.180466056772571 
757	 0.180714392571818 
758	 0.180875070176545 
759	 0.181008348368266 
760	 0.181291827357026 
761	 0.181785986039158 
762	 0.182023027233681 
763	 0.182129102499482 
764	 0.182195402793875 
765	 0.182253531138107 
766	 0.182312715551641 
767	 0.182283234125117 
768	 0.182325367414124 
769	 0.18255786190459 
770	 0.182552707130462 
771	 0.182627859499249 
772	 0.182799795476484 
773	 0.182825519982662 
774	 0.182855871372634 
775	 0.182969820162221 
776	 0.183147493210239 
777	 0.183225531540851 
778	 0.183256835662866 
779	 0.183316976862775 
780	 0.18343818673174 
781	 0.183477055513588 
782	 0.183519095568529 
783	 0.183605279634435 
784	 0.183727849757555 
785	 0.183748392126569 
786	 0.183715743067773 
787	 0.183720620191803 
788	 0.183862330080179 
789	 0.183930441787588 
790	 0.183962335633341 
791	 0.183989716624681 
792	 0.183917665887484 
793	 0.183980344265262 
794	 0.184052044611237 
795	 0.183987449613378 
796	 0.184070406001596 
797	 0.184078883690887 
798	 0.184090035591209 
799	 0.184275617865697 
800	 0.184053386817873 
801	 0.183915709594587 
802	 0.184008046635018 
803	 0.183975778719856 
804	 0.18410228437719 
805	 0.184201043251157 
806	 0.184168962417746 
807	 0.184266065575842 
808	 0.184147974502145 
809	 0.183956988273303 
810	 0.183950693395262 
811	 0.184224012042587 
812	 0.184078988834949 
813	 0.183739979807758 
814	 0.18386848821628 
815	 0.183773088534844 
816	 0.183772214865372 
817	 0.183920718382914 
818	 0.183907904583245 
819	 0.18384158762237 
820	 0.183820040710288 
821	 0.183831439925136 
822	 0.183676701171273 
823	 0.183830227722766 
824	 0.183950914396393 
825	 0.183756795521351 
826	 0.183839411471464 
827	 0.183886885396008 
828	 0.183856695919643 
829	 0.183811439886943 
830	 0.183744674934935 
831	 0.183734267917468 
832	 0.183772607807167 
833	 0.183797633029096 
834	 0.183914414460536 
835	 0.183885856218119 
836	 0.183760948920527 
837	 0.183931112547176 
838	 0.183902966148267 
839	 0.183886503176041 
840	 0.184017247337862 
841	 0.184018074775008 
842	 0.183978128905096 
843	 0.183842745253104 
844	 0.183647973139918 
845	 0.183846093226331 
846	 0.183947308299995 
847	 0.183870003853046 
848	 0.183761906887508 
849	 0.183842695324174 
850	 0.183950631779407 
851	 0.18400464650202 
852	 0.184019189585579 
853	 0.184108131100641 
854	 0.18416912659043 
855	 0.184124685463785 
856	 0.183981992691624 
857	 0.184063913129896 
858	 0.18425450073462 
859	 0.184379794337253 
860	 0.184300701790356 
861	 0.184358232429826 
862	 0.18454052248341 
863	 0.184744393755586 
864	 0.184885634395787 
865	 0.18507478403639 
866	 0.185145390716089 
867	 0.184994474391305 
868	 0.185126709485905 
869	 0.185165877472568 
870	 0.185124787107988 
871	 0.185208499217635 
872	 0.185576931715943 
873	 0.185617795810052 
874	 0.185407136400433 
875	 0.185482771544604 
876	 0.185615844121727 
877	 0.185840243754918 
878	 0.186099123525364 
879	 0.18624410833435 
880	 0.186319861377641 
881	 0.186491106797552 
882	 0.186709067803808 
883	 0.186647035182872 
884	 0.186758479879983 
885	 0.187082020926263 
886	 0.187405744142681 
887	 0.187250050573882 
888	 0.187517845529317 
889	 0.18770544574222 
890	 0.18745358415377 
891	 0.187692435271046 
892	 0.188047217844493 
893	 0.188470128350402 
894	 0.188874007359214 
895	 0.188682542935766 
896	 0.188772020970133 
897	 0.18909473423565 
898	 0.189282784124446 
899	 0.189670450077947 
900	 0.18995446058857 
901	 0.190031181101316 
902	 0.190001597936829 
903	 0.19021251958432 
904	 0.190749084748794 
905	 0.191290487227518 
906	 0.191377534044296 
907	 0.191272807666094 
908	 0.191373235749589 
909	 0.191766203688209 
910	 0.19219157654613 
911	 0.192073166825518 
912	 0.192333453210503 
913	 0.1930590499123 
914	 0.193431468863928 
915	 0.193725596662057 
916	 0.193769116007691 
917	 0.193637828100459 
918	 0.19373649241861 
919	 0.1945327545728 
920	 0.195301897355396 
921	 0.195678827529239 
922	 0.196000299128436 
923	 0.196130129170448 
924	 0.196137675951958 
925	 0.196233403819122 
926	 0.196743116137655 
927	 0.196800351295476 
928	 0.19658706764817 
929	 0.196462684128495 
930	 0.196624444481391 
931	 0.197195556120824 
932	 0.197577116293391 
933	 0.197571248058748 
934	 0.198356890099859 
935	 0.198508018194732 
936	 0.198642738069576 
937	 0.19918972128636 
938	 0.199149418513957 
939	 0.200382516203117 
940	 0.200792267121141 
941	 0.199846938600648 
942	 0.201410910814154 
943	 0.201942486960743 
944	 0.201808863907381 
945	 0.202196141773579 
946	 0.203823490818993 
947	 0.203170306215931 
948	 0.20344233694982 
949	 0.206054159394591 
950	 0.205184805835363 
951	 0.205198781650963 
952	 0.205908602749702 
953	 0.206395477144742 
954	 0.206651642962954 
955	 0.208386540729318 
956	 0.209804205608439 
957	 0.209803558501673 
958	 0.210377406705701 
959	 0.210377699495636 
960	 0.210530061601713 
961	 0.211326857615064 
962	 0.212087269651486 
963	 0.212085912617124 
964	 0.212581401896011 
965	 0.213989603587585 
966	 0.214676862532131 
967	 0.215352841012786 
968	 0.214978788516444 
969	 0.214059416338776 
970	 0.215651025352288 
971	 0.217077194308618 
972	 0.217835208132566 
973	 0.218182296675261 
974	 0.218758868558545 
975	 0.218622846075142 
976	 0.219494525030356 
977	 0.221226766849326 
978	 0.221025991316764 
979	 0.220771099657753 
980	 0.220377975183324 
981	 0.220498426184878 
982	 0.222394547393101 
983	 0.222976900020513 
984	 0.223306576734964 
985	 0.224092959198358 
986	 0.225063714394053 
987	 0.225484191728292 
988	 0.225477996968399 
989	 0.226041900264615 
990	 0.228048766012974 
991	 0.228241368798587 
992	 0.228367791880188 
993	 0.229035106320891 
994	 0.229723802148864 
995	 0.229703724372393 
996	 0.229669605037087 
997	 0.229688312497827 
998	 0.229865142909144 
999	 0.23207504658273 
1000	 0.232911459616618 
1001	 0.238532731144431 
1002	 0.238932493041765 
1003	 0.239412326465902 
1004	 0.239805900925583 
1005	 0.240363270829136 
1006	 0.241093341848304 
1007	 0.241692842357831 
1008	 0.242253913065623 
1009	 0.242873551777422 
1010	 0.243457422498962 
1011	 0.24406374419326 
1012	 0.244729221156577 
1013	 0.245418887235813 
1014	 0.24603632387433 
1015	 0.246534020232955 
1016	 0.247200226188867 
1017	 0.247819453218111 
1018	 0.248354224457819 
1019	 0.248838744748685 
1020	 0.249395021974236 
1021	 0.249839158634275 
1022	 0.250433221466423 
1023	 0.251144950783399 
1024	 0.251856891785408 
1025	 0.252577158776565 
1026	 0.253223290668247 
1027	 0.253869955106594 
1028	 0.254468226530602 
1029	 0.25499114702675 
1030	 0.255611531027875 
1031	 0.256192048317027 
1032	 0.256762372539006 
1033	 0.25737579066721 
1034	 0.258001291174156 
1035	 0.258679705615298 
1036	 0.259436317584615 
1037	 0.260108359914214 
1038	 0.260833472434876 
1039	 0.261427625861285 
1040	 0.261885078808604 
1041	 0.262489920950663 
1042	 0.263055725481872 
1043	 0.263625017445164 
1044	 0.264197881444004 
1045	 0.264736711169243 
1046	 0.265311071916789 
1047	 0.265901166354091 
1048	 0.26657784312085 
1049	 0.267207138222973 
1050	 0.267827560231318 
1051	 0.268438751296641 
1052	 0.269037246672194 
1053	 0.269428701412056 
1054	 0.269942294695099 
1055	 0.270603148171837 
1056	 0.271206855662591 
1057	 0.271977860095921 
1058	 0.272704708981973 
1059	 0.273207724714087 
1060	 0.27366974251471 
1061	 0.274167874468491 
1062	 0.274739883499317 
1063	 0.275393596398251 
1064	 0.276085096611255 
1065	 0.276654962605622 
1066	 0.277185624993841 
1067	 0.277681708207033 
1068	 0.278122144190347 
1069	 0.278603720713429 
1070	 0.279341928522782 
1071	 0.280067656782492 
1072	 0.280627694745863 
1073	 0.281117858512583 
1074	 0.281478757673515 
1075	 0.281788794758794 
1076	 0.282244389461547 
1077	 0.282718566353318 
1078	 0.283222201232313 
1079	 0.283765056313965 
1080	 0.284294868286115 
1081	 0.28486315111768 
1082	 0.285475672811321 
1083	 0.286088119861162 
1084	 0.286670554102736 
1085	 0.287191353141601 
1086	 0.28771967944357 
1087	 0.28824541792687 
1088	 0.288734742205186 
1089	 0.289288469018533 
1090	 0.289900724013264 
1091	 0.290470286100492 
1092	 0.291065711908257 
1093	 0.291726293416059 
1094	 0.292272019127364 
1095	 0.292764577937551 
1096	 0.293334145085679 
1097	 0.29394743428365 
1098	 0.294540082727411 
1099	 0.295191181255375 
1100	 0.295772351666745 
1101	 0.296282209510111 
1102	 0.296773901543794 
1103	 0.297297334915085 
1104	 0.297875917664341 
1105	 0.298523791073559 
1106	 0.299124040176028 
1107	 0.299546440405911 
1108	 0.299933518074925 
1109	 0.300348650481045 
1110	 0.300726609198339 
1111	 0.301155965786917 
1112	 0.301696315389154 
1113	 0.302240585043394 
1114	 0.302883409576997 
1115	 0.303362960423826 
1116	 0.303799041735422 
1117	 0.30422243358116 
1118	 0.30439362721881 
1119	 0.304722067206996 
1120	 0.305327200839318 
1121	 0.305881981451367 
1122	 0.306724434469263 
1123	 0.307772142984156 
1124	 0.308511933112871 
1125	 0.30920136954892 
1126	 0.310022762404338 
1127	 0.310751256744809 
1128	 0.311490916901614 
1129	 0.312332889855672 
1130	 0.313153345241438 
1131	 0.313781071622698 
1132	 0.314492399138125 
1133	 0.315300630840728 
1134	 0.316103620172352 
1135	 0.316623498143514 
1136	 0.317290800129751 
1137	 0.31817255756957 
1138	 0.31875871351434 
1139	 0.319331372239305 
1140	 0.320063532932365 
1141	 0.32053049450837 
1142	 0.321009140120814 
1143	 0.321563055920644 
1144	 0.322166566709111 
1145	 0.322859197341458 
1146	 0.323643621837104 
1147	 0.324351449789323 
1148	 0.325095523887805 
1149	 0.325782413780928 
1150	 0.326278546879837 
1151	 0.326919534064749 
1152	 0.327527275069292 
1153	 0.328325732818711 
1154	 0.329147292821499 
1155	 0.329995029792453 
1156	 0.330903571698257 
1157	 0.331635787112017 
1158	 0.33217102339062 
1159	 0.332681087653927 
1160	 0.333213965576708 
1161	 0.333640175012741 
1162	 0.334202650596379 
1163	 0.334895859063632 
1164	 0.335470754436355 
1165	 0.336076964137914 
1166	 0.336604007712925 
1167	 0.337000008786489 
1168	 0.337520640557015 
1169	 0.33809981135494 
1170	 0.338665067757938 
1171	 0.339213263721398 
1172	 0.339726128031489 
1173	 0.340156828359605 
1174	 0.340540544932243 
1175	 0.340978101328859 
1176	 0.341544869117998 
1177	 0.342117770366335 
1178	 0.342804981060072 
1179	 0.343336003465393 
1180	 0.343820117408332 
1181	 0.3443253163497 
1182	 0.344753650107402 
1183	 0.345225849958247 
1184	 0.345766739046973 
1185	 0.346261884420112 
1186	 0.346663735412267 
1187	 0.34713653391857 
1188	 0.347646394893264 
1189	 0.348178316814435 
1190	 0.348650232462985 
1191	 0.349115571618551 
1192	 0.349552085159185 
1193	 0.349837326041352 
1194	 0.350205427400363 
1195	 0.350601634345202 
1196	 0.350969631057818 
1197	 0.35131388877865 
1198	 0.351702369492748 
1199	 0.3521022788035 
1200	 0.352490340123144 
1201	 0.352887536204432 
1202	 0.353309199321347 
1203	 0.353735978754149 
1204	 0.354154613156081 
1205	 0.354681475269014 
1206	 0.355032115055274 
1207	 0.355197560607092 
1208	 0.355470524781904 
1209	 0.35565825504634 
1210	 0.355944933349224 
1211	 0.356298292038254 
1212	 0.356719720558867 
1213	 0.357116773154956 
1214	 0.357539671624455 
1215	 0.35787973887807 
1216	 0.358240533751261 
1217	 0.358521337036023 
1218	 0.358675423673581 
1219	 0.358921079050302 
1220	 0.359175274253035 
1221	 0.359428843799431 
1222	 0.359712688027869 
1223	 0.359986004355003 
1224	 0.3602332790846 
1225	 0.360501868189375 
1226	 0.360774833683155 
1227	 0.361070884846051 
1228	 0.361318256677763 
1229	 0.361749895815425 
1230	 0.362078957617515 
1231	 0.362320029440857 
1232	 0.362623855607118 
1233	 0.362937744504808 
1234	 0.363162780468672 
1235	 0.363380663454418 
1236	 0.363585096656441 
1237	 0.363673646932966 
1238	 0.363848278858142 
1239	 0.364063273492461 
1240	 0.36431095747023 
1241	 0.364589887993834 
1242	 0.364859422617554 
1243	 0.365197209552645 
1244	 0.365482151179413 
1245	 0.365753671368655 
1246	 0.365975008466562 
1247	 0.366149242363838 
1248	 0.366332790527917 
1249	 0.366418848697473 
1250	 0.366595808389629 
1251	 0.366852946264308 
1252	 0.367065880323033 
1253	 0.367373243572619 
1254	 0.367826892546801 
1255	 0.36805861167483 
1256	 0.368191947328978 
1257	 0.368455326836566 
1258	 0.368664555135362 
1259	 0.368897703637707 
1260	 0.369301854194958 
1261	 0.369551136443553 
1262	 0.369579987809905 
1263	 0.369806034422143 
1264	 0.37016484616624 
1265	 0.370422264340938 
1266	 0.370713366575319 
1267	 0.370963676279823 
1268	 0.371089300777615 
1269	 0.371280048502997 
1270	 0.371492772303001 
1271	 0.371723853448693 
1272	 0.371995971321552 
1273	 0.372243778140237 
1274	 0.372457189303561 
1275	 0.37268402289375 
1276	 0.372846571516426 
1277	 0.372942056942886 
1278	 0.373060752019378 
1279	 0.373139846385397 
1280	 0.373280374318134 
1281	 0.373442201469055 
1282	 0.373600947954609 
1283	 0.373813645130571 
1284	 0.373970002952228 
1285	 0.3740937702606 
1286	 0.374219906063813 
1287	 0.374320022349203 
1288	 0.374435920487512 
1289	 0.374567180558151 
1290	 0.374675832661489 
1291	 0.374817778364221 
1292	 0.374888474470732 
1293	 0.374816711517996 
1294	 0.374879924969905 
1295	 0.375039725618182 
1296	 0.375099829408855 
1297	 0.375213584304625 
1298	 0.375440186278225 
1299	 0.375544275001832 
1300	 0.375523118419131 
1301	 0.37565188288821 
1302	 0.3758737795716 
1303	 0.37597810982078 
1304	 0.376082013513038 
1305	 0.376180191472339 
1306	 0.376176113998708 
1307	 0.376255250849063 
1308	 0.376414180464246 
1309	 0.37653435830421 
1310	 0.376631081732897 
1311	 0.376753791398363 
1312	 0.37691624423769 
1313	 0.377038428334223 
1314	 0.377092487077857 
1315	 0.377244436884683 
1316	 0.377523096306926 
1317	 0.377650191031382 
1318	 0.377757180198304 
1319	 0.3778504870241 
1320	 0.377775912451562 
1321	 0.377725305683665 
1322	 0.377825031798481 
1323	 0.37808029086582 
1324	 0.378195965658092 
1325	 0.378371887873773 
1326	 0.378435500869118 
1327	 0.378342896966283 
1328	 0.378383611242131 
1329	 0.378451591631942 
1330	 0.378522511620255 
1331	 0.378670414781301 
1332	 0.378729983266824 
1333	 0.37870259767966 
1334	 0.378770318887297 
1335	 0.378839587790043 
1336	 0.37893027812619 
1337	 0.379138360982209 
1338	 0.379254159240588 
1339	 0.379437508516403 
1340	 0.379420622692099 
1341	 0.37920295233147 
1342	 0.37900779765673 
1343	 0.378514579691783 
1344	 0.37812307013075 
1345	 0.377784775561288 
1346	 0.377402004507169 
1347	 0.37698788786861 
1348	 0.376570981079109 
1349	 0.376050636764607 
1350	 0.375501568598975 
1351	 0.374640391359597 
1352	 0.373277886886707 
1353	 0.371917287208439 
1354	 0.370018627799664 
1355	 0.368204987429432 
1356	 0.368131321060747 
1357	 0.366193891540837 
1358	 0.36399682720977 
1359	 0.361262764625855 
1360	 0.358304053689669 
1361	 0.35475200385102 
1362	 0.358967970694215 
1363	 0.362829949223599 
1364	 0.370527507850543 
1365	 0.371497988241343 
1366	 0.367222935726646 
1367	 0.365724663302598 
1368	 0.356814256268903 
1369	 0.359266724592297 
1370	 0.371903679437871 
1371	 0.374260808769319 
1372	 0.375553979169527 
1373	 0.3751007449918 
1374	 0.368632502519047 
1375	 0.366460918343772 
1376	 0.365787787276364 
1377	 0.367278189431343 
1378	 0.366668226051112 
1379	 0.365957236026202 
1380	 0.36599617467538 
1381	 0.364295876564897 
1382	 0.3656385988892 
1383	 0.371048837281389 
1384	 0.371381135483763 
1385	 0.3704457400409 
1386	 0.370230791048098 
1387	 0.367317619004271 
1388	 0.367241711225374 
1389	 0.368749730292305 
1390	 0.369806937378165 
1391	 0.371919156633409 
1392	 0.372606659146143 
1393	 0.373357915276603 
1394	 0.373319834471385 
1395	 0.371470791436959 
1396	 0.371113844698914 
1397	 0.371521068499188 
1398	 0.37125100927409 
1399	 0.370928496542865 
1400	 0.37116736925668 
1401	 0.371695344793623 
1402	 0.371549353893572 
1403	 0.370871301731426 
1404	 0.371170111488973 
1405	 0.371461324509443 
1406	 0.371917272857329 
1407	 0.372129797226625 
1408	 0.372597676576313 
1409	 0.372874128692419 
1410	 0.372649159178846 
1411	 0.373035475145481 
1412	 0.373893011207454 
1413	 0.374492608202346 
1414	 0.375031212042939 
1415	 0.375474985859857 
1416	 0.376172169080331 
1417	 0.376212071483881 
1418	 0.375652654968155 
1419	 0.375821176566119 
1420	 0.375975367908825 
1421	 0.376331044771072 
1422	 0.377083712029361 
1423	 0.377665827274333 
1424	 0.378151790262626 
1425	 0.378645516726766 
1426	 0.379451345248498 
1427	 0.379790862223112 
1428	 0.379880130188841 
1429	 0.37999891472425 
1430	 0.379904144474103 
1431	 0.379828297879888 
1432	 0.379503726168011 
1433	 0.379685606255013 
1434	 0.380182010966738 
1435	 0.380546103218236 
1436	 0.381433331314278 
1437	 0.381784294964879 
1438	 0.381494311223083 
1439	 0.381584403330795 
1440	 0.381618887773645 
1441	 0.381767998939695 
1442	 0.382241876334917 
1443	 0.382542516943487 
1444	 0.382675750829276 
1445	 0.382832829090003 
1446	 0.383038068686504 
1447	 0.383645358514364 
1448	 0.384091061202643 
1449	 0.384697016826016 
1450	 0.385116242182081 
1451	 0.385420448527655 
1452	 0.385701907754275 
1453	 0.385973051208372 
1454	 0.386214656061109 
1455	 0.386414772294797 
1456	 0.386642596059401 
1457	 0.386939641922741 
1458	 0.387064234215077 
1459	 0.387126285642702 
1460	 0.387174622651493 
1461	 0.387108248910498 
1462	 0.387092140364264 
1463	 0.387080102648829 
1464	 0.387099343000784 
1465	 0.387067157896162 
1466	 0.387157130712847 
1467	 0.387465060150795 
1468	 0.387555958980373 
1469	 0.387510503922522 
1470	 0.387620526899472 
1471	 0.387612237114258 
1472	 0.387777157179451 
1473	 0.388108660573833 
1474	 0.388469469288736 
1475	 0.388968281142019 
1476	 0.389308385598688 
1477	 0.389657142995718 
1478	 0.389965077721255 
1479	 0.390113205300657 
1480	 0.390329469649853 
1481	 0.390498136254653 
1482	 0.39082960636138 
1483	 0.39129041002807 
1484	 0.391666336578575 
1485	 0.392192593295469 
1486	 0.392533276912981 
1487	 0.392595140201263 
1488	 0.392827207191333 
1489	 0.393252582001984 
1490	 0.39357165366248 
1491	 0.394017129121737 
1492	 0.394460142093165 
1493	 0.394690824040404 
1494	 0.394967080634391 
1495	 0.395200836630621 
1496	 0.395454521791274 
1497	 0.395591988242667 
1498	 0.395637691489731 
1499	 0.39576775782941 
1500	 0.395864608693636 
1501	 0.396000718524929 
1502	 0.396198930076176 
1503	 0.396383227812213 
1504	 0.396548674563286 
1505	 0.396733871506435 
1506	 0.396959346125246 
1507	 0.397150580252908 
1508	 0.39730795704219 
1509	 0.397502816061547 
1510	 0.397723816473524 
1511	 0.397915679116664 
1512	 0.398136857695078 
1513	 0.398291347307834 
1514	 0.398384170468942 
1515	 0.398510943966519 
1516	 0.39860963865628 
1517	 0.39873973838394 
1518	 0.398908809524825 
1519	 0.399053664256665 
1520	 0.399171050252943 
1521	 0.39933764970828 
1522	 0.39957878584548 
1523	 0.399705018862112 
1524	 0.39980811709953 
1525	 0.399894044010557 
1526	 0.399820633435659 
1527	 0.399912700667744 
1528	 0.400140663638189 
1529	 0.400283558897956 
1530	 0.400467816426232 
1531	 0.400605257097128 
1532	 0.400677498631214 
1533	 0.400748022669042 
1534	 0.40083460331506 
1535	 0.400881273352289 
1536	 0.400832570035272 
1537	 0.400871600346722 
1538	 0.400933140651748 
1539	 0.401005291985141 
1540	 0.40116009854265 
1541	 0.40126296152952 
1542	 0.401347477873371 
1543	 0.401414680425587 
1544	 0.401463789879268 
1545	 0.401496703774002 
1546	 0.401482602554304 
1547	 0.401504294351202 
1548	 0.401496677852607 
1549	 0.401549350552103 
1550	 0.401691753146779 
1551	 0.401783640425234 
1552	 0.4018826148366 
1553	 0.401982935773104 
1554	 0.402094068862134 
1555	 0.402141305402399 
1556	 0.402108317526649 
1557	 0.402152230516747 
1558	 0.4021727697355 
1559	 0.402221429472431 
1560	 0.402390846198425 
1561	 0.402503845829337 
1562	 0.402597487684327 
1563	 0.4026573207121 
1564	 0.40262077144597 
1565	 0.402678308543046 
1566	 0.402757371486505 
1567	 0.402795462689167 
1568	 0.40294526427706 
1569	 0.403224439331395 
1570	 0.403337518485835 
1571	 0.403426844768453 
1572	 0.403511004801758 
1573	 0.403522458242127 
1574	 0.403547178396909 
1575	 0.403573099044952 
1576	 0.403653939890255 
1577	 0.40374758536532 
1578	 0.403743545261637 
1579	 0.403757984589743 
1580	 0.403761081135048 
1581	 0.403642747432213 
1582	 0.40363046008392 
1583	 0.403693564131603 
1584	 0.403780576862051 
1585	 0.403842901375175 
1586	 0.404008045657956 
1587	 0.404361916247414 
1588	 0.404431452848894 
1589	 0.404392219947316 
1590	 0.404434655389377 
1591	 0.404338734232852 
1592	 0.404403335956322 
1593	 0.404626841271087 
1594	 0.404737297528834 
1595	 0.404862643448168 
1596	 0.40485346638297 
1597	 0.404723093001181 
1598	 0.404766438588352 
1599	 0.404777531148672 
1600	 0.404852450329477 
1601	 0.405102857975605 
1602	 0.405208048645324 
1603	 0.405221512949024 
1604	 0.405293407238582 
1605	 0.40540145223515 
1606	 0.405436548187811 
1607	 0.405442978040165 
1608	 0.405431970539835 
1609	 0.405339992960855 
1610	 0.405367907011363 
1611	 0.405438362395679 
1612	 0.40549758779235 
1613	 0.405648724999057 
1614	 0.405673709566433 
1615	 0.405597899661856 
1616	 0.405631035840551 
1617	 0.405671877428862 
1618	 0.405686724860262 
1619	 0.405752822290898 
1620	 0.405788354026842 
1621	 0.405741964164409 
1622	 0.405807609955468 
1623	 0.405982442356621 
1624	 0.406018626422127 
1625	 0.406013594356005 
1626	 0.406037818553542 
1627	 0.406000396733965 
1628	 0.406016863959669 
1629	 0.406079613208987 
1630	 0.406165029329019 
1631	 0.406260482959627 
1632	 0.406330438426501 
1633	 0.406479147466946 
1634	 0.406496865002102 
1635	 0.406397199204904 
1636	 0.40639277395063 
1637	 0.406348272288132 
1638	 0.406367658144555 
1639	 0.406442941138516 
1640	 0.406544463101381 
1641	 0.406682652269372 
1642	 0.406856262206214 
1643	 0.407122201680436 
1644	 0.407223150649488 
1645	 0.407265210547528 
1646	 0.407332232029235 
1647	 0.407312502307011 
1648	 0.407361582189034 
1649	 0.407463306094661 
1650	 0.407554756936568 
1651	 0.407613712172211 
1652	 0.407749548695324 
1653	 0.407961709819775 
1654	 0.408136939468654 
1655	 0.40837260134313 
1656	 0.408405028084336 
1657	 0.408318167377311 
1658	 0.408255913140205 
1659	 0.408276647016919 
1660	 0.408288250707088 
1661	 0.408308857898739 
1662	 0.40823089597375 
1663	 0.408172403230908 
1664	 0.408295048226965 
1665	 0.408378568468095 
1666	 0.40847599324167 
1667	 0.40856702752799 
1668	 0.408575340759151 
1669	 0.408659874540298 
1670	 0.408582667334005 
1671	 0.408403169281056 
1672	 0.408301294333829 
1673	 0.408248273172439 
1674	 0.408519613195385 
1675	 0.4087626234351 
1676	 0.408788905073642 
1677	 0.408867276803666 
1678	 0.408827386693446 
1679	 0.408731511578117 
1680	 0.408693282763809 
1681	 0.408683577858042 
1682	 0.408631515432191 
1683	 0.408603055526612 
1684	 0.4086884166987 
1685	 0.408722604374925 
1686	 0.408864606656878 
1687	 0.409041615702111 
1688	 0.409180495449722 
1689	 0.409459967164907 
1690	 0.409449239327416 
1691	 0.409534091658128 
1692	 0.409646190644335 
1693	 0.409728471733277 
1694	 0.409825372691303 
1695	 0.409967304158127 
1696	 0.410123975298348 
1697	 0.410293864194907 
1698	 0.410591109121628 
1699	 0.410719976799418 
1700	 0.4107161581733 
1701	 0.410755287771416 
1702	 0.410686872248668 
1703	 0.41070263292288 
1704	 0.410799732756931 
1705	 0.410887883536433 
1706	 0.411013154974663 
1707	 0.411111480629423 
1708	 0.411243120487104 
1709	 0.411274082769606 
1710	 0.411243637350261 
1711	 0.411162810160027 
1712	 0.410964654171443 
1713	 0.41085931440151 
1714	 0.410670905945434 
1715	 0.410670074244383 
1716	 0.410872932978915 
1717	 0.410953626086834 
1718	 0.411085381754672 
1719	 0.411204541357631 
1720	 0.41130098131864 
1721	 0.411292947048194 
1722	 0.41125636890179 
1723	 0.411237484528485 
1724	 0.411080778549828 
1725	 0.410992739758556 
1726	 0.411027349263252 
1727	 0.410999232539442 
1728	 0.410937413303165 
1729	 0.410776650870563 
1730	 0.41048314422073 
1731	 0.410464140831492 
1732	 0.410435663878231 
1733	 0.410457000195801 
1734	 0.41070831081871 
1735	 0.410629572385812 
1736	 0.410618940743458 
1737	 0.410803515227849 
1738	 0.410731823174413 
1739	 0.410770373755917 
1740	 0.410770165905743 
1741	 0.410603821635115 
1742	 0.410591734672904 
1743	 0.410366065165228 
1744	 0.410207540546455 
1745	 0.410327196412185 
1746	 0.410261329041258 
1747	 0.410521733301543 
1748	 0.410650749005628 
1749	 0.410602752670803 
1750	 0.410722887614389 
1751	 0.410448219925719 
1752	 0.410365552348636 
1753	 0.410486725748623 
1754	 0.410380876262624 
1755	 0.410263375995691 
1756	 0.410284073872767 
1757	 0.410018057798845 
1758	 0.409995695664874 
1759	 0.410312402172592 
1760	 0.410364721649904 
1761	 0.41043402037179 
1762	 0.410489511808636 
1763	 0.410336449935456 
1764	 0.410273895863772 
1765	 0.410219617728137 
1766	 0.410190445402226 
1767	 0.410240428457409 
1768	 0.410271813377082 
1769	 0.410419492182741 
1770	 0.410340345381297 
1771	 0.410095251362597 
1772	 0.409918900771652 
1773	 0.409583224936813 
1774	 0.409467006897461 
1775	 0.409405409503954 
1776	 0.409348634308103 
1777	 0.409205126421682 
1778	 0.4091370007812 
1779	 0.409068725499391 
1780	 0.408985068190367 
1781	 0.408991857935145 
1782	 0.409024543035377 
1783	 0.408973162706758 
1784	 0.408655996007306 
1785	 0.408701334403245 
1786	 0.408874447514982 
1787	 0.408931637470637 
1788	 0.409478795447657 
1789	 0.409627323621368 
1790	 0.409134241414862 
1791	 0.408706647519559 
1792	 0.408306820660532 
1793	 0.408320278416087 
1794	 0.408742222974545 
1795	 0.408820901323745 
1796	 0.408587450987122 
1797	 0.407916489243301 
1798	 0.407379638783948 
1799	 0.407997731562695 
1800	 0.408089294919428 
1801	 0.402497683633554 
1802	 0.40107658655302 
1803	 0.400861165981116 
1804	 0.400362814847474 
1805	 0.39955254738754 
1806	 0.399900866757461 
1807	 0.399605048340356 
1808	 0.397799429760733 
1809	 0.395600473539896 
1810	 0.395435716795896 
1811	 0.397823114316209 
1812	 0.397644987256566 
1813	 0.397027039533366 
1814	 0.396920460664712 
1815	 0.395492368281511 
1816	 0.394392489169999 
1817	 0.395689891808643 
1818	 0.395185463963548 
1819	 0.393494457295092 
1820	 0.388542230833865 
1821	 0.385937015829244 
1822	 0.382112600790501 
1823	 0.380741412443968 
1824	 0.38234872853302 
1825	 0.383511896481226 
1826	 0.388786048195635 
1827	 0.392168878980946 
1828	 0.395404149990843 
1829	 0.401208391337953 
1830	 0.398330711682673 
1831	 0.382397158428093 
1832	 0.369616958118791 
1833	 0.338028779550906 
1834	 0.310097831266826 
1835	 0.292586380755131 
1836	 0.270905421991315 
1837	 0.26685581236461 
1838	 0.255513505204641 
1839	 0.250158418602114 
1840	 0.24565095862169 
1841	 0.283920796078621 
1842	 0.351987949722757 
1843	 0.379282634904621 
1844	 0.435543074686143 
1845	 0.455219178197776 
1846	 0.427039944378867 
1847	 0.41714665974421 
1848	 0.406972731342213 
1849	 0.392142537001978 
1850	 0.38617338882122 
1851	 0.399874640524665 
1852	 0.383281349951802 
1853	 0.349111190636441 
1854	 0.337228207518846 
1855	 0.323276573853414 
1856	 0.306527533335104 
1857	 0.276113048513369 
1858	 0.294992338650526 
1859	 0.30514301062159 
1860	 0.31356617197365 
1861	 0.328101153693548 
1862	 0.360738270420968 
1863	 0.377805509344278 
1864	 0.409872148335441 
1865	 0.4127042790908 
1866	 0.363839533124429 
1867	 0.382476157523782 
1868	 0.396876204170584 
1869	 0.322012548709093 
1870	 0.30354171284861 
1871	 0.316796397479225 
1872	 0.310475283663277 
1873	 0.283618792016787 
1874	 0.29909834638144 
1875	 0.333191990643104 
1876	 0.347463264080334 
1877	 0.358832747482108 
1878	 0.376882146526319 
1879	 0.381828574656442 
1880	 0.384211892000488 
1881	 0.385676048965032 
1882	 0.383499217134665 
1883	 0.388810987246383 
1884	 0.399460501796389 
1885	 0.402581962578842 
1886	 0.40846605429931 
1887	 0.410797158100364 
1888	 0.407285576037235 
1889	 0.406773217632646 
1890	 0.398827562461474 
1891	 0.382691062422947 
1892	 0.37906703438514 
1893	 0.37388069775075 
1894	 0.369569291765854 
1895	 0.381822941890197 
1896	 0.382241097873896 
1897	 0.37353011211259 
1898	 0.35572150985833 
1899	 0.344742373026396 
1900	 0.33529251578606 
1901	 0.334232442470772 
1902	 0.362601447945648 
1903	 0.367407134518746 
1904	 0.359097582656007 
1905	 0.360704964429508 
1906	 0.355291548371202 
1907	 0.346285369931142 
1908	 0.36154652151579 
1909	 0.382766358757321 
1910	 0.398632872604612 
1911	 0.383322628026596 
1912	 0.374302862630226 
1913	 0.355444797523511 
1914	 0.354136460478958 
1915	 0.356582523632767 
1916	 0.358672128093937 
1917	 0.363301986106394 
1918	 0.37166957538569 
1919	 0.366801908173124 
1920	 0.361311541665875 
1921	 0.355181930254432 
1922	 0.344976059182548 
1923	 0.34293904935088 
1924	 0.342685745197142 
1925	 0.346625201497352 
1926	 0.356934697876673 
1927	 0.363068431126791 
1928	 0.371012896073209 
1929	 0.376393418115507 
1930	 0.37711661776163 
1931	 0.379564513732386 
1932	 0.380016059775602 
1933	 0.380048229397998 
1934	 0.382230374251342 
1935	 0.386477009758349 
1936	 0.387323801588644 
1937	 0.388184723127182 
1938	 0.389009578685771 
1939	 0.388726579344586 
1940	 0.38711641481636 
1941	 0.38786715926204 
1942	 0.388837535746193 
1943	 0.390080525042799 
1944	 0.390393706101779 
1945	 0.390992999291254 
1946	 0.391856005705331 
1947	 0.392064437534856 
1948	 0.39230692443522 
1949	 0.391800299056174 
1950	 0.390671468901987 
1951	 0.389100982190809 
1952	 0.387838024832552 
1953	 0.388363601214214 
1954	 0.389342084328653 
1955	 0.39041226435822 
1956	 0.391586604700098 
1957	 0.391617176698938 
1958	 0.392565797432562 
1959	 0.393957869032981 
1960	 0.394973224477674 
1961	 0.395947019980026 
1962	 0.397246306080676 
1963	 0.397920014102415 
1964	 0.398733686077621 
1965	 0.399237893750822 
1966	 0.39988934803768 
1967	 0.400513322155342 
1968	 0.400824535083672 
1969	 0.401022442766038 
1970	 0.400993009714937 
1971	 0.401239558025298 
1972	 0.401410551654169 
1973	 0.401640300654849 
1974	 0.402427713272394 
1975	 0.403101118880612 
1976	 0.403518185719365 
1977	 0.403778081772421 
1978	 0.403898310159498 
1979	 0.404151720139038 
1980	 0.40389802708719 
1981	 0.404150744481071 
1982	 0.404447731960198 
1983	 0.404900227088856 
1984	 0.404804373504565 
1985	 0.405532342838077 
1986	 0.405989655422348 
1987	 0.405646911883161 
1988	 0.4055690451069 
1989	 0.405263884061153 
1990	 0.404794447202737 
1991	 0.405162036260793 
1992	 0.406053772386529 
1993	 0.406301390125286 
1994	 0.406292920398684 
1995	 0.406376670380142 
1996	 0.406098758164019 
1997	 0.405443224454258 
1998	 0.405851603459487 
1999	 0.407131876647335 
2000	 0.40815594993232 
2001	 0.409748906263024 
2002	 0.41117828871284 
2003	 0.411062818423264 
2004	 0.411233369782537 
2005	 0.411244192763471 
2006	 0.411717271309774 
2007	 0.412028363864613 
2008	 0.413765345411459 
2009	 0.415300933285608 
2010	 0.416503825523226 
2011	 0.417030857178473 
2012	 0.416877161582121 
2013	 0.416378897510288 
2014	 0.415609653263256 
2015	 0.415113544208623 
2016	 0.415151549131069 
2017	 0.41559232800522 
2018	 0.416076327098789 
2019	 0.416579601747091 
2020	 0.417242372352809 
2021	 0.417775836527935 
2022	 0.418161223091404 
2023	 0.418255877404955 
2024	 0.418505445242342 
2025	 0.418729871374737 
2026	 0.418518871132371 
2027	 0.418686113342665 
2028	 0.418695003848518 
2029	 0.418588424830029 
2030	 0.418822895344107 
2031	 0.418895145426174 
2032	 0.418994776801008 
2033	 0.419103509922027 
2034	 0.419354814382116 
2035	 0.419647591245736 
2036	 0.41988558418037 
2037	 0.420253476241391 
2038	 0.420522991035828 
2039	 0.420599793243589 
2040	 0.42076980872121 
2041	 0.420603504449603 
2042	 0.420302312586463 
2043	 0.419948921883808 
2044	 0.419420674173922 
2045	 0.419349733752049 
2046	 0.419679847011743 
2047	 0.420183196085964 
2048	 0.420462933279836 
2049	 0.42097260291303 
2050	 0.42115711468494 
2051	 0.421037319538741 
2052	 0.421600438229742 
2053	 0.422367459166078 
2054	 0.423149195609793 
2055	 0.423858223081586 
2056	 0.423623351419621 
2057	 0.42351711308085 
2058	 0.423565471552623 
2059	 0.423575514453779 
2060	 0.423618390539208 
2061	 0.4242277364863 
2062	 0.424270447917095 
2063	 0.424070846396584 
2064	 0.42397464008938 
2065	 0.423750807866141 
2066	 0.423747992449246 
2067	 0.423914977429142 
2068	 0.42406241646218 
2069	 0.424099502496149 
2070	 0.4242621167667 
2071	 0.424696943204814 
2072	 0.424976416701939 
2073	 0.425294015794724 
2074	 0.425599461040223 
2075	 0.425678875717946 
2076	 0.425514635358595 
2077	 0.425393913516132 
2078	 0.425542459261451 
2079	 0.425755128004105 
2080	 0.425390445143755 
2081	 0.425374323184553 
2082	 0.425571250290978 
2083	 0.425263317920244 
2084	 0.425026422756349 
2085	 0.424919383354331 
2086	 0.424900543463755 
2087	 0.42499649934349 
2088	 0.425287970804127 
2089	 0.426135386407704 
2090	 0.426333831919502 
2091	 0.425868599285418 
2092	 0.42596136361761 
2093	 0.425881789855662 
2094	 0.426024714360097 
2095	 0.426566305250229 
2096	 0.426998668714963 
2097	 0.42753584650806 
2098	 0.427818733212422 
2099	 0.427968555377706 
2100	 0.428061215193484 
2101	 0.428080489711904 
2102	 0.428034582435055 
2103	 0.427940458988595 
2104	 0.428008324784059 
2105	 0.428225508204997 
2106	 0.428299522309382 
2107	 0.428719929139008 
2108	 0.429018158696751 
2109	 0.428948841567881 
2110	 0.429049721646014 
2111	 0.429308255336531 
2112	 0.429771385536001 
2113	 0.43009345500783 
2114	 0.430397387561678 
2115	 0.430369810837341 
2116	 0.430121680225313 
2117	 0.43020452110241 
2118	 0.430713920905789 
2119	 0.430754774293842 
2120	 0.430614373135526 
2121	 0.430612234989474 
2122	 0.430816313853306 
2123	 0.431140651421884 
2124	 0.431543851245861 
2125	 0.431873833450254 
2126	 0.432376570364997 
2127	 0.432110442777081 
2128	 0.431661897015633 
2129	 0.432154897125379 
2130	 0.432094023184872 
2131	 0.432072275020316 
2132	 0.432752230622603 
2133	 0.432957979481094 
2134	 0.433140111045905 
2135	 0.433193917949302 
2136	 0.433648183357116 
2137	 0.433424902077574 
2138	 0.432846597299575 
2139	 0.432880546039237 
2140	 0.432528137536301 
2141	 0.432107041384584 
2142	 0.432173784835949 
2143	 0.431958238307998 
2144	 0.431632806830234 
2145	 0.431294791388336 
2146	 0.431710950056672 
2147	 0.432133622465287 
2148	 0.431836004316838 
2149	 0.432230647458405 
2150	 0.432421957413233 
2151	 0.432373502486384 
2152	 0.432305408751199 
2153	 0.432176077676386 
2154	 0.431869177914238 
2155	 0.431243940134887 
2156	 0.430751304254478 
2157	 0.429885229110686 
2158	 0.429001231600264 
2159	 0.428749839786398 
2160	 0.428168483873355 
2161	 0.427991406991062 
2162	 0.428193082830852 
2163	 0.427826196528353 
2164	 0.427825182500371 
2165	 0.427946556053519 
2166	 0.427754789488636 
2167	 0.427815864011473 
2168	 0.427538657163073 
2169	 0.426726745036013 
2170	 0.426353996906418 
2171	 0.42620159318058 
2172	 0.425621170540672 
2173	 0.425042853539362 
2174	 0.425129468938834 
2175	 0.424634667221761 
2176	 0.423914133688043 
2177	 0.423820350661863 
2178	 0.423472296517345 
2179	 0.422873052399628 
2180	 0.422416078459238 
2181	 0.421703696050309 
2182	 0.421234825525784 
2183	 0.42111439927363 
2184	 0.421165295803718 
2185	 0.421492022107026 
2186	 0.421659401474954 
2187	 0.421685129254484 
2188	 0.421786377116867 
2189	 0.421406276674599 
2190	 0.420704524646892 
2191	 0.419839646178322 
2192	 0.419079744905301 
2193	 0.418569062253124 
2194	 0.418278431818889 
2195	 0.418356031814929 
2196	 0.418347956023314 
2197	 0.41850366926063 
2198	 0.419082411776629 
2199	 0.419541559252529 
2200	 0.419786916091309 
2201	 0.419366922966811 
2202	 0.419130730701825 
2203	 0.41853837133485 
2204	 0.417461251942357 
2205	 0.417471723836361 
2206	 0.417090325970828 
2207	 0.416365752561129 
2208	 0.416156848579037 
2209	 0.416587449955341 
2210	 0.416272786415008 
2211	 0.415644926618088 
2212	 0.415685251939601 
2213	 0.415197857628195 
2214	 0.414530950352223 
2215	 0.414563173786092 
2216	 0.414445113588162 
2217	 0.414635846030752 
2218	 0.415044070870022 
2219	 0.415548497274775 
2220	 0.416345967670483 
2221	 0.416697073931333 
2222	 0.416780416016126 
2223	 0.416687153341057 
2224	 0.416563018780326 
2225	 0.416340843937382 
2226	 0.416394088916857 
2227	 0.41686738173186 
2228	 0.416889030276496 
2229	 0.417258558343399 
2230	 0.417483894022551 
2231	 0.417255140277942 
2232	 0.416174565081985 
2233	 0.415996846461672 
2234	 0.415786799315294 
2235	 0.416214607621787 
2236	 0.416805217558154 
2237	 0.417505064793958 
2238	 0.417990733883392 
2239	 0.417382030374149 
2240	 0.417447367908143 
2241	 0.417136689919478 
2242	 0.41643805388731 
2243	 0.416952708967888 
2244	 0.41653057449895 
2245	 0.416639526261756 
2246	 0.417466623037824 
2247	 0.416841494194769 
2248	 0.416840161515016 
2249	 0.417634218587486 
2250	 0.4180206051495 
2251	 0.418241133593352 
2252	 0.418676571164778 
2253	 0.418702392159672 
2254	 0.418397154619599 
2255	 0.418504798889245 
2256	 0.418132304344884 
2257	 0.41733632238398 
2258	 0.417076517969382 
2259	 0.417361571599145 
2260	 0.416904073131954 
2261	 0.417666802584952 
2262	 0.418168684196445 
2263	 0.417761732678115 
2264	 0.417991779901049 
2265	 0.418342207733681 
2266	 0.418939920877416 
2267	 0.418683065351441 
2268	 0.418238390514638 
2269	 0.418513463180893 
2270	 0.418580112922218 
2271	 0.418888973091668 
2272	 0.419378998977438 
2273	 0.419358496194435 
2274	 0.419066053207196 
2275	 0.419206104441744 
2276	 0.419066626494741 
2277	 0.41870825422769 
2278	 0.418505931793757 
2279	 0.417977656762509 
2280	 0.418386788870083 
2281	 0.419128084377902 
2282	 0.419187103496682 
2283	 0.419427425888791 
2284	 0.419271411988543 
2285	 0.419212101496408 
2286	 0.418985858883427 
2287	 0.418936805520231 
2288	 0.418126824746947 
2289	 0.417231916744679 
2290	 0.415921429134147 
2291	 0.415471400008648 
2292	 0.41581903258037 
2293	 0.415303301199674 
2294	 0.41509752729854 
2295	 0.415120111948243 
2296	 0.414965885457775 
2297	 0.415327585348904 
2298	 0.416570674025144 
2299	 0.417756166371897 
2300	 0.417905922226833 
2301	 0.417899972316383 
2302	 0.417550520106016 
2303	 0.416016655871194 
2304	 0.414748400535708 
2305	 0.41467662500022 
2306	 0.414485136406631 
2307	 0.414715441906357 
2308	 0.41553668647658 
2309	 0.416599354104252 
2310	 0.417472511019758 
2311	 0.417798752378354 
2312	 0.417752867935701 
2313	 0.4153662844908 
2314	 0.413304223822246 
2315	 0.413738018410345 
2316	 0.414612728934099 
2317	 0.416952854362588 
2318	 0.42006061032472 
2319	 0.421199395014723 
2320	 0.420517261499127 
2321	 0.420265823482546 
2322	 0.418807738209809 
2323	 0.418335660886115 
2324	 0.417746499352142 
2325	 0.419814733522493 
2326	 0.421918211092644 
2327	 0.423414073156447 
2328	 0.424684191832468 
2329	 0.424652772966389 
2330	 0.423599010481406 
2331	 0.422299026722409 
2332	 0.422763482384993 
2333	 0.422705581121865 
2334	 0.422100099685721 
2335	 0.423737886655699 
2336	 0.423705515746464 
2337	 0.42213950147915 
2338	 0.421755265991612 
2339	 0.421236083806096 
2340	 0.420401893959006 
2341	 0.421429304252194 
2342	 0.423570995133028 
2343	 0.425491724969837 
2344	 0.428623045982225 
2345	 0.431447967742113 
2346	 0.433125690997156 
2347	 0.433501832470864 
2348	 0.431769202197801 
2349	 0.429808653256955 
2350	 0.430046011044296 
2351	 0.428193982408708 
2352	 0.42589772679466 
2353	 0.427639256686573 
2354	 0.425429970869526 
2355	 0.423651176227448 
2356	 0.425378556593566 
2357	 0.423569371001443 
2358	 0.422233371299054 
2359	 0.422127443192145 
2360	 0.420945619516995 
2361	 0.420768956648019 
2362	 0.422087172677047 
2363	 0.422973613916214 
2364	 0.423151387092859 
2365	 0.42451995995094 
2366	 0.425416323641387 
2367	 0.423994734114022 
2368	 0.423685023688248 
2369	 0.424545345882903 
2370	 0.423126045466019 
2371	 0.423330420313347 
2372	 0.424465896900665 
2373	 0.426437417500932 
2374	 0.426847214775515 
2375	 0.427690121841644 
2376	 0.427541173431791 
2377	 0.426776356873567 
2378	 0.425473116613387 
2379	 0.422963535594765 
2380	 0.422448009118702 
2381	 0.421229410830884 
2382	 0.420823477443298 
2383	 0.423060839289066 
2384	 0.423929175740592 
2385	 0.424913477257485 
2386	 0.423541386313402 
2387	 0.419343871628785 
2388	 0.418617993490331 
2389	 0.418233021220172 
2390	 0.418827672106631 
2391	 0.422142835407106 
2392	 0.423371685600348 
2393	 0.423857223267251 
2394	 0.42368506559735 
2395	 0.423419413708902 
2396	 0.423844116211081 
2397	 0.424269004562929 
2398	 0.42345160424352 
2399	 0.421076384406669 
2400	 0.420612886832342 
2401	 0.420298062488391 
2402	 0.419070768934931 
2403	 0.42085175904484 
2404	 0.423661505777128 
2405	 0.422564610725717 
2406	 0.421475144412977 
2407	 0.42056640702993 
2408	 0.417681131651323 
2409	 0.418555318883469 
2410	 0.41641966054383 
2411	 0.412895628396274 
2412	 0.411606994545259 
2413	 0.407105778023116 
2414	 0.409103869038973 
2415	 0.409476606762554 
2416	 0.409174416681365 
2417	 0.413879697625306 
2418	 0.413776147723744 
2419	 0.420894363667654 
2420	 0.426568572449902 
2421	 0.421173197451149 
2422	 0.418286090049949 
2423	 0.416088472038339 
2424	 0.413363848490418 
2425	 0.414864467179471 
2426	 0.416052910153898 
2427	 0.413249965223761 
2428	 0.409877677843884 
2429	 0.407355416421149 
2430	 0.404664546822785 
2431	 0.402129755631307 
2432	 0.401656223374082 
2433	 0.401909931488075 
2434	 0.402902543594892 
2435	 0.40449484494517 
2436	 0.408087812909375 
2437	 0.417583216797054 
2438	 0.42002910750255 
2439	 0.418641518236876 
2440	 0.41884090866928 
2441	 0.414370881177336 
2442	 0.410171488840505 
2443	 0.41004246834852 
2444	 0.407015171780501 
2445	 0.396898692811115 
2446	 0.392714768620523 
2447	 0.391717755960391 
2448	 0.391557584912192 
2449	 0.393107542507028 
2450	 0.394282784251623 
2451	 0.397377343111111 
2452	 0.398887539364773 
2453	 0.402516587008069 
2454	 0.40644454309055 
2455	 0.409861117402087 
2456	 0.409429602206809 
2457	 0.406130766763975 
2458	 0.405255507801265 
2459	 0.403923855494405 
2460	 0.402571194536489 
2461	 0.401087181151946 
2462	 0.398773779894778 
2463	 0.395289671587932 
2464	 0.393445506578989 
2465	 0.394456021068412 
2466	 0.393554244563683 
2467	 0.391551006773027 
2468	 0.387213595128685 
2469	 0.379116144347123 
2470	 0.379400594675042 
2471	 0.381028554502851 
2472	 0.383491831154258 
2473	 0.395363709904253 
2474	 0.398918491641071 
2475	 0.401798772335553 
2476	 0.396554870260899 
2477	 0.373688322262197 
2478	 0.379401180807672 
2479	 0.396284566404161 
2480	 0.403310567349483 
2481	 0.44203833178758 
2482	 0.444035968424835 
2483	 0.390974144356246 
2484	 0.382736660539557 
2485	 0.394772717557798 
2486	 0.386946233389881 
2487	 0.399384977132161 
2488	 0.352517409397065 
2489	 0.271747420680899 
2490	 0.241582835493562 
2491	 0.263247731644586 
2492	 0.308821016629308 
2493	 0.364215557443086 
2494	 0.413979431171278 
2495	 0.386833871920771 
2496	 0.359795334526167 
2497	 0.32171564749529 
2498	 0.258128706974489 
2499	 0.252404873724178 
2500	 0.283230792097062 
