Wavelength	ref00010.asd
350	 1.82172563112384E-02 
351	 1.79120432367574E-02 
352	 1.77047514055205E-02 
353	 1.78795316204054E-02 
354	 1.75854324197405E-02 
355	 0.017160982833401 
356	 1.70189629043898E-02 
357	 1.73036287399012E-02 
358	 0.017204324682669 
359	 1.71068362574098E-02 
360	 1.74651496755243E-02 
361	 1.73213546872213E-02 
362	 1.71221221159785E-02 
363	 1.71274740694849E-02 
364	 1.73407692323993E-02 
365	 1.68822530747903E-02 
366	 1.66970923140303E-02 
367	 1.69779232967027E-02 
368	 1.65818686216761E-02 
369	 1.65904067463225E-02 
370	 1.65466713169668E-02 
371	 1.61144729263384E-02 
372	 1.65159614006995E-02 
373	 1.65881803152528E-02 
374	 1.63578010181173E-02 
375	 1.64004479190375E-02 
376	 1.62919654480928E-02 
377	 1.62556124556955E-02 
378	 1.63837043570831E-02 
379	 0.016542836700482 
380	 1.63034286331087E-02 
381	 1.61684631416678E-02 
382	 1.64845391957751E-02 
383	 1.66381541028149E-02 
384	 1.66600145780369E-02 
385	 1.67986303892773E-02 
386	 1.72446263366976E-02 
387	 1.70994366732605E-02 
388	 1.69771720983128E-02 
389	 1.70445438952824E-02 
390	 1.69038365258283E-02 
391	 1.68797375348904E-02 
392	 1.69379713635485E-02 
393	 1.70126594643938E-02 
394	 1.71188195848392E-02 
395	 0.017301314409088 
396	 1.73840815138925E-02 
397	 1.72567180053163E-02 
398	 1.75388526947496E-02 
399	 1.76374853832852E-02 
400	 1.74734772005884E-02 
401	 1.74305876040201E-02 
402	 1.74687758998962E-02 
403	 0.017603004252594 
404	 1.78079615653624E-02 
405	 1.79857704036248E-02 
406	 1.80848561690889E-02 
407	 1.80998800750829E-02 
408	 0.018092608352361 
409	 1.83306037783672E-02 
410	 1.85110217784711E-02 
411	 1.86253617117133E-02 
412	 1.89123537551154E-02 
413	 1.89233311491985E-02 
414	 0.018833283825562 
415	 1.88692626879851E-02 
416	 1.91693253252626E-02 
417	 1.93903342244541E-02 
418	 1.95199438567243E-02 
419	 1.96552595347561E-02 
420	 1.97850020232922E-02 
421	 1.98761666353709E-02 
422	 1.99570837193446E-02 
423	 2.01023105863716E-02 
424	 2.01923005261944E-02 
425	 2.04057224062551E-02 
426	 2.07319589092431E-02 
427	 2.06134855291328E-02 
428	 2.07806162875585E-02 
429	 2.10190186292821E-02 
430	 2.09528731670034E-02 
431	 2.12343082529878E-02 
432	 2.15314435184998E-02 
433	 2.16445704109196E-02 
434	 2.15640590831782E-02 
435	 2.16091980606124E-02 
436	 2.17315078493428E-02 
437	 2.18651614929196E-02 
438	 2.20663176367368E-02 
439	 2.21692780810667E-02 
440	 2.22539248007476E-02 
441	 2.24480403754006E-02 
442	 2.26259749933629E-02 
443	 2.27619751994516E-02 
444	 2.28562101382775E-02 
445	 2.29300843171988E-02 
446	 2.30421332720404E-02 
447	 2.31964130186607E-02 
448	 2.33728663242318E-02 
449	 2.35281661660127E-02 
450	 2.36545664096209E-02 
451	 2.37681015605961E-02 
452	 2.38944521233137E-02 
453	 2.40371873232509E-02 
454	 2.41810869070243E-02 
455	 2.43057160904679E-02 
456	 0.024388625677098 
457	 2.45575801777261E-02 
458	 0.024681592256442 
459	 2.46789703026553E-02 
460	 2.47884743347594E-02 
461	 2.49210984309275E-02 
462	 2.49912453555706E-02 
463	 2.49494823205045E-02 
464	 2.50377741939195E-02 
465	 2.51663983828765E-02 
466	 0.02525725997355 
467	 2.53047068322741E-02 
468	 2.54032282645747E-02 
469	 2.54894979750912E-02 
470	 2.55036054870917E-02 
471	 0.025580549023058 
472	 2.56404076257945E-02 
473	 2.57122680970715E-02 
474	 2.58852704642338E-02 
475	 2.59975975929133E-02 
476	 2.60254414400215E-02 
477	 2.60260403371279E-02 
478	 0.02617330264126 
479	 2.62540174742202E-02 
480	 2.63297480807842E-02 
481	 2.64989223822721E-02 
482	 2.65424479253153E-02 
483	 2.65997502308422E-02 
484	 2.67249407279054E-02 
485	 0.026869403824119 
486	 2.70041900768637E-02 
487	 2.71357534941045E-02 
488	 2.72752317061142E-02 
489	 2.74175346761922E-02 
490	 2.76135181411703E-02 
491	 2.78359784635972E-02 
492	 2.80351625674777E-02 
493	 2.82477312305996E-02 
494	 2.84636014820422E-02 
495	 2.87200904919212E-02 
496	 2.91127747459492E-02 
497	 2.94093718148795E-02 
498	 2.97741591189143E-02 
499	 0.030341628853768 
500	 0.030817941574249 
501	 3.12785571806138E-02 
502	 3.18120833340549E-02 
503	 3.24883828587167E-02 
504	 0.033095242691955 
505	 3.37449878966999E-02 
506	 3.44956821938872E-02 
507	 3.52490096906483E-02 
508	 3.61052478438557E-02 
509	 3.70708712105697E-02 
510	 3.81270031957008E-02 
511	 3.92869927372686E-02 
512	 4.05167435014509E-02 
513	 4.17718918776862E-02 
514	 4.30197058849574E-02 
515	 4.44945027130806E-02 
516	 4.61237008040852E-02 
517	 4.77832510643103E-02 
518	 4.93821764545217E-02 
519	 5.11237982119447E-02 
520	 0.052981435164215 
521	 5.48318981242906E-02 
522	 5.65834955433216E-02 
523	 5.83357705530354E-02 
524	 6.01264366353385E-02 
525	 6.18873357060818E-02 
526	 6.36607128107804E-02 
527	 6.54498429398998E-02 
528	 6.72160751423907E-02 
529	 6.88104129013147E-02 
530	 7.03405978747162E-02 
531	 7.17536106348449E-02 
532	 7.29579362318965E-02 
533	 7.43232584365331E-02 
534	 7.56682539010902E-02 
535	 7.68352202395014E-02 
536	 0.077820151347168 
537	 0.078816352745606 
538	 7.97523872384893E-02 
539	 8.05289687760018E-02 
540	 8.13327906509049E-02 
541	 8.21785965269591E-02 
542	 8.29798989212101E-02 
543	 8.35905567562849E-02 
544	 8.42675487960811E-02 
545	 8.49914372146402E-02 
546	 8.56907083222068E-02 
547	 8.62771099743365E-02 
548	 8.68772195450431E-02 
549	 8.74569439462878E-02 
550	 8.79297092578486E-02 
551	 8.83386768710814E-02 
552	 8.87110536120146E-02 
553	 8.90168967098026E-02 
554	 8.91603384953778E-02 
555	 8.92144897686349E-02 
556	 8.91819666438357E-02 
557	 8.90668330488846E-02 
558	 0.088940811715635 
559	 8.87439332094392E-02 
560	 8.84008047223859E-02 
561	 8.78557785082237E-02 
562	 8.73217709921803E-02 
563	 8.67369256532973E-02 
564	 8.60483943540176E-02 
565	 8.52940995608727E-02 
566	 0.084421157825859 
567	 8.34926301723497E-02 
568	 8.25880862359959E-02 
569	 8.16711250808726E-02 
570	 8.06872544006623E-02 
571	 7.96228047715552E-02 
572	 7.85072347023803E-02 
573	 7.74506810856805E-02 
574	 7.65271281288662E-02 
575	 7.57215062178123E-02 
576	 0.074846767300181 
577	 7.40234670214423E-02 
578	 7.32755405712864E-02 
579	 7.25840090205724E-02 
580	 7.20021274306872E-02 
581	 7.13406598852044E-02 
582	 7.06090668344694E-02 
583	 7.00990813721429E-02 
584	 6.95671356161835E-02 
585	 6.90292517332584E-02 
586	 6.85506835654691E-02 
587	 6.81120041758835E-02 
588	 6.76750838446645E-02 
589	 0.067238507553682 
590	 6.68335366317522E-02 
591	 6.64063256480618E-02 
592	 6.60303981004402E-02 
593	 6.57431248214122E-02 
594	 6.55207898987643E-02 
595	 6.52943094397152E-02 
596	 6.50368683423966E-02 
597	 6.47616517058321E-02 
598	 6.45949180667493E-02 
599	 6.43812862672242E-02 
600	 0.064102841622856 
601	 6.38855702818802E-02 
602	 6.35984421117449E-02 
603	 6.32556089017672E-02 
604	 6.29099109665501E-02 
605	 6.26489461231182E-02 
606	 6.22504429295222E-02 
607	 6.17059319708104E-02 
608	 6.11355882009844E-02 
609	 6.06981298200943E-02 
610	 6.01899339152131E-02 
611	 5.95643843386701E-02 
612	 5.90375423994609E-02 
613	 5.84970825874813E-02 
614	 5.79200051650706E-02 
615	 5.73239669253948E-02 
616	 0.056786368665896 
617	 5.62203168071268E-02 
618	 5.56709645109614E-02 
619	 0.055256501808674 
620	 5.49300004644173E-02 
621	 5.45977546329592E-02 
622	 0.054239811686196 
623	 0.053986350753559 
624	 5.38161816093544E-02 
625	 5.36823903501788E-02 
626	 5.35445419317272E-02 
627	 5.34695767026514E-02 
628	 5.34516599240099E-02 
629	 5.34409338001962E-02 
630	 5.33543549806375E-02 
631	 5.32565850843621E-02 
632	 5.31287958501315E-02 
633	 0.052953175059823 
634	 5.27615749413006E-02 
635	 5.24647453702958E-02 
636	 5.20398450863233E-02 
637	 5.15088880707563E-02 
638	 5.09371433227152E-02 
639	 5.02348828391434E-02 
640	 0.049428059805241 
641	 4.87234274085895E-02 
642	 4.78553262644388E-02 
643	 4.69326787385801E-02 
644	 4.60876152706327E-02 
645	 4.52327652265654E-02 
646	 4.44569928293033E-02 
647	 4.37681284356445E-02 
648	 4.31301694416241E-02 
649	 4.26380813171491E-02 
650	 4.21723947003718E-02 
651	 4.17168276764881E-02 
652	 4.14352653165303E-02 
653	 4.12182851826166E-02 
654	 4.09911577584427E-02 
655	 4.07014756708088E-02 
656	 4.04045078272735E-02 
657	 3.99721149887165E-02 
658	 3.94754919374397E-02 
659	 3.90344634868685E-02 
660	 3.84315773988026E-02 
661	 0.037749661193834 
662	 3.71077719489253E-02 
663	 0.036581783326338 
664	 0.0360005425664 
665	 0.035424734870408 
666	 3.49603500507268E-02 
667	 3.45226541630284E-02 
668	 3.41106468133957E-02 
669	 3.37491189758429E-02 
670	 3.34744001520598E-02 
671	 3.32627198070722E-02 
672	 3.31542106941643E-02 
673	 3.31434574471155E-02 
674	 3.30906014892887E-02 
675	 3.30896901751816E-02 
676	 3.31325211309822E-02 
677	 3.31797218263082E-02 
678	 3.32371292926546E-02 
679	 3.33845108514709E-02 
680	 3.36482835401682E-02 
681	 0.033996369698201 
682	 3.45145373573306E-02 
683	 3.51704863948506E-02 
684	 3.59547800593197E-02 
685	 0.036966633533014 
686	 3.83059877994335E-02 
687	 4.00620302038216E-02 
688	 0.042134311030801 
689	 4.44764997058577E-02 
690	 0.047102350814008 
691	 5.01268669831462E-02 
692	 5.35577860031939E-02 
693	 5.75839825465933E-02 
694	 6.22040580797831E-02 
695	 6.73196503493546E-02 
696	 7.28175655673775E-02 
697	 7.85817306651925E-02 
698	 8.47027867435573E-02 
699	 9.12772020380146E-02 
700	 9.80262485980012E-02 
701	 0.104945889971136 
702	 0.111981365230402 
703	 0.118969615059725 
704	 0.125862151394066 
705	 0.132668578578976 
706	 0.139457185909578 
707	 0.146216579132041 
708	 0.152821927729929 
709	 0.159340728580188 
710	 0.165866808563138 
711	 0.172370752575576 
712	 0.178824483220791 
713	 0.185181734665208 
714	 0.191385596006375 
715	 0.19757468590328 
716	 0.203705599766542 
717	 0.209913222142248 
718	 0.216379759487202 
719	 0.222777069588706 
720	 0.228910167227611 
721	 0.234792718390311 
722	 0.240338208487548 
723	 0.245770033340959 
724	 0.251422520982097 
725	 0.257045619814263 
726	 0.262378795252156 
727	 0.267378551564535 
728	 0.272243216360152 
729	 0.277177083969946 
730	 0.281787576698195 
731	 0.2860504653952 
732	 0.290123603277164 
733	 0.294029448825769 
734	 0.2977018563626 
735	 0.301238394089414 
736	 0.304773598963504 
737	 0.308103352398549 
738	 0.311199584458024 
739	 0.314118041129442 
740	 0.316879166484795 
741	 0.319398179330469 
742	 0.321755484003261 
743	 0.324033865986973 
744	 0.326150792091347 
745	 0.328144480282967 
746	 0.329977218157211 
747	 0.33156724271471 
748	 0.333079643578259 
749	 0.33449407562552 
750	 0.33580974715595 
751	 0.337107858846895 
752	 0.338202861442791 
753	 0.339192932756099 
754	 0.340183513233294 
755	 0.340991814882822 
756	 0.341778941167706 
757	 0.34258700031652 
758	 0.343443168165571 
759	 0.344839402227099 
760	 0.346482319145057 
761	 0.347835883747357 
762	 0.348326237194256 
763	 0.3483077703415 
764	 0.3481877093362 
765	 0.348113586428772 
766	 0.34796335192626 
767	 0.348028587462845 
768	 0.348196071846522 
769	 0.348308934240224 
770	 0.348547977946628 
771	 0.348780226600979 
772	 0.348987221131557 
773	 0.349252307763527 
774	 0.349532535685833 
775	 0.349744074804818 
776	 0.349883459098456 
777	 0.350090146450347 
778	 0.350349973375782 
779	 0.350606340676462 
780	 0.350792485392118 
781	 0.350854627333306 
782	 0.351014827767024 
783	 0.351277271959339 
784	 0.351528218284263 
785	 0.351791567915959 
786	 0.351957528137982 
787	 0.352084077448527 
788	 0.352396484055299 
789	 0.352686464085697 
790	 0.352890760267053 
791	 0.353021945926033 
792	 0.353178543866373 
793	 0.353472732515213 
794	 0.353776946023763 
795	 0.353943047602586 
796	 0.354088902036704 
797	 0.354302303661693 
798	 0.354552277549385 
799	 0.354742984259204 
800	 0.354892290903618 
801	 0.355039018838485 
802	 0.35522060365173 
803	 0.35546271488408 
804	 0.355642604611073 
805	 0.3558360229972 
806	 0.356083561694645 
807	 0.356272748333512 
808	 0.356487349048529 
809	 0.356706236641392 
810	 0.356882864064071 
811	 0.35699718711428 
812	 0.357241804030891 
813	 0.357528258237307 
814	 0.357647673015602 
815	 0.357885408818063 
816	 0.358160045326801 
817	 0.35839469119422 
818	 0.358564900022555 
819	 0.35865652841574 
820	 0.358858060074542 
821	 0.359177503266778 
822	 0.359276284502974 
823	 0.359451477017936 
824	 0.359651758725572 
825	 0.359812184020154 
826	 0.360147629399732 
827	 0.360420482164171 
828	 0.360591347500053 
829	 0.360694992768649 
830	 0.360690127587393 
831	 0.360808258250819 
832	 0.361092327589191 
833	 0.361414864506622 
834	 0.361627305520135 
835	 0.361764396340776 
836	 0.361901428078181 
837	 0.362117227405946 
838	 0.362234893929461 
839	 0.362425398082833 
840	 0.362744865782087 
841	 0.362895342369261 
842	 0.363064151284989 
843	 0.363247491063604 
844	 0.363419063294344 
845	 0.363662640134793 
846	 0.363910413298048 
847	 0.364160552147139 
848	 0.364414714385839 
849	 0.364498552981222 
850	 0.364806758752837 
851	 0.36519078336705 
852	 0.365179013402621 
853	 0.365393160060911 
854	 0.365587929295663 
855	 0.365724942584923 
856	 0.366070456398054 
857	 0.366359721529877 
858	 0.36653840536018 
859	 0.366663872006563 
860	 0.366891790197011 
861	 0.367010614993628 
862	 0.367167603696721 
863	 0.367418756210817 
864	 0.367332242565252 
865	 0.367494183648851 
866	 0.367839895275207 
867	 0.368099712290123 
868	 0.368211315046598 
869	 0.368361659329818 
870	 0.368547813583203 
871	 0.368698087924303 
872	 0.368922558189879 
873	 0.369056798198861 
874	 0.369092848583534 
875	 0.369165051721277 
876	 0.369485725281113 
877	 0.369717509445656 
878	 0.369712319069489 
879	 0.369614796074955 
880	 0.369928667778789 
881	 0.370276726147869 
882	 0.37043452691228 
883	 0.370579009398139 
884	 0.370671415558751 
885	 0.370692181070429 
886	 0.370705367965937 
887	 0.370912643906285 
888	 0.371079567594955 
889	 0.371146951126401 
890	 0.371121193391188 
891	 0.371011917006703 
892	 0.371297528227302 
893	 0.37167685254661 
894	 0.371719404189865 
895	 0.371529062347226 
896	 0.3716283625465 
897	 0.371886173703218 
898	 0.371936052838865 
899	 0.371893115785298 
900	 0.372022987555182 
901	 0.37221060983924 
902	 0.372243353162312 
903	 0.372586834179583 
904	 0.372684174194115 
905	 0.372687065163211 
906	 0.373029439853205 
907	 0.372678040873343 
908	 0.372588672731154 
909	 0.372859136428135 
910	 0.372815826029218 
911	 0.372955356298006 
912	 0.373073669999669 
913	 0.373147433418311 
914	 0.373365948802628 
915	 0.373561469241062 
916	 0.373595872994046 
917	 0.373522095863772 
918	 0.373574201206527 
919	 0.373650581565223 
920	 0.373543921299117 
921	 0.373427664331272 
922	 0.37388422039275 
923	 0.374011187991401 
924	 0.373896773618063 
925	 0.373784392125061 
926	 0.373825654318195 
927	 0.372991259757874 
928	 0.372732645345847 
929	 0.373469605473362 
930	 0.372590730421853 
931	 0.372167858413901 
932	 0.37232518857648 
933	 0.372392077758647 
934	 0.371282323700146 
935	 0.37045982846355 
936	 0.370599870959332 
937	 0.3712905919882 
938	 0.370834444770021 
939	 0.37057373935142 
940	 0.370813996262411 
941	 0.371151224505631 
942	 0.370392295610429 
943	 0.36997171757618 
944	 0.369226601151631 
945	 0.368038750611174 
946	 0.368555994982193 
947	 0.368027421689089 
948	 0.36723109385225 
949	 0.367133697056125 
950	 0.367036306112848 
951	 0.365733280112539 
952	 0.364973715345874 
953	 0.365429675490317 
954	 0.36410283286934 
955	 0.364146206578814 
956	 0.364442485772059 
957	 0.363710970009045 
958	 0.362541079045474 
959	 0.361871778858916 
960	 0.361677697902578 
961	 0.361844676220733 
962	 0.362590547749224 
963	 0.362094943668023 
964	 0.361047967907838 
965	 0.360484235035705 
966	 0.3608556506297 
967	 0.361323329397102 
968	 0.361260756512968 
969	 0.360778766463161 
970	 0.360929015587239 
971	 0.360992369294464 
972	 0.361115223888331 
973	 0.361030904246202 
974	 0.359861371009894 
975	 0.360271797089143 
976	 0.360863033123077 
977	 0.360965424167873 
978	 0.361668952489508 
979	 0.360480083078872 
980	 0.359971784880268 
981	 0.360988532549997 
982	 0.36167186124812 
983	 0.361996564947479 
984	 0.36143489700941 
985	 0.360707765412291 
986	 0.36138592146595 
987	 0.362709930270188 
988	 0.362393856702713 
989	 0.361774608324126 
990	 0.364065227673756 
991	 0.365389894163332 
992	 0.365481721451686 
993	 0.36512424957068 
994	 0.365219659364328 
995	 0.364223626824046 
996	 0.365461699926333 
997	 0.366751878696529 
998	 0.365051123418397 
999	 0.366067304819978 
1000	 0.367365688645973 
1001	 0.365964052321584 
1002	 0.366214550767999 
1003	 0.366578866736044 
1004	 0.366928746687246 
1005	 0.367324605583742 
1006	 0.367873493819893 
1007	 0.368342194854899 
1008	 0.368736889071306 
1009	 0.369189046260214 
1010	 0.369714008468155 
1011	 0.370164711389257 
1012	 0.370519529571758 
1013	 0.370828273940092 
1014	 0.371110314241284 
1015	 0.371482103439943 
1016	 0.371977180774187 
1017	 0.372386257288015 
1018	 0.372770090843681 
1019	 0.373088805162864 
1020	 0.373484529750758 
1021	 0.373883405416809 
1022	 0.374338642340422 
1023	 0.374917557800486 
1024	 0.375322514239854 
1025	 0.375696771759125 
1026	 0.376184311311896 
1027	 0.37659289453004 
1028	 0.376993634455679 
1029	 0.377461816122737 
1030	 0.377866314625175 
1031	 0.3782202124809 
1032	 0.378575648368798 
1033	 0.378959885948684 
1034	 0.379312039940638 
1035	 0.379714880540899 
1036	 0.38025411563843 
1037	 0.380656682911157 
1038	 0.381020496372638 
1039	 0.381339950180583 
1040	 0.381641379502945 
1041	 0.381932306361884 
1042	 0.382314589609193 
1043	 0.382728217994875 
1044	 0.383079937007888 
1045	 0.383344495879576 
1046	 0.38352421220705 
1047	 0.38374553546641 
1048	 0.383971832743941 
1049	 0.384134393045466 
1050	 0.38438979233848 
1051	 0.384745613406234 
1052	 0.385032430903335 
1053	 0.385280322677611 
1054	 0.385621290749358 
1055	 0.385764896080476 
1056	 0.385867422441775 
1057	 0.386059090999083 
1058	 0.386270534559918 
1059	 0.386575495760433 
1060	 0.386827392408996 
1061	 0.387033385787727 
1062	 0.387250668551792 
1063	 0.387332085727051 
1064	 0.387388580093495 
1065	 0.387466704996165 
1066	 0.387513794207533 
1067	 0.387538401239528 
1068	 0.387708197729429 
1069	 0.387927074665757 
1070	 0.388138211937124 
1071	 0.388179786853331 
1072	 0.38809674471206 
1073	 0.388130979845917 
1074	 0.388193987623617 
1075	 0.388282714585441 
1076	 0.388432921331314 
1077	 0.388499455673186 
1078	 0.388441961457847 
1079	 0.388375742905514 
1080	 0.388378316723429 
1081	 0.388425968928281 
1082	 0.388493942870334 
1083	 0.38862453434007 
1084	 0.388796510435355 
1085	 0.388868602544727 
1086	 0.388823046705581 
1087	 0.388785271660974 
1088	 0.388777754392903 
1089	 0.38875201142964 
1090	 0.388773532787415 
1091	 0.388852188902969 
1092	 0.388855509664265 
1093	 0.388840836962787 
1094	 0.388899678082555 
1095	 0.388919863362169 
1096	 0.388862139832906 
1097	 0.388719981202585 
1098	 0.388668507663245 
1099	 0.388624924967032 
1100	 0.388458677241967 
1101	 0.388441123908175 
1102	 0.388529492772389 
1103	 0.388447177408108 
1104	 0.38836984799983 
1105	 0.388279673969014 
1106	 0.388120738384214 
1107	 0.388019388075333 
1108	 0.387985318180267 
1109	 0.387948985962881 
1110	 0.387751850839116 
1111	 0.387596899060529 
1112	 0.387338889753412 
1113	 0.387207607815189 
1114	 0.387230399954185 
1115	 0.387139063461576 
1116	 0.387069386761016 
1117	 0.386879099529518 
1118	 0.386589087372905 
1119	 0.38634278633708 
1120	 0.386153228702664 
1121	 0.385968042146366 
1122	 0.385677675370043 
1123	 0.385202410554733 
1124	 0.384781004627559 
1125	 0.384227634162846 
1126	 0.383556333269512 
1127	 0.382850911153768 
1128	 0.382141353687448 
1129	 0.381382642453057 
1130	 0.380492089634884 
1131	 0.379716964746268 
1132	 0.378681787670502 
1133	 0.377451357322721 
1134	 0.376180001150017 
1135	 0.374786385044378 
1136	 0.373494309347385 
1137	 0.372233993087588 
1138	 0.370776594143412 
1139	 0.369331897807097 
1140	 0.367683300503379 
1141	 0.365920233691511 
1142	 0.364276695885111 
1143	 0.362628550526259 
1144	 0.361093812650017 
1145	 0.359356739267486 
1146	 0.357486390172881 
1147	 0.355724461617747 
1148	 0.353896456384487 
1149	 0.352231322637997 
1150	 0.350790690385585 
1151	 0.349341604577578 
1152	 0.347949935175666 
1153	 0.346710871206012 
1154	 0.345506566424191 
1155	 0.344472538307616 
1156	 0.343701561512661 
1157	 0.342962892937999 
1158	 0.342375082231019 
1159	 0.341854421172781 
1160	 0.341300997019416 
1161	 0.340734670290371 
1162	 0.340239670315823 
1163	 0.339725739279696 
1164	 0.339295713119577 
1165	 0.338915131235711 
1166	 0.338561736132843 
1167	 0.338259458870504 
1168	 0.337974030889283 
1169	 0.337720503473835 
1170	 0.337454461356207 
1171	 0.337225754332516 
1172	 0.336970361424824 
1173	 0.336645500565196 
1174	 0.336362842938494 
1175	 0.336081970337684 
1176	 0.335797975951169 
1177	 0.33557490632625 
1178	 0.335451788255461 
1179	 0.335218406682714 
1180	 0.334955133245999 
1181	 0.334718260305289 
1182	 0.334453020191023 
1183	 0.33418867681097 
1184	 0.333926207827655 
1185	 0.333697561962832 
1186	 0.333466292219103 
1187	 0.333245349689175 
1188	 0.333053200518949 
1189	 0.332895388641935 
1190	 0.332698612047809 
1191	 0.33250686866911 
1192	 0.332389398717505 
1193	 0.332248855713777 
1194	 0.332155608112832 
1195	 0.332106643691206 
1196	 0.332033850938239 
1197	 0.331949936608997 
1198	 0.331924383974495 
1199	 0.33191721040611 
1200	 0.331934946507079 
1201	 0.331988545568691 
1202	 0.332077815223424 
1203	 0.332156858607803 
1204	 0.332315100294055 
1205	 0.33255120511191 
1206	 0.332803577577967 
1207	 0.333109318025067 
1208	 0.333415797497765 
1209	 0.333732800846622 
1210	 0.334089574380738 
1211	 0.334409061221973 
1212	 0.33478026215895 
1213	 0.335218204577756 
1214	 0.335698762005362 
1215	 0.336194146635166 
1216	 0.336785761253799 
1217	 0.337305700007062 
1218	 0.337784430947977 
1219	 0.338306505167125 
1220	 0.338820611794644 
1221	 0.339381292389152 
1222	 0.340032772153534 
1223	 0.34059502339949 
1224	 0.341146655754803 
1225	 0.341682369674284 
1226	 0.342114551559901 
1227	 0.342630303798347 
1228	 0.343195012828624 
1229	 0.343775852882357 
1230	 0.344357550525027 
1231	 0.344858004873812 
1232	 0.345335095761348 
1233	 0.345737130344204 
1234	 0.346193640832937 
1235	 0.346649160785783 
1236	 0.347107994324668 
1237	 0.347599673598079 
1238	 0.348038166612125 
1239	 0.348474905303118 
1240	 0.348849923148341 
1241	 0.349140110940283 
1242	 0.349492851062286 
1243	 0.349820924017884 
1244	 0.350179746530881 
1245	 0.350621415919918 
1246	 0.351000572140697 
1247	 0.351332058588907 
1248	 0.35168794836397 
1249	 0.352064385902552 
1250	 0.352393898904098 
1251	 0.352684487090218 
1252	 0.353031680733786 
1253	 0.353321765220342 
1254	 0.353560516495867 
1255	 0.353823617529423 
1256	 0.354093457847701 
1257	 0.35435254435117 
1258	 0.354610686215215 
1259	 0.354848047321068 
1260	 0.355080155976735 
1261	 0.355297881687301 
1262	 0.355471214824495 
1263	 0.355679709646113 
1264	 0.355933590970863 
1265	 0.356116839419311 
1266	 0.356268169090607 
1267	 0.356418883100408 
1268	 0.356573458927552 
1269	 0.356632118875557 
1270	 0.356615589662466 
1271	 0.356625646975113 
1272	 0.356575438089163 
1273	 0.356505895905485 
1274	 0.356444841876667 
1275	 0.356433852068634 
1276	 0.356356217049399 
1277	 0.356209160197029 
1278	 0.356114265277881 
1279	 0.356074031584243 
1280	 0.355919319370181 
1281	 0.35571241742177 
1282	 0.355518621608571 
1283	 0.355282235844813 
1284	 0.355017652619064 
1285	 0.35474718426039 
1286	 0.354473936318724 
1287	 0.354157537716134 
1288	 0.353832178867216 
1289	 0.353570622186366 
1290	 0.353203601268113 
1291	 0.35272611954976 
1292	 0.352275252702983 
1293	 0.351806159094105 
1294	 0.351295111966512 
1295	 0.350770993541708 
1296	 0.350204448813343 
1297	 0.349653924946564 
1298	 0.349069386976159 
1299	 0.348461990435226 
1300	 0.347888533910361 
1301	 0.347205879515808 
1302	 0.346426037731433 
1303	 0.345660242365471 
1304	 0.344840551311634 
1305	 0.344031727874742 
1306	 0.343196765469807 
1307	 0.342379845130809 
1308	 0.341634687235244 
1309	 0.34073744120448 
1310	 0.339795331156296 
1311	 0.338785298044 
1312	 0.337587655449217 
1313	 0.336473791744318 
1314	 0.335397844173075 
1315	 0.334268580482128 
1316	 0.333178467405871 
1317	 0.331996467333876 
1318	 0.330690549229104 
1319	 0.329417884048079 
1320	 0.328089306596733 
1321	 0.326779438039878 
1322	 0.325417040119591 
1323	 0.324018043133223 
1324	 0.322646335574084 
1325	 0.321212264207502 
1326	 0.3197920807217 
1327	 0.31843806355448 
1328	 0.316915324354404 
1329	 0.315271635546693 
1330	 0.313613789886043 
1331	 0.311846370970013 
1332	 0.310133986495849 
1333	 0.308453295622666 
1334	 0.306752611639575 
1335	 0.304918169766188 
1336	 0.30336818272398 
1337	 0.301916524996645 
1338	 0.300521529688407 
1339	 0.299323447308866 
1340	 0.298085909577169 
1341	 0.296609335377384 
1342	 0.295377020500671 
1343	 0.294286236076917 
1344	 0.293129966859656 
1345	 0.291960154013774 
1346	 0.290821249422601 
1347	 0.289688943375528 
1348	 0.288516011322584 
1349	 0.287554493960634 
1350	 0.287300759620734 
1351	 0.286358673437465 
1352	 0.285298205220805 
1353	 0.284179440157012 
1354	 0.282887552858451 
1355	 0.280926485976081 
1356	 0.27897910997345 
1357	 0.277180792535804 
1358	 0.276892752801264 
1359	 0.274012814295995 
1360	 0.275933795312799 
1361	 0.273014995739214 
1362	 0.256363628870417 
1363	 0.244399587784311 
1364	 0.245599779577679 
1365	 0.24065810846988 
1366	 0.24739816118283 
1367	 0.241913165634934 
1368	 0.224685360407946 
1369	 0.222855333447468 
1370	 0.222724690655285 
1371	 0.225585117382654 
1372	 0.240154886987844 
1373	 0.243364237894082 
1374	 0.241032926292394 
1375	 0.240585689254952 
1376	 0.237606638701746 
1377	 0.230338272079674 
1378	 0.226276695027076 
1379	 0.223431966077715 
1380	 0.219087176678747 
1381	 0.215306569828569 
1382	 0.208097686102377 
1383	 0.198991715927835 
1384	 0.192022168940488 
1385	 0.183782201542719 
1386	 0.1786192263377 
1387	 0.177750753594261 
1388	 0.173203583583427 
1389	 0.167917123047177 
1390	 0.163767991040754 
1391	 0.158987567302525 
1392	 0.154887638577812 
1393	 0.15173003918351 
1394	 0.147905123279366 
1395	 0.143383279545662 
1396	 0.139666287471642 
1397	 0.136362459164511 
1398	 0.132881083959279 
1399	 0.130073626053199 
1400	 0.126374618990299 
1401	 0.121492109415263 
1402	 0.118038150244536 
1403	 0.115224719426495 
1404	 0.112416520384224 
1405	 0.111063605646827 
1406	 0.108836207562125 
1407	 0.105397358110092 
1408	 0.10207311296502 
1409	 9.86874607964223E-02 
1410	 9.59350226446698E-02 
1411	 9.41821045300645E-02 
1412	 9.34297300895838E-02 
1413	 9.19571583120044E-02 
1414	 9.05753390417103E-02 
1415	 8.94864154714163E-02 
1416	 8.82584146970755E-02 
1417	 8.72777268542925E-02 
1418	 8.67240235705267E-02 
1419	 8.59307594963889E-02 
1420	 0.08502768476924 
1421	 8.41886940386601E-02 
1422	 8.32638205495729E-02 
1423	 8.26244781005882E-02 
1424	 8.20857572154928E-02 
1425	 8.15204106069485E-02 
1426	 8.10772246887385E-02 
1427	 8.06239408701144E-02 
1428	 8.00334293710369E-02 
1429	 0.079585333364906 
1430	 0.079271601401124 
1431	 7.89261666389314E-02 
1432	 7.85938632103866E-02 
1433	 0.078234755370186 
1434	 7.78900391044719E-02 
1435	 7.75132063351781E-02 
1436	 7.70541001245888E-02 
1437	 7.67057932762318E-02 
1438	 7.63756790266183E-02 
1439	 7.61094962098925E-02 
1440	 7.59363066275275E-02 
1441	 7.57836937405402E-02 
1442	 7.56033086772765E-02 
1443	 7.55916169722512E-02 
1444	 7.55268742414353E-02 
1445	 7.54337790782789E-02 
1446	 7.55538712126535E-02 
1447	 7.54610204393972E-02 
1448	 7.54537466836411E-02 
1449	 7.54884056549344E-02 
1450	 7.55033771726691E-02 
1451	 7.54875468372138E-02 
1452	 7.54924972654516E-02 
1453	 7.54878637826038E-02 
1454	 7.55689967707596E-02 
1455	 7.56535001799544E-02 
1456	 7.58020059755212E-02 
1457	 7.61000324467844E-02 
1458	 7.62087347633543E-02 
1459	 7.62239850762748E-02 
1460	 7.63428765253853E-02 
1461	 7.64082523521003E-02 
1462	 7.65767798680356E-02 
1463	 7.69034412171871E-02 
1464	 7.71664274068042E-02 
1465	 7.73777100794537E-02 
1466	 7.77129087215091E-02 
1467	 7.81272680196689E-02 
1468	 7.85521296716081E-02 
1469	 7.90150654748424E-02 
1470	 7.95566232958722E-02 
1471	 8.01013598258017E-02 
1472	 8.06952738272993E-02 
1473	 8.14117038056772E-02 
1474	 8.20132906901777E-02 
1475	 8.24705397345076E-02 
1476	 0.083052300780391 
1477	 8.36231795745901E-02 
1478	 8.42439894392712E-02 
1479	 8.49197712026108E-02 
1480	 8.56504788184929E-02 
1481	 8.64436955930892E-02 
1482	 8.71691516274196E-02 
1483	 8.79092752077235E-02 
1484	 8.86322060934405E-02 
1485	 8.92261845464735E-02 
1486	 8.99310969528701E-02 
1487	 9.06556904648984E-02 
1488	 9.14432221557382E-02 
1489	 9.23074438083287E-02 
1490	 9.31689393098649E-02 
1491	 9.40425539113566E-02 
1492	 9.48314353545524E-02 
1493	 9.54891767971049E-02 
1494	 9.61728270129187E-02 
1495	 9.69031778154135E-02 
1496	 9.76233345586053E-02 
1497	 9.83922553404422E-02 
1498	 9.92464653494154E-02 
1499	 0.100052620979388 
1500	 0.100865984867401 
1501	 0.101678458522658 
1502	 0.102493879327674 
1503	 0.10335326293328 
1504	 0.104224176518724 
1505	 0.105098364056841 
1506	 0.105998204963677 
1507	 0.10690135311197 
1508	 0.107787866943634 
1509	 0.108709448503258 
1510	 0.109706051047553 
1511	 0.110600191637532 
1512	 0.111451502634948 
1513	 0.112323221943562 
1514	 0.113130170577327 
1515	 0.114022297862525 
1516	 0.115000483336396 
1517	 0.115928524209304 
1518	 0.116901380676837 
1519	 0.117793668214156 
1520	 0.118626736715869 
1521	 0.119476395258023 
1522	 0.120249261600351 
1523	 0.121126333574915 
1524	 0.122096718528918 
1525	 0.123000478672991 
1526	 0.123938098063552 
1527	 0.124836187283601 
1528	 0.125674380591697 
1529	 0.126528520905136 
1530	 0.127386064755596 
1531	 0.128251613662934 
1532	 0.129102991373425 
1533	 0.129970613468574 
1534	 0.130870740751831 
1535	 0.131749856789602 
1536	 0.132647464422833 
1537	 0.133500316332477 
1538	 0.134316160065802 
1539	 0.135137200668017 
1540	 0.135900642954952 
1541	 0.136723352962975 
1542	 0.137605202441964 
1543	 0.138445716529835 
1544	 0.139284879103217 
1545	 0.140134474394406 
1546	 0.140989671431708 
1547	 0.141808436304651 
1548	 0.142590610433235 
1549	 0.143428283048608 
1550	 0.144311570749603 
1551	 0.145117507309553 
1552	 0.145930489271091 
1553	 0.146732637353739 
1554	 0.147429293869259 
1555	 0.148171872435382 
1556	 0.148979035291296 
1557	 0.149756011133166 
1558	 0.150505676644047 
1559	 0.151268857832011 
1560	 0.152059257970885 
1561	 0.152811675629352 
1562	 0.15353599147559 
1563	 0.15428134145354 
1564	 0.155050162237582 
1565	 0.155754875686917 
1566	 0.156472662673859 
1567	 0.157233470286517 
1568	 0.157967310906058 
1569	 0.158680685431598 
1570	 0.159389265496645 
1571	 0.160106132112474 
1572	 0.160805298658274 
1573	 0.16146012972412 
1574	 0.162166500478717 
1575	 0.162889362285056 
1576	 0.163605220398701 
1577	 0.164331911751781 
1578	 0.165024359962712 
1579	 0.165678297688635 
1580	 0.166391338340105 
1581	 0.167124113151571 
1582	 0.16780179725466 
1583	 0.168482316376444 
1584	 0.169178499597137 
1585	 0.169834551991128 
1586	 0.17051330102226 
1587	 0.171267043791335 
1588	 0.171915270010643 
1589	 0.172488415642757 
1590	 0.17310962380201 
1591	 0.173711894757624 
1592	 0.174346024841384 
1593	 0.175025415960512 
1594	 0.17563438597816 
1595	 0.176206779232832 
1596	 0.176839925995029 
1597	 0.177466960193151 
1598	 0.178103086567506 
1599	 0.178790294032545 
1600	 0.179463140362252 
1601	 0.1801528947066 
1602	 0.180728523084165 
1603	 0.181248028654122 
1604	 0.181845787780404 
1605	 0.18236933908044 
1606	 0.182957574766381 
1607	 0.183665667991455 
1608	 0.184278972314009 
1609	 0.184813185046745 
1610	 0.185398041140047 
1611	 0.186017932606223 
1612	 0.186593017907559 
1613	 0.187138285426937 
1614	 0.187706900634239 
1615	 0.188273421101571 
1616	 0.188820144012599 
1617	 0.189366000557763 
1618	 0.18990473302849 
1619	 0.190443816259831 
1620	 0.190936459531051 
1621	 0.191422603145481 
1622	 0.191875214787628 
1623	 0.192239887645762 
1624	 0.192705913900138 
1625	 0.193245545224788 
1626	 0.19366283815859 
1627	 0.194045754260515 
1628	 0.194484433979269 
1629	 0.194872289176081 
1630	 0.195288979637162 
1631	 0.195823054414829 
1632	 0.196219175283714 
1633	 0.196496720729188 
1634	 0.196875009702452 
1635	 0.197266555221094 
1636	 0.197648624957045 
1637	 0.198046410566077 
1638	 0.198459532609049 
1639	 0.198876539964634 
1640	 0.199267178714108 
1641	 0.199715285671954 
1642	 0.200022666673932 
1643	 0.200233486215406 
1644	 0.200466233972827 
1645	 0.200581028382786 
1646	 0.200887685860455 
1647	 0.201311468886429 
1648	 0.201580080449549 
1649	 0.201913904144535 
1650	 0.202107524298044 
1651	 0.202121136484201 
1652	 0.202251984988992 
1653	 0.202395364877035 
1654	 0.20250253623073 
1655	 0.202591963466183 
1656	 0.202755588208597 
1657	 0.202955961549091 
1658	 0.203131013011448 
1659	 0.203213497941133 
1660	 0.20314340417382 
1661	 0.203191852500268 
1662	 0.203287952830784 
1663	 0.203333959835484 
1664	 0.203473299312829 
1665	 0.203567216068506 
1666	 0.203559289836646 
1667	 0.203556050428134 
1668	 0.203509956959642 
1669	 0.203369762052047 
1670	 0.203245594119197 
1671	 0.203179455006565 
1672	 0.203090422213776 
1673	 0.203004157246759 
1674	 0.202918320147715 
1675	 0.20269072370306 
1676	 0.202497319747388 
1677	 0.202316773551525 
1678	 0.202041476614897 
1679	 0.201795854175781 
1680	 0.20139809928412 
1681	 0.200915969305854 
1682	 0.200547018636891 
1683	 0.200220123684904 
1684	 0.199834323799572 
1685	 0.199401970472666 
1686	 0.198917249362689 
1687	 0.198366556124686 
1688	 0.197917358703283 
1689	 0.197512912351464 
1690	 0.197007176777955 
1691	 0.196486825738946 
1692	 0.195857820167986 
1693	 0.195321402353945 
1694	 0.194861965094227 
1695	 0.194360838218803 
1696	 0.193943044938778 
1697	 0.193386109106698 
1698	 0.19266447333047 
1699	 0.192066064836413 
1700	 0.19142488712365 
1701	 0.190828115987062 
1702	 0.190375701397002 
1703	 0.189817541687343 
1704	 0.189188733169945 
1705	 0.188609964802501 
1706	 0.188002921034202 
1707	 0.187447932672199 
1708	 0.186977802784721 
1709	 0.186441208010617 
1710	 0.185888782249423 
1711	 0.185305905425059 
1712	 0.184606742613626 
1713	 0.18410938319293 
1714	 0.183703084100379 
1715	 0.183310202662254 
1716	 0.183087179503203 
1717	 0.182676203844694 
1718	 0.182202488103707 
1719	 0.181714907279345 
1720	 0.18107325604893 
1721	 0.18063704162354 
1722	 0.180331210049689 
1723	 0.179899911372264 
1724	 0.179481308113303 
1725	 0.179131454766264 
1726	 0.178713578316506 
1727	 0.17836387992149 
1728	 0.178118980475398 
1729	 0.177880437431498 
1730	 0.177614900420549 
1731	 0.177444581781615 
1732	 0.177307626769009 
1733	 0.177075901144656 
1734	 0.176932242011944 
1735	 0.176800732793871 
1736	 0.176709863348376 
1737	 0.176564548169061 
1738	 0.176184729924053 
1739	 0.175788596396549 
1740	 0.17537789221153 
1741	 0.174941250662236 
1742	 0.174634081854539 
1743	 0.174169536858406 
1744	 0.173559406433619 
1745	 0.173029840752253 
1746	 0.172448240825729 
1747	 0.171965700572685 
1748	 0.17147870172091 
1749	 0.170911515730981 
1750	 0.170472336293053 
1751	 0.169955682572623 
1752	 0.169468990957753 
1753	 0.169130467629942 
1754	 0.168558188060406 
1755	 0.16787635770641 
1756	 0.167510538769605 
1757	 0.167010403710635 
1758	 0.166589567261305 
1759	 0.166351013426081 
1760	 0.165966363741813 
1761	 0.165560745476239 
1762	 0.165177044499039 
1763	 0.164635793971021 
1764	 0.164338155845445 
1765	 0.164269612050064 
1766	 0.164012428900785 
1767	 0.163848369971199 
1768	 0.16358779896573 
1769	 0.163007775161185 
1770	 0.162734677805085 
1771	 0.162693492389141 
1772	 0.162515850531143 
1773	 0.162381744327153 
1774	 0.162097597298097 
1775	 0.16187602644842 
1776	 0.161499516873658 
1777	 0.161275342940454 
1778	 0.161224951864185 
1779	 0.160941151882778 
1780	 0.160887155995508 
1781	 0.161043927302291 
1782	 0.160905029881184 
1783	 0.160799417424732 
1784	 0.160665644703942 
1785	 0.160375108658052 
1786	 0.16043715249885 
1787	 0.160622465976985 
1788	 0.160503370412409 
1789	 0.160627400078921 
1790	 0.160858460469231 
1791	 0.160708436059038 
1792	 0.160664018103804 
1793	 0.160744746329821 
1794	 0.1606345048029 
1795	 0.160714789308673 
1796	 0.161194196043155 
1797	 0.161253667956419 
1798	 0.160824112443884 
1799	 0.160750792494354 
1800	 0.161282179880757 
1801	 0.159035654909782 
1802	 0.160851746444148 
1803	 0.161338820178532 
1804	 0.161300964261906 
1805	 0.161267679717472 
1806	 0.159923268764292 
1807	 0.159522076408566 
1808	 0.159183203292462 
1809	 0.159817319989997 
1810	 0.160217111163074 
1811	 0.161484279932704 
1812	 0.161977862945336 
1813	 0.162617061179725 
1814	 0.162346418583665 
1815	 0.159869635546018 
1816	 0.159546929307437 
1817	 0.159849289768712 
1818	 0.160144997684313 
1819	 0.16120373740857 
1820	 0.165571037071898 
1821	 0.166791893958356 
1822	 0.166842485696662 
1823	 0.165919679441952 
1824	 0.160943155869039 
1825	 0.159187556619328 
1826	 0.157224342545463 
1827	 0.155574831105199 
1828	 0.155221822314413 
1829	 0.161071092971383 
1830	 0.162448776651807 
1831	 0.16111034620802 
1832	 0.161000026649625 
1833	 0.15554648739579 
1834	 0.158617266704392 
1835	 0.174074825918059 
1836	 0.187185094845839 
1837	 0.222926355069676 
1838	 0.239947069835686 
1839	 0.241083437636545 
1840	 0.197820936840821 
1841	 0.203346178766307 
1842	 0.220485316743944 
1843	 0.22081926735922 
1844	 0.245379668227128 
1845	 0.244874872944577 
1846	 0.20527776287547 
1847	 0.186742567548017 
1848	 0.171792080452617 
1849	 0.14932109035164 
1850	 0.152316467500932 
1851	 0.184178187552765 
1852	 0.189198193117262 
1853	 0.207224813251254 
1854	 0.206898500233137 
1855	 0.173571750901348 
1856	 0.16079179069561 
1857	 0.160968377563421 
1858	 0.146592807901237 
1859	 0.143718543610673 
1860	 0.151089961186218 
1861	 0.145549497825099 
1862	 0.134001192114677 
1863	 0.130475244038864 
1864	 0.120793374614003 
1865	 0.120831783419039 
1866	 0.128707613487626 
1867	 0.139011627768038 
1868	 0.173504191703573 
1869	 0.207304109636974 
1870	 0.204707774612545 
1871	 0.17883785830817 
1872	 0.163831399070097 
1873	 0.118902964579775 
1874	 9.97540701311583E-02 
1875	 0.113072744887896 
1876	 0.109028550287755 
1877	 9.40132216319254E-02 
1878	 9.00629607625369E-02 
1879	 9.35281323217503E-02 
1880	 8.36480171979168E-02 
1881	 8.03458998141142E-02 
1882	 8.14777981216314E-02 
1883	 7.56508718281468E-02 
1884	 6.48299928348355E-02 
1885	 5.96764330042777E-02 
1886	 5.49275482641872E-02 
1887	 4.68205197170348E-02 
1888	 4.53820911928799E-02 
1889	 4.88267779896528E-02 
1890	 0.051164054370789 
1891	 5.80392325377522E-02 
1892	 0.059188137395111 
1893	 0.060253292685813 
1894	 5.72162380956285E-02 
1895	 4.43004146342054E-02 
1896	 3.83203539444494E-02 
1897	 3.40678094353707E-02 
1898	 2.45682181731423E-02 
1899	 2.75011094959867E-02 
1900	 2.73612097277582E-02 
1901	 2.32966893747319E-02 
1902	 1.40544449131377E-02 
1903	 1.27160720003453E-02 
1904	 9.52633666990789E-03 
1905	 0.010515697574354 
1906	 1.62031840410235E-02 
1907	 3.53773505315199E-02 
1908	 3.04369120686704E-02 
1909	 3.73303622446162E-02 
1910	 5.03925077643544E-02 
1911	 0.046596913111823 
1912	 4.30402989570142E-02 
1913	 4.08756813822316E-02 
1914	 3.44683388097201E-02 
1915	 1.98714033435318E-02 
1916	 1.74333278525691E-02 
1917	 1.76934518960783E-02 
1918	 2.09331216341837E-02 
1919	 2.14939840041466E-02 
1920	 2.50481290760799E-02 
1921	 2.63006854288182E-02 
1922	 2.17280801636158E-02 
1923	 2.03075801723875E-02 
1924	 2.00200152848849E-02 
1925	 1.96753525738402E-02 
1926	 1.86418199387218E-02 
1927	 1.89175315287946E-02 
1928	 2.06027483100453E-02 
1929	 1.98744961825637E-02 
1930	 2.09156806086478E-02 
1931	 0.023646054930129 
1932	 2.61184008745247E-02 
1933	 2.81714552480731E-02 
1934	 2.84505401459646E-02 
1935	 2.70391091311874E-02 
1936	 2.71531417360814E-02 
1937	 2.69159917090658E-02 
1938	 2.69710177393595E-02 
1939	 2.82194144430701E-02 
1940	 2.77815349100071E-02 
1941	 2.71524178344496E-02 
1942	 2.70696726885826E-02 
1943	 2.65957880279175E-02 
1944	 2.68262582903346E-02 
1945	 2.68411494102029E-02 
1946	 2.60437583725256E-02 
1947	 2.55346384283985E-02 
1948	 2.44043907947238E-02 
1949	 2.44551341326417E-02 
1950	 2.52642569169516E-02 
1951	 2.55472689351042E-02 
1952	 2.62356489366464E-02 
1953	 2.71528487847461E-02 
1954	 2.65751505401313E-02 
1955	 2.63977004580001E-02 
1956	 2.67617435219792E-02 
1957	 0.026347020078548 
1958	 0.026477231012974 
1959	 2.69784899643004E-02 
1960	 2.73574058668575E-02 
1961	 2.76964170845934E-02 
1962	 2.83167521324379E-02 
1963	 2.85446297707349E-02 
1964	 2.89165821840162E-02 
1965	 2.90361576773612E-02 
1966	 2.92149756372748E-02 
1967	 2.95660667042327E-02 
1968	 2.95751376278277E-02 
1969	 2.95203226720007E-02 
1970	 2.92098848503153E-02 
1971	 2.90845919548606E-02 
1972	 2.87092424454067E-02 
1973	 2.90547135459916E-02 
1974	 2.95696216915089E-02 
1975	 3.00759432874034E-02 
1976	 3.07067007643645E-02 
1977	 3.12943677511376E-02 
1978	 3.16326879417955E-02 
1979	 0.031925091452358 
1980	 3.21905421580951E-02 
1981	 3.21289147184796E-02 
1982	 3.22871453290876E-02 
1983	 3.24018286541639E-02 
1984	 0.032778334965127 
1985	 3.32270046293479E-02 
1986	 3.37753275105287E-02 
1987	 0.034116154322003 
1988	 0.034206582535616 
1989	 3.41117815133252E-02 
1990	 3.41633633847736E-02 
1991	 3.42561506621783E-02 
1992	 3.41606009573624E-02 
1993	 3.44787263091389E-02 
1994	 3.47454409055328E-02 
1995	 3.48321016842474E-02 
1996	 3.47343016008188E-02 
1997	 3.48709700869395E-02 
1998	 0.03491750300119 
1999	 0.035076171854631 
2000	 3.58768157514747E-02 
2001	 3.74434910052414E-02 
2002	 3.87526678029908E-02 
2003	 3.96653014429381E-02 
2004	 3.97387528241805E-02 
2005	 3.93910609938604E-02 
2006	 3.95355208438406E-02 
2007	 3.97274992131998E-02 
2008	 3.97735552613515E-02 
2009	 4.03315745507917E-02 
2010	 4.06366852073195E-02 
2011	 4.04067648040747E-02 
2012	 4.08337068493031E-02 
2013	 4.12431480195615E-02 
2014	 0.041672590694167 
2015	 4.22162344816241E-02 
2016	 4.26449410317234E-02 
2017	 4.30475777990362E-02 
2018	 4.35690060671459E-02 
2019	 0.044079877244113 
2020	 4.47127483907852E-02 
2021	 4.49719791950681E-02 
2022	 4.52570702674843E-02 
2023	 4.55985894691969E-02 
2024	 4.54538003270729E-02 
2025	 4.51202703056811E-02 
2026	 4.49733862167765E-02 
2027	 4.49216503688928E-02 
2028	 4.52803872562806E-02 
2029	 4.59480109261875E-02 
2030	 4.65525324689587E-02 
2031	 0.047063619910129 
2032	 4.74252869180409E-02 
2033	 4.75873686621777E-02 
2034	 0.047834794262884 
2035	 4.80612470442256E-02 
2036	 0.048059214620204 
2037	 4.80360513147103E-02 
2038	 4.79143685598802E-02 
2039	 4.77738312457057E-02 
2040	 0.047895655474201 
2041	 4.82589733911084E-02 
2042	 4.85539244847647E-02 
2043	 4.89471465765106E-02 
2044	 4.95503570872026E-02 
2045	 0.049879040757017 
2046	 4.99927071645186E-02 
2047	 5.01733392867245E-02 
2048	 5.04305413498648E-02 
2049	 5.04982258467572E-02 
2050	 5.08860794728395E-02 
2051	 5.14568760177571E-02 
2052	 5.17842877200829E-02 
2053	 5.18931633014135E-02 
2054	 5.19043624818649E-02 
2055	 5.18868506334695E-02 
2056	 5.20953755419095E-02 
2057	 5.24182105103641E-02 
2058	 5.26237184834996E-02 
2059	 5.29233084555151E-02 
2060	 5.32650633216803E-02 
2061	 5.35956956185691E-02 
2062	 5.39725285109866E-02 
2063	 5.44934322959171E-02 
2064	 5.47268409576754E-02 
2065	 5.50331801116341E-02 
2066	 5.56652646506439E-02 
2067	 5.61002601950803E-02 
2068	 5.65645133444043E-02 
2069	 5.69464229316608E-02 
2070	 5.69600338950128E-02 
2071	 5.71703148661748E-02 
2072	 5.74462155204469E-02 
2073	 5.78463539714296E-02 
2074	 5.81670683931837E-02 
2075	 5.84545827997473E-02 
2076	 5.83879058888463E-02 
2077	 5.84325043529004E-02 
2078	 5.87795083522532E-02 
2079	 5.91033566026406E-02 
2080	 5.94393767218113E-02 
2081	 5.95991543066682E-02 
2082	 5.97672800818866E-02 
2083	 5.99357870034153E-02 
2084	 6.02881805952573E-02 
2085	 6.06856568828154E-02 
2086	 6.08042582531767E-02 
2087	 6.10405588483426E-02 
2088	 6.12568681664952E-02 
2089	 6.14571219716148E-02 
2090	 6.16676561599865E-02 
2091	 6.21366526823345E-02 
2092	 6.25064729576495E-02 
2093	 0.062799350295862 
2094	 6.33604042668522E-02 
2095	 6.37263983761682E-02 
2096	 6.39950905530439E-02 
2097	 6.43787360810447E-02 
2098	 0.064547194622032 
2099	 6.47391171113708E-02 
2100	 6.52278025761326E-02 
2101	 6.56858632540853E-02 
2102	 6.58994178817123E-02 
2103	 6.60094324993145E-02 
2104	 6.61710077121477E-02 
2105	 6.62283563290512E-02 
2106	 6.62567346722533E-02 
2107	 6.66924920829231E-02 
2108	 6.71665952856115E-02 
2109	 6.75372757984785E-02 
2110	 6.80367516340693E-02 
2111	 0.068580309376458 
2112	 6.92171359755799E-02 
2113	 6.95920844664776E-02 
2114	 6.98240641514596E-02 
2115	 7.00947688695919E-02 
2116	 7.03504423473452E-02 
2117	 7.06439469455431E-02 
2118	 7.09807560027932E-02 
2119	 7.13892213893375E-02 
2120	 7.18277087620171E-02 
2121	 7.23390404916396E-02 
2122	 7.28738504990572E-02 
2123	 7.33562180318622E-02 
2124	 7.38008240836996E-02 
2125	 7.41506962387167E-02 
2126	 7.40486104684691E-02 
2127	 0.073902813756832 
2128	 7.40219433249896E-02 
2129	 7.40598439635539E-02 
2130	 7.42594726846737E-02 
2131	 7.49408811973184E-02 
2132	 7.52944272749667E-02 
2133	 7.53216127361179E-02 
2134	 0.07560691683888 
2135	 7.60406465321729E-02 
2136	 7.62568085891776E-02 
2137	 7.65455311136164E-02 
2138	 0.077048623924356 
2139	 7.71323103649075E-02 
2140	 7.73859946162953E-02 
2141	 7.77436768916206E-02 
2142	 7.77822493472387E-02 
2143	 7.78599474488935E-02 
2144	 7.82616334666975E-02 
2145	 7.88666633973444E-02 
2146	 7.92200910003553E-02 
2147	 7.94044282496245E-02 
2148	 7.93804472832656E-02 
2149	 7.93909640886013E-02 
2150	 7.98106658959429E-02 
2151	 0.080038130396689 
2152	 8.05915504486485E-02 
2153	 8.08750708994552E-02 
2154	 8.08738328283236E-02 
2155	 8.06751660691543E-02 
2156	 8.10120263057836E-02 
2157	 8.14515819550042E-02 
2158	 8.19865896267169E-02 
2159	 8.21774354246332E-02 
2160	 8.21607725093898E-02 
2161	 8.22733735498883E-02 
2162	 8.21635282419554E-02 
2163	 8.25874708131535E-02 
2164	 8.28900469481474E-02 
2165	 8.27838097734417E-02 
2166	 8.29895805196902E-02 
2167	 0.082971041051273 
2168	 8.30523814821589E-02 
2169	 8.33929080675146E-02 
2170	 8.36634792862805E-02 
2171	 8.39233504010939E-02 
2172	 8.39558754777963E-02 
2173	 8.39935800779015E-02 
2174	 8.41140449000395E-02 
2175	 8.40184637006541E-02 
2176	 8.41564114064121E-02 
2177	 8.47271311306401E-02 
2178	 8.48878013163213E-02 
2179	 8.49532833921531E-02 
2180	 8.53807624860259E-02 
2181	 8.57740502011437E-02 
2182	 8.61098363669676E-02 
2183	 8.63666272805881E-02 
2184	 8.66409846849509E-02 
2185	 8.66435238736165E-02 
2186	 8.62443481616788E-02 
2187	 8.62750608038193E-02 
2188	 8.66456625963144E-02 
2189	 8.68583295674382E-02 
2190	 8.70311177806512E-02 
2191	 8.76843980998945E-02 
2192	 8.78495258724577E-02 
2193	 8.75913090488952E-02 
2194	 8.76615332672438E-02 
2195	 8.74958055690348E-02 
2196	 8.75904677460277E-02 
2197	 8.80917877433559E-02 
2198	 8.80996785017175E-02 
2199	 8.79554674270506E-02 
2200	 8.83372571689875E-02 
2201	 0.088386611252051 
2202	 8.84757465787845E-02 
2203	 8.90971722799359E-02 
2204	 8.88040412408434E-02 
2205	 8.82774839952503E-02 
2206	 8.81981396629902E-02 
2207	 8.79568940814245E-02 
2208	 8.79040562944284E-02 
2209	 8.83238020979958E-02 
2210	 0.088741713532336 
2211	 8.92803080427755E-02 
2212	 0.089392175388105 
2213	 8.94713044551592E-02 
2214	 8.91985240031597E-02 
2215	 8.85681834594753E-02 
2216	 8.82119182254444E-02 
2217	 8.81897741927957E-02 
2218	 8.82377806229112E-02 
2219	 8.84230019386707E-02 
2220	 8.85084034415411E-02 
2221	 8.85498761830416E-02 
2222	 0.088487805735926 
2223	 0.088085223637632 
2224	 8.77746784844625E-02 
2225	 8.75207939936718E-02 
2226	 8.73335865968089E-02 
2227	 8.70519785215891E-02 
2228	 8.66303446975549E-02 
2229	 8.61838224127953E-02 
2230	 8.56179403106814E-02 
2231	 8.54129992445199E-02 
2232	 0.085682602094428 
2233	 8.57076635911353E-02 
2234	 8.58432044139539E-02 
2235	 8.59842239309817E-02 
2236	 8.54545642431504E-02 
2237	 8.47917526143551E-02 
2238	 8.39953237609387E-02 
2239	 8.27437972855293E-02 
2240	 8.23750968208141E-02 
2241	 8.21448824933637E-02 
2242	 8.19494934970607E-02 
2243	 8.22151730751091E-02 
2244	 8.16978417408584E-02 
2245	 8.10160474532233E-02 
2246	 8.06895519259905E-02 
2247	 8.00524419980449E-02 
2248	 7.99322797766673E-02 
2249	 7.99609742242651E-02 
2250	 7.90128955769086E-02 
2251	 7.85281431380846E-02 
2252	 7.84268891358374E-02 
2253	 7.79794465984297E-02 
2254	 7.74603963164291E-02 
2255	 0.076877537427481 
2256	 7.64876475879942E-02 
2257	 7.58952705009398E-02 
2258	 7.53947310880914E-02 
2259	 7.56341536797802E-02 
2260	 7.59676578308065E-02 
2261	 7.56952362342808E-02 
2262	 7.52607904556404E-02 
2263	 7.47662792013851E-02 
2264	 7.42275342328652E-02 
2265	 7.34528502384803E-02 
2266	 0.072466343392813 
2267	 7.19831328871916E-02 
2268	 7.13660514529286E-02 
2269	 7.06558220154311E-02 
2270	 7.07293841371754E-02 
2271	 0.07014482116467 
2272	 6.96239472379921E-02 
2273	 0.069675680586876 
2274	 6.94168127050135E-02 
2275	 6.94362541774169E-02 
2276	 6.88257696068083E-02 
2277	 6.80019015419538E-02 
2278	 6.76321806414587E-02 
2279	 0.067028649487798 
2280	 6.66645143457971E-02 
2281	 6.66337972499228E-02 
2282	 6.63405346537657E-02 
2283	 6.59793926943157E-02 
2284	 6.52204346719488E-02 
2285	 6.41625889203973E-02 
2286	 6.35484255456729E-02 
2287	 6.30015742243848E-02 
2288	 6.24004739930816E-02 
2289	 6.24880502239408E-02 
2290	 6.26228807807822E-02 
2291	 6.19625788642511E-02 
2292	 6.14595737316836E-02 
2293	 0.061035951954611 
2294	 6.07453262003164E-02 
2295	 6.08608226861398E-02 
2296	 6.13613765277741E-02 
2297	 6.13399632381698E-02 
2298	 6.07223290195724E-02 
2299	 6.02387365298615E-02 
2300	 5.95969832734853E-02 
2301	 5.94677279666846E-02 
2302	 5.97930858219407E-02 
2303	 5.94273386149814E-02 
2304	 5.90373349223661E-02 
2305	 5.89596978775891E-02 
2306	 5.86816647053074E-02 
2307	 5.89120408608076E-02 
2308	 5.94992100988947E-02 
2309	 5.90154735593355E-02 
2310	 5.81727005336191E-02 
2311	 5.80355042521896E-02 
2312	 5.73325900659402E-02 
2313	 5.62070275194197E-02 
2314	 5.61138414222953E-02 
2315	 5.64584721790547E-02 
2316	 0.056346251272437 
2317	 5.71524169449006E-02 
2318	 5.76193568468579E-02 
2319	 5.64018739045194E-02 
2320	 5.58314704685645E-02 
2321	 0.055434467569069 
2322	 5.47824030596879E-02 
2323	 5.46326471835302E-02 
2324	 0.055162443323892 
2325	 5.54033428380276E-02 
2326	 5.52587489746503E-02 
2327	 5.54756059318888E-02 
2328	 5.61945522132233E-02 
2329	 5.53490983156109E-02 
2330	 5.43093972843472E-02 
2331	 5.44513094444336E-02 
2332	 5.34340033241403E-02 
2333	 5.34728071774821E-02 
2334	 5.44328986000319E-02 
2335	 5.40949239405455E-02 
2336	 5.40086847915622E-02 
2337	 5.42886679127867E-02 
2338	 0.055014265350908 
2339	 5.50195200283935E-02 
2340	 5.48603307610332E-02 
2341	 5.45328093738091E-02 
2342	 5.31136443375011E-02 
2343	 5.32091775157108E-02 
2344	 5.30393889401262E-02 
2345	 5.14537233643365E-02 
2346	 5.14378270599876E-02 
2347	 5.11240876487294E-02 
2348	 4.89959408396133E-02 
2349	 4.90093450790412E-02 
2350	 4.93268310050336E-02 
2351	 4.77851192889592E-02 
2352	 4.77920948002171E-02 
2353	 4.82704720825634E-02 
2354	 4.89825191545161E-02 
2355	 5.03660434412102E-02 
2356	 0.052032252930182 
2357	 5.28610432926292E-02 
2358	 5.04378641953997E-02 
2359	 0.048638839674459 
2360	 4.76463063796273E-02 
2361	 4.67750616806892E-02 
2362	 4.81892638651835E-02 
2363	 4.82804336285214E-02 
2364	 4.72361157286116E-02 
2365	 4.70949588172795E-02 
2366	 4.56813761756716E-02 
2367	 4.41192668268855E-02 
2368	 4.33786861004186E-02 
2369	 4.19994410503903E-02 
2370	 4.34454442423634E-02 
2371	 4.63082912169444E-02 
2372	 4.83716090531379E-02 
2373	 5.32531335956008E-02 
2374	 5.38698854981797E-02 
2375	 5.04398562742382E-02 
2376	 4.89963503112151E-02 
2377	 0.04577209777161 
2378	 4.39207903450229E-02 
2379	 4.40693607507953E-02 
2380	 4.33349701643573E-02 
2381	 4.16129903228022E-02 
2382	 4.05972373104718E-02 
2383	 3.96970021500424E-02 
2384	 3.97241631341874E-02 
2385	 4.11107941954218E-02 
2386	 4.19461225066908E-02 
2387	 4.37565039196727E-02 
2388	 4.45218198529816E-02 
2389	 4.41311431669009E-02 
2390	 4.39444277611391E-02 
2391	 4.34315474892681E-02 
2392	 4.22643090323007E-02 
2393	 4.02232446762448E-02 
2394	 3.96077390273608E-02 
2395	 3.96238974288797E-02 
2396	 3.95825676484091E-02 
2397	 4.02914673326822E-02 
2398	 4.07714775523925E-02 
2399	 4.06249829909304E-02 
2400	 4.08684775935802E-02 
2401	 4.12700442189114E-02 
2402	 0.042723408025889 
2403	 4.45900233924486E-02 
2404	 4.26159157800077E-02 
2405	 3.94312737892797E-02 
2406	 3.77624296782238E-02 
2407	 3.52093270737366E-02 
2408	 3.52283426780363E-02 
2409	 3.76185828168782E-02 
2410	 0.037419390664884 
2411	 3.58981895697424E-02 
2412	 3.57173162561467E-02 
2413	 3.42491513273922E-02 
2414	 3.36560838706171E-02 
2415	 3.52099889702432E-02 
2416	 3.45321681954866E-02 
2417	 3.58028079699834E-02 
2418	 3.87983584307504E-02 
2419	 3.73955224290723E-02 
2420	 0.039065266159966 
2421	 0.042032128711033 
2422	 4.12413696094147E-02 
2423	 0.041747875092394 
2424	 4.02342526281456E-02 
2425	 3.72482200432118E-02 
2426	 3.53894568341752E-02 
2427	 3.41824059202854E-02 
2428	 3.35238716004426E-02 
2429	 3.15854240214032E-02 
2430	 3.06933012821721E-02 
2431	 2.88927353170897E-02 
2432	 0.027508656697702 
2433	 3.12558139563203E-02 
2434	 3.11267425511746E-02 
2435	 2.99177340135614E-02 
2436	 3.01643475982421E-02 
2437	 2.71901963620636E-02 
2438	 2.75952725938245E-02 
2439	 3.27390725437627E-02 
2440	 3.50960816093794E-02 
2441	 3.87781920115121E-02 
2442	 3.97831561756727E-02 
2443	 3.63271811896663E-02 
2444	 3.40175937311432E-02 
2445	 3.17007922801754E-02 
2446	 2.92214757939343E-02 
2447	 2.67410582394603E-02 
2448	 2.66026405964388E-02 
2449	 2.59915598637386E-02 
2450	 2.35407694498176E-02 
2451	 2.32071561491131E-02 
2452	 2.12427835653964E-02 
2453	 0.016083097500365 
2454	 1.44886945515054E-02 
2455	 1.55131416009578E-02 
2456	 1.71536345351029E-02 
2457	 1.75003791430422E-02 
2458	 0.021531708721871 
2459	 3.18549013206684E-02 
2460	 0.033090388802223 
2461	 3.29127785311124E-02 
2462	 3.30983309890744E-02 
2463	 2.46073871102671E-02 
2464	 2.25628071537239E-02 
2465	 2.87501217166289E-02 
2466	 2.65840638472457E-02 
2467	 1.80000102232865E-02 
2468	 0.015376456154941 
2469	 1.41975170850872E-02 
2470	 9.76665753726513E-03 
2471	 7.89029571063197E-03 
2472	 7.66471739660106E-03 
2473	-3.26932479937429E-03 
2474	-4.51570176425198E-03 
2475	 1.02148964409867E-02 
2476	 1.62286593785837E-02 
2477	 2.32466144711238E-02 
2478	 3.06887684362646E-02 
2479	 3.46567279501489E-02 
2480	 3.47834263151664E-02 
2481	 3.26047604625909E-02 
2482	 2.96125134977377E-02 
2483	 2.64147505661376E-02 
2484	 1.57053833713163E-02 
2485	-2.18451304238638E-03 
2486	-5.91862568741751E-03 
2487	-4.79573262929691E-02 
2488	-5.18976038589019E-02 
2489	-3.51666809575215E-02 
2490	-3.26715699510841E-02 
2491	-1.88159396657422E-02 
2492	-0.012810684768199 
2493	-8.27276791122403E-03 
2494	-1.20239848637421E-02 
2495	-1.64983531959337E-02 
2496	-2.03047617474826E-02 
2497	-2.94934301869118E-02 
2498	-3.84955498583521E-02 
2499	-4.14821899319951E-02 
2500	-5.94895710129543E-03 
