Wavelength	ref00090.asd
350	 0.196740424834542 
351	 0.198870673507168 
352	 0.200755240664831 
353	 0.201220816920734 
354	 0.20192198162777 
355	 0.202659180320431 
356	 0.203443351694039 
357	 0.205524435699215 
358	 0.207090692061558 
359	 0.20842047033528 
360	 0.210093777154089 
361	 0.210814414341276 
362	 0.212813485776445 
363	 0.215408978261919 
364	 0.216341981513778 
365	 0.218451511533152 
366	 0.220473846539763 
367	 0.222142121779112 
368	 0.225244638074382 
369	 0.227766925040083 
370	 0.230299318306825 
371	 0.233575347832084 
372	 0.236712781938493 
373	 0.240637655073204 
374	 0.244922854277585 
375	 0.248685714702911 
376	 0.253516351480231 
377	 0.25845478558291 
378	 0.263481492962082 
379	 0.269884538459019 
380	 0.276096340565938 
381	 0.283065609306866 
382	 0.291553525854097 
383	 0.300451270642231 
384	 0.30980642994016 
385	 0.31987805493768 
386	 0.331029786448237 
387	 0.343741451415797 
388	 0.356657821860361 
389	 0.369771609290259 
390	 0.384520344531888 
391	 0.400785746213966 
392	 0.418532984038366 
393	 0.437795732160767 
394	 0.458850600785924 
395	 0.480830653885973 
396	 0.503339723383188 
397	 0.526194496820056 
398	 0.549454444247272 
399	 0.571967150794322 
400	 0.593587687892291 
401	 0.615125574359185 
402	 0.636388996636405 
403	 0.657722930891348 
404	 0.679486945134103 
405	 0.702272559792373 
406	 0.725367808427101 
407	 0.748885805117487 
408	 0.772724319415386 
409	 0.794943416893308 
410	 0.816165078693237 
411	 0.836361041204636 
412	 0.854841611268165 
413	 0.87179922148375 
414	 0.887278604633789 
415	 0.901441209398162 
416	 0.914742455510421 
417	 0.926884934575796 
418	 0.937901857564746 
419	 0.947924716399876 
420	 0.956945150150163 
421	 0.965273401298603 
422	 0.972890932690357 
423	 0.979563178663047 
424	 0.986040729716148 
425	 0.992284066520523 
426	 0.998095885109674 
427	 1.00317230424254 
428	 1.00851901149507 
429	 1.01381754280034 
430	 1.01848423210344 
431	 1.02330364652868 
432	 1.02775605528597 
433	 1.0316617880154 
434	 1.0352346530565 
435	 1.03899876737757 
436	 1.04258999400316 
437	 1.04580763576847 
438	 1.04910093353413 
439	 1.05222374886838 
440	 1.05533685076331 
441	 1.05859711937198 
442	 1.06139463470145 
443	 1.06418402901164 
444	 1.06706951534294 
445	 1.06978242375322 
446	 1.07235242139519 
447	 1.07476273200942 
448	 1.07703604477817 
449	 1.07930652778423 
450	 1.08129963753365 
451	 1.08314945873629 
452	 1.08513863232502 
453	 1.08725563174033 
454	 1.08924866287266 
455	 1.09109698717572 
456	 1.09306761856515 
457	 1.0950726772401 
458	 1.09708741865146 
459	 1.09907191726479 
460	 1.10089760306837 
461	 1.10270239955996 
462	 1.10449089128114 
463	 1.10618986949724 
464	 1.10778824033928 
465	 1.10938445521787 
466	 1.11097863361258 
467	 1.11239900878311 
468	 1.11408869506452 
469	 1.11576345086296 
470	 1.11717201913218 
471	 1.11904620256101 
472	 1.12074717490652 
473	 1.12219710546783 
474	 1.12373004409766 
475	 1.12530898746934 
476	 1.12685602671763 
477	 1.12831055933367 
478	 1.12966281152206 
479	 1.13084275682971 
480	 1.13194814084727 
481	 1.13309872725692 
482	 1.13417068885704 
483	 1.13532885775914 
484	 1.1366275241831 
485	 1.13798806837321 
486	 1.13928018654495 
487	 1.14081733082275 
488	 1.1426384369554 
489	 1.14388624614842 
490	 1.14496158815073 
491	 1.14606290492116 
492	 1.14727022465207 
493	 1.14833392996978 
494	 1.14938862150885 
495	 1.15043125469794 
496	 1.15126178749517 
497	 1.15220244122999 
498	 1.15320709623115 
499	 1.15417739477184 
500	 1.15512818160693 
501	 1.15642463535969 
502	 1.15794212634013 
503	 1.15925368121747 
504	 1.16032706823176 
505	 1.16132155784182 
506	 1.16236720623284 
507	 1.16350460655019 
508	 1.16446130876454 
509	 1.16537614472865 
510	 1.16643666541765 
511	 1.16745308283756 
512	 1.16826664919842 
513	 1.16899631368005 
514	 1.16997892944274 
515	 1.17099547432079 
516	 1.17198541409958 
517	 1.17302076445506 
518	 1.17446021910349 
519	 1.17589586405527 
520	 1.17716869666037 
521	 1.17828043571672 
522	 1.17942413036384 
523	 1.18071438979377 
524	 1.18211320119331 
525	 1.18341015685079 
526	 1.18473744730018 
527	 1.18618759565374 
528	 1.18769506802081 
529	 1.18872499567116 
530	 1.18979895153841 
531	 1.19102106854474 
532	 1.19225167960052 
533	 1.19342176999995 
534	 1.19464454731952 
535	 1.19589067098088 
536	 1.19685759194731 
537	 1.19801580776109 
538	 1.19940266866686 
539	 1.20089250266446 
540	 1.2023106029432 
541	 1.20383999525486 
542	 1.20538580849871 
543	 1.20663272162961 
544	 1.20789693713768 
545	 1.20917373682905 
546	 1.21038230238739 
547	 1.21137287312891 
548	 1.21237111472849 
549	 1.21338666040785 
550	 1.21435436084345 
551	 1.21535128394885 
552	 1.21642802473468 
553	 1.2175241718243 
554	 1.2184533030111 
555	 1.21946355733857 
556	 1.22043330890326 
557	 1.22128187323929 
558	 1.22235966351448 
559	 1.22355060727295 
560	 1.22471864370682 
561	 1.22575038289215 
562	 1.22682019256976 
563	 1.22786705149144 
564	 1.2289003558154 
565	 1.23012724984972 
566	 1.23095574720311 
567	 1.23164978684144 
568	 1.23262005788867 
569	 1.23344561214584 
570	 1.23433319806919 
571	 1.23526723209902 
572	 1.23601730957639 
573	 1.23668114357831 
574	 1.23738878142675 
575	 1.23816199356288 
576	 1.23870989993529 
577	 1.23925135200536 
578	 1.2397266043071 
579	 1.23999522002198 
580	 1.24032415820551 
581	 1.2405814281769 
582	 1.24072783565301 
583	 1.24089059323775 
584	 1.24115962792981 
585	 1.24143364817187 
586	 1.24162542916516 
587	 1.24187919459332 
588	 1.24248910391323 
589	 1.24334147963436 
590	 1.24398167523924 
591	 1.24420089999213 
592	 1.24398351334801 
593	 1.24347471681655 
594	 1.24298017383812 
595	 1.24264250828809 
596	 1.24228946185652 
597	 1.24172465119453 
598	 1.2412795509201 
599	 1.24100180734531 
600	 1.24074390189959 
601	 1.24020804176823 
602	 1.23992872050535 
603	 1.23970844019292 
604	 1.23936009358131 
605	 1.23911464012743 
606	 1.23897888633604 
607	 1.23893803478238 
608	 1.23893784663947 
609	 1.23878362510128 
610	 1.23873555695813 
611	 1.23881141942687 
612	 1.2386357955763 
613	 1.23847073606864 
614	 1.23834733029284 
615	 1.23823244536848 
616	 1.23807851421465 
617	 1.23798393573038 
618	 1.23790306812938 
619	 1.23770044934737 
620	 1.23747700249793 
621	 1.23717725989381 
622	 1.23681790262099 
623	 1.2365811364951 
624	 1.23657704594796 
625	 1.23670691916458 
626	 1.23677906032765 
627	 1.23665224053818 
628	 1.2364966119577 
629	 1.23632515088976 
630	 1.23599905480656 
631	 1.23579254084487 
632	 1.23555243051839 
633	 1.23518839205221 
634	 1.23498676475384 
635	 1.23481768381665 
636	 1.23457827019332 
637	 1.23421371559172 
638	 1.23393285752049 
639	 1.23361522707958 
640	 1.23323464993741 
641	 1.23292802746577 
642	 1.23282713808284 
643	 1.23273694514538 
644	 1.23251648164375 
645	 1.23246397573357 
646	 1.23269252420963 
647	 1.23307537374246 
648	 1.23329707568595 
649	 1.23299001146763 
650	 1.23236919571304 
651	 1.2317443011652 
652	 1.23140400240027 
653	 1.23098135087211 
654	 1.23047187933012 
655	 1.22998966121144 
656	 1.22974027837312 
657	 1.22949948463272 
658	 1.22918352569668 
659	 1.22878341898701 
660	 1.22802446854517 
661	 1.22750173511858 
662	 1.22736903315073 
663	 1.22665042768731 
664	 1.22622651102479 
665	 1.22606611726198 
666	 1.22586804035706 
667	 1.2257283390763 
668	 1.22545426479641 
669	 1.22503791504658 
670	 1.22465380279738 
671	 1.22451206622489 
672	 1.22437989517625 
673	 1.22407120264081 
674	 1.22369276579412 
675	 1.22332301865656 
676	 1.22301889625762 
677	 1.22279420623503 
678	 1.22251138969737 
679	 1.22225714073834 
680	 1.22196803982433 
681	 1.22143595351324 
682	 1.22111894469025 
683	 1.22084873839966 
684	 1.2204396219245 
685	 1.21996458892241 
686	 1.21982451600604 
687	 1.21991430575693 
688	 1.21987909579004 
689	 1.21973852070978 
690	 1.21965322235537 
691	 1.21975744345562 
692	 1.22015740832213 
693	 1.22133491774991 
694	 1.2222825300482 
695	 1.22209055743162 
696	 1.2209458776274 
697	 1.2196158914171 
698	 1.21893241470363 
699	 1.21945853221112 
700	 1.21998320409714 
701	 1.219977883882 
702	 1.21935501326812 
703	 1.21849565216856 
704	 1.2178420473578 
705	 1.21735124629642 
706	 1.21686879474202 
707	 1.21629713236866 
708	 1.21591291835196 
709	 1.21564094753917 
710	 1.21529540142229 
711	 1.21519269921751 
712	 1.21496405740102 
713	 1.2147207214517 
714	 1.21517046478074 
715	 1.21624185706042 
716	 1.21874769747034 
717	 1.22300250115756 
718	 1.22728651155972 
719	 1.22920269343695 
720	 1.2277449782151 
721	 1.22402734080357 
722	 1.22152420181133 
723	 1.22200441747009 
724	 1.22462495894405 
725	 1.2257212733117 
726	 1.22575126603044 
727	 1.22544328737828 
728	 1.22527194202706 
729	 1.22480444034151 
730	 1.22426105383632 
731	 1.22328299613071 
732	 1.22147786834489 
733	 1.21924833828708 
734	 1.21773402596557 
735	 1.21709069033584 
736	 1.21663639070981 
737	 1.21650452694262 
738	 1.21623911566984 
739	 1.21558694815667 
740	 1.21485775091492 
741	 1.21438294827475 
742	 1.21402707748855 
743	 1.21360984584393 
744	 1.21361678060676 
745	 1.21349732050479 
746	 1.21332250977674 
747	 1.21358024828676 
748	 1.2135772295366 
749	 1.2133740124249 
750	 1.21317635014852 
751	 1.21324912563964 
752	 1.21311773405879 
753	 1.21298340604379 
754	 1.21307832109151 
755	 1.21308260076497 
756	 1.21274733352317 
757	 1.21210111582883 
758	 1.2114154606539 
759	 1.21147638732451 
760	 1.21270415946026 
761	 1.21478101294134 
762	 1.21492749575726 
763	 1.21505607261595 
764	 1.21488801117884 
765	 1.21408700953792 
766	 1.21307591144789 
767	 1.21242582107607 
768	 1.21205012339783 
769	 1.21170694716351 
770	 1.21133607144958 
771	 1.21111749594584 
772	 1.21103013755328 
773	 1.21088774588521 
774	 1.21085720484116 
775	 1.21081281833347 
776	 1.21066274139926 
777	 1.21044162533666 
778	 1.21024220893621 
779	 1.21019651205081 
780	 1.21028500896693 
781	 1.20994632151003 
782	 1.20977966337878 
783	 1.20985049960869 
784	 1.20992335341479 
785	 1.20992372262009 
786	 1.21011673519175 
787	 1.21052012358229 
788	 1.21086847275405 
789	 1.21135234568912 
790	 1.21168736242982 
791	 1.21163041821015 
792	 1.21117329986714 
793	 1.21082700111671 
794	 1.21065914357006 
795	 1.21062295323542 
796	 1.21095229650882 
797	 1.21110660996901 
798	 1.21097435485684 
799	 1.21076683805574 
800	 1.21085578894158 
801	 1.2109201943163 
802	 1.21081745569564 
803	 1.21069102044414 
804	 1.21047113495336 
805	 1.21020675464576 
806	 1.20996214129095 
807	 1.20976208299832 
808	 1.20991211162827 
809	 1.21036861080758 
810	 1.21107898180758 
811	 1.21244891867868 
812	 1.21424163004311 
813	 1.21646765417547 
814	 1.21913237323264 
815	 1.22129495619844 
816	 1.22241157504016 
817	 1.2224031962255 
818	 1.22169967360402 
819	 1.22037204294772 
820	 1.2190210351385 
821	 1.21834894956516 
822	 1.21915274534207 
823	 1.21962832208236 
824	 1.21915891424124 
825	 1.21781439571462 
826	 1.21612917636136 
827	 1.21590931764554 
828	 1.21657182756263 
829	 1.2166543614912 
830	 1.21637096804657 
831	 1.21600538822941 
832	 1.21540311050589 
833	 1.21422648824868 
834	 1.21358770873779 
835	 1.2129003490568 
836	 1.21199995008202 
837	 1.21142251895935 
838	 1.21066344879388 
839	 1.21009343747462 
840	 1.20989323751254 
841	 1.20955268828322 
842	 1.20923902646473 
843	 1.20881556734726 
844	 1.20828088507268 
845	 1.20833434796237 
846	 1.20820209487782 
847	 1.20790728848455 
848	 1.20772497211016 
849	 1.20710047644615 
850	 1.20688010480798 
851	 1.20707072238464 
852	 1.20703980446058 
853	 1.20702875611216 
854	 1.20690630142688 
855	 1.20664292367418 
856	 1.20635839537548 
857	 1.20599506332387 
858	 1.20564283116774 
859	 1.20530980990357 
860	 1.20486187050577 
861	 1.20464770432493 
862	 1.20427530492344 
863	 1.2035104558975 
864	 1.20296671927375 
865	 1.20274873878555 
866	 1.20264358328981 
867	 1.20239324911396 
868	 1.20214304640937 
869	 1.20185130377995 
870	 1.20154116748683 
871	 1.20125866174902 
872	 1.20103223029039 
873	 1.20072058241186 
874	 1.20048678287338 
875	 1.200625520956 
876	 1.20068532361511 
877	 1.20089287220292 
878	 1.20126572388159 
879	 1.20154794028384 
880	 1.20154401981095 
881	 1.20172490115976 
882	 1.20222830272528 
883	 1.20261117930506 
884	 1.20287666893576 
885	 1.20287081901576 
886	 1.2027174824932 
887	 1.20304081263598 
888	 1.20344847688734 
889	 1.20376485422328 
890	 1.2040334077597 
891	 1.20463868810507 
892	 1.2062059233807 
893	 1.20763161359433 
894	 1.20818382955737 
895	 1.21067622148528 
896	 1.21273840190156 
897	 1.21406260975333 
898	 1.21516995391275 
899	 1.21569123691376 
900	 1.21577069602678 
901	 1.2150934901191 
902	 1.21354992129514 
903	 1.21317844733672 
904	 1.21209669434353 
905	 1.21105679914611 
906	 1.21203248726318 
907	 1.21272663113237 
908	 1.21464904684218 
909	 1.21683588467808 
910	 1.21658061815971 
911	 1.21676394813676 
912	 1.21745194145829 
913	 1.21790953869029 
914	 1.21723552313942 
915	 1.21756623606642 
916	 1.21750720949113 
917	 1.21647976762856 
918	 1.21537382987993 
919	 1.21464407184261 
920	 1.21401192681013 
921	 1.21330353869914 
922	 1.21270235133904 
923	 1.21321747265071 
924	 1.21429769664992 
925	 1.21555302234311 
926	 1.21736744441096 
927	 1.22121182211287 
928	 1.22554127568643 
929	 1.22945497911546 
930	 1.23471976040306 
931	 1.24229631103596 
932	 1.24924096471956 
933	 1.2536471189711 
934	 1.25912040422061 
935	 1.26071878312269 
936	 1.2611531551937 
937	 1.26171853003068 
938	 1.25712462507734 
939	 1.25510727170798 
940	 1.2540613239241 
941	 1.25177267722109 
942	 1.24905801706373 
943	 1.24981992439664 
944	 1.25163188962361 
945	 1.25175690047093 
946	 1.2506455941882 
947	 1.25205787515428 
948	 1.25362128734103 
949	 1.25296697529327 
950	 1.25148042428183 
951	 1.25075143075163 
952	 1.25092255820182 
953	 1.2511006136585 
954	 1.24943551505205 
955	 1.24635775087242 
956	 1.24456689345161 
957	 1.24472400692697 
958	 1.24271572049762 
959	 1.24171949289928 
960	 1.24026915519863 
961	 1.2372139422659 
962	 1.23390459596751 
963	 1.23112281006038 
964	 1.22821386998772 
965	 1.22524715141182 
966	 1.22388629987307 
967	 1.2213960099277 
968	 1.21883973099781 
969	 1.21726559089155 
970	 1.21632515744898 
971	 1.21344176577599 
972	 1.21297480076182 
973	 1.21531499740242 
974	 1.21386260510982 
975	 1.21490098682832 
976	 1.2138404520982 
977	 1.21005770960844 
978	 1.20989306158388 
979	 1.21097539249941 
980	 1.20980449420615 
981	 1.20623244752282 
982	 1.20390202082733 
983	 1.20482855574928 
984	 1.20403061806648 
985	 1.20094936259034 
986	 1.19961523189928 
987	 1.198931214296 
988	 1.19813821258027 
989	 1.19780313315129 
990	 1.19880122001276 
991	 1.19736538053193 
992	 1.19680892341494 
993	 1.19663430137846 
994	 1.19468758351614 
995	 1.19510093362364 
996	 1.19568113360062 
997	 1.19580471677849 
998	 1.19550608241663 
999	 1.1932179273646 
1000	 1.19200904799381 
1001	 1.18456204378817 
1002	 1.18441110645039 
1003	 1.18411043487978 
1004	 1.18377057434464 
1005	 1.18356817467575 
1006	 1.18338693889757 
1007	 1.18317118502295 
1008	 1.1831476776443 
1009	 1.18297704274999 
1010	 1.18267097088983 
1011	 1.18234067701488 
1012	 1.18221152222072 
1013	 1.18205719945112 
1014	 1.18180754879474 
1015	 1.18155829437847 
1016	 1.18147731480942 
1017	 1.18128735345732 
1018	 1.18107274260789 
1019	 1.18106926950559 
1020	 1.18079549698396 
1021	 1.18022860236379 
1022	 1.17989548754773 
1023	 1.17959526546001 
1024	 1.17924187973935 
1025	 1.17912227179908 
1026	 1.17870364370624 
1027	 1.17833114467113 
1028	 1.17807382560323 
1029	 1.17765079005244 
1030	 1.17735280769125 
1031	 1.17697138626999 
1032	 1.17658103898995 
1033	 1.17634516474962 
1034	 1.17625885142959 
1035	 1.17608066510822 
1036	 1.1760621421007 
1037	 1.17587456389711 
1038	 1.17562949747776 
1039	 1.17519774629381 
1040	 1.17467811437252 
1041	 1.17405201830741 
1042	 1.17364615038649 
1043	 1.17327284656909 
1044	 1.17297143262634 
1045	 1.17284946717767 
1046	 1.17257976185504 
1047	 1.17230143328643 
1048	 1.17201518075776 
1049	 1.17161674632999 
1050	 1.17133281565478 
1051	 1.17106122240655 
1052	 1.17082126085739 
1053	 1.17060108758361 
1054	 1.17046255181509 
1055	 1.17024630270967 
1056	 1.16993104310266 
1057	 1.16955647625713 
1058	 1.16929410925899 
1059	 1.16915481720756 
1060	 1.16901231355694 
1061	 1.16878591053125 
1062	 1.16848663792127 
1063	 1.16807199132034 
1064	 1.16764508758045 
1065	 1.16740898369432 
1066	 1.16738161859009 
1067	 1.16731168718846 
1068	 1.16715710902692 
1069	 1.16709283247202 
1070	 1.16692627378478 
1071	 1.16672259424832 
1072	 1.16658410763967 
1073	 1.16648113626399 
1074	 1.16626081783453 
1075	 1.16599523621381 
1076	 1.16578395722495 
1077	 1.1655599733157 
1078	 1.16536373665283 
1079	 1.16505502045429 
1080	 1.16486732017525 
1081	 1.16483421144254 
1082	 1.16490966904075 
1083	 1.16482607807166 
1084	 1.16485219682566 
1085	 1.16506030348632 
1086	 1.16505270078524 
1087	 1.16498575571503 
1088	 1.16519329696588 
1089	 1.1653033307798 
1090	 1.16524082576354 
1091	 1.16541268801048 
1092	 1.1657773776548 
1093	 1.16617159564988 
1094	 1.16669155821117 
1095	 1.16729965940013 
1096	 1.16784156032017 
1097	 1.16830024568394 
1098	 1.16883160070098 
1099	 1.1693758764978 
1100	 1.17003510707364 
1101	 1.17051222564725 
1102	 1.1709195938222 
1103	 1.17157005667827 
1104	 1.17208614737333 
1105	 1.17286096886585 
1106	 1.17415768716733 
1107	 1.17543378256243 
1108	 1.1768613472459 
1109	 1.17858026468185 
1110	 1.18021783932149 
1111	 1.18206680883812 
1112	 1.18415808596261 
1113	 1.1864203592955 
1114	 1.189133652857 
1115	 1.19187184139363 
1116	 1.19485922643117 
1117	 1.19794858178121 
1118	 1.20118530795619 
1119	 1.20381159265967 
1120	 1.2060509001914 
1121	 1.20755112241323 
1122	 1.20772450387767 
1123	 1.20700140350129 
1124	 1.20557352341502 
1125	 1.20351463664164 
1126	 1.20068267370613 
1127	 1.19756934438799 
1128	 1.19319366774344 
1129	 1.18758652253581 
1130	 1.18237960103902 
1131	 1.1763595209883 
1132	 1.17123889344108 
1133	 1.16638594769506 
1134	 1.1620792137532 
1135	 1.15817071565006 
1136	 1.15463259740574 
1137	 1.15156994356674 
1138	 1.1491435957417 
1139	 1.14755652962971 
1140	 1.14685480477824 
1141	 1.14698946869879 
1142	 1.14770340126759 
1143	 1.14866139515979 
1144	 1.15028629532444 
1145	 1.151666442015 
1146	 1.15334137514913 
1147	 1.15480350145126 
1148	 1.15647010190777 
1149	 1.15756541098973 
1150	 1.15870970115851 
1151	 1.15907030488856 
1152	 1.15900838849242 
1153	 1.15818216320091 
1154	 1.15710962969146 
1155	 1.15592265254447 
1156	 1.15458312871717 
1157	 1.15310821375314 
1158	 1.15136991618847 
1159	 1.14944594272761 
1160	 1.14764326072377 
1161	 1.14573902966867 
1162	 1.14391775548063 
1163	 1.14212133831235 
1164	 1.14037222067716 
1165	 1.13858113125899 
1166	 1.13677803756441 
1167	 1.13484562451826 
1168	 1.13318105112024 
1169	 1.13156174250724 
1170	 1.13001994709906 
1171	 1.12856910104569 
1172	 1.12735276514983 
1173	 1.12594724166691 
