Wavelength	ref00006.asd
350	 6.30209873868765E-02 
351	 6.34078567665376E-02 
352	 6.35699544462155E-02 
353	 6.39372640666112E-02 
354	 6.44851812808617E-02 
355	 6.44942360889204E-02 
356	 6.39085108774218E-02 
357	 6.42732232049986E-02 
358	 0.064369016895119 
359	 6.43594948168288E-02 
360	 6.47248269559342E-02 
361	 6.54035148501515E-02 
362	 6.60435621836945E-02 
363	 6.62137871588634E-02 
364	 6.56568693303527E-02 
365	 6.60677896333799E-02 
366	 6.64315547819553E-02 
367	 0.066277206879984 
368	 6.63504140046308E-02 
369	 6.63979858098429E-02 
370	 6.66533921491488E-02 
371	 6.72221955264676E-02 
372	 0.067531859988358 
373	 6.78480817787066E-02 
374	 6.80365668782878E-02 
375	 6.78919178072034E-02 
376	 6.82712974835167E-02 
377	 6.87232021416408E-02 
378	 6.90195222374568E-02 
379	 6.93471675375289E-02 
380	 6.96258130514927E-02 
381	 6.99466414378143E-02 
382	 7.03117631434186E-02 
383	 7.03713803747964E-02 
384	 7.05682669972461E-02 
385	 7.09234562972676E-02 
386	 7.12696880965768E-02 
387	 7.15556659131874E-02 
388	 7.22043244535986E-02 
389	 0.072931442422492 
390	 7.27814224608494E-02 
391	 7.30529731650532E-02 
392	 7.33210137115514E-02 
393	 0.073244465609208 
394	 0.073363196477443 
395	 0.073782416666204 
396	 7.42821985593297E-02 
397	 7.46132043815278E-02 
398	 7.51175676751361E-02 
399	 7.54665927397287E-02 
400	 7.57299219924345E-02 
401	 7.62797131894834E-02 
402	 7.65867874094818E-02 
403	 7.67013569707888E-02 
404	 7.67939845780814E-02 
405	 7.71131540179998E-02 
406	 7.72740706543719E-02 
407	 7.73904489762469E-02 
408	 7.77067490074513E-02 
409	 7.82023130574599E-02 
410	 7.85400142496762E-02 
411	 7.87269978358619E-02 
412	 7.90714589526284E-02 
413	 7.94962484494513E-02 
414	 7.97970537316564E-02 
415	 7.99320420947953E-02 
416	 8.02154491516228E-02 
417	 8.07006333670688E-02 
418	 8.10332963077231E-02 
419	 8.09296443952063E-02 
420	 8.11957152301248E-02 
421	 8.15539975817617E-02 
422	 8.18559918284858E-02 
423	 8.21238452964133E-02 
424	 8.24896567044319E-02 
425	 8.27915901518658E-02 
426	 8.29391829975305E-02 
427	 8.30812962145618E-02 
428	 8.33866117221978E-02 
429	 8.36748952137572E-02 
430	 8.37540040231904E-02 
431	 8.40708984089959E-02 
432	 8.44887365522245E-02 
433	 8.48632141452743E-02 
434	 8.50948042673451E-02 
435	 8.53940341315299E-02 
436	 0.085704478830587 
437	 8.59645574624413E-02 
438	 8.61908314444279E-02 
439	 8.64182560139218E-02 
440	 8.66412223447023E-02 
441	 8.68486503229642E-02 
442	 8.70940084654084E-02 
443	 8.73180109254093E-02 
444	 8.75402118814384E-02 
445	 8.78501490379795E-02 
446	 8.80097393032016E-02 
447	 8.81647176093766E-02 
448	 8.84364730094724E-02 
449	 8.87247228735047E-02 
450	 8.89652597535843E-02 
451	 8.91420071713773E-02 
452	 8.92810680146476E-02 
453	 8.94922131087547E-02 
454	 8.96909231889687E-02 
455	 8.98720435836542E-02 
456	 9.01391972212209E-02 
457	 9.04462655467493E-02 
458	 9.06984335000686E-02 
459	 9.08542113664228E-02 
460	 0.091049173843486 
461	 9.12734814030591E-02 
462	 9.14916433608705E-02 
463	 9.16590278097322E-02 
464	 9.18025894730309E-02 
465	 9.19867488265473E-02 
466	 9.22017970832727E-02 
467	 9.23225642749716E-02 
468	 9.24779654141365E-02 
469	 9.26535230464741E-02 
470	 9.28203418165007E-02 
471	 9.30691297255146E-02 
472	 9.32294029855289E-02 
473	 9.33449981881932E-02 
474	 9.35921014620286E-02 
475	 9.37755938320132E-02 
476	 9.39083256241763E-02 
477	 9.40488893443788E-02 
478	 9.42880130060994E-02 
479	 9.45203765030862E-02 
480	 9.47332358627595E-02 
481	 9.49382140914948E-02 
482	 9.50953670201878E-02 
483	 9.52693604243891E-02 
484	 9.54631546200129E-02 
485	 9.56147999011462E-02 
486	 9.57362734084811E-02 
487	 0.095874515170784 
488	 9.60779563501803E-02 
489	 9.63871361838448E-02 
490	 9.66974108373141E-02 
491	 9.69583769050185E-02 
492	 0.097158481415221 
493	 9.73160210280106E-02 
494	 9.75430008561073E-02 
495	 9.78410876739274E-02 
496	 9.80717542511268E-02 
497	 9.82731759900327E-02 
498	 9.84622698948893E-02 
499	 9.86460082583134E-02 
500	 9.87917085084383E-02 
501	 9.90555833860436E-02 
502	 0.099349254442342 
503	 9.94798814764981E-02 
504	 9.98504324720585E-02 
505	 0.100146500054627 
506	 0.100253150647945 
507	 0.100516558741759 
508	 0.100746188779014 
509	 0.100974754797144 
510	 0.101268855821199 
511	 0.101552711130337 
512	 0.101844091233048 
513	 0.102134652505784 
514	 0.102392789125127 
515	 0.102615723817474 
516	 0.102834015472561 
517	 0.103067620006364 
518	 0.103277645745298 
519	 0.103693509019416 
520	 0.104129616241312 
521	 0.104318926646557 
522	 0.104569414327376 
523	 0.104857474373499 
524	 0.105124537270761 
525	 0.105296885903556 
526	 0.105521312801407 
527	 0.105797019899087 
528	 0.106108059409221 
529	 0.106525174376763 
530	 0.106870850804094 
531	 0.107070122055366 
532	 0.10714780595527 
533	 0.107396354303371 
534	 0.107763079382195 
535	 0.10815104864943 
536	 0.108476133741265 
537	 0.108702571692679 
538	 0.108925288433002 
539	 0.109232082248504 
540	 0.109462578608737 
541	 0.109746384459863 
542	 0.11004992198134 
543	 0.110212957253415 
544	 0.11050779410227 
545	 0.110856636390364 
546	 0.111152211996855 
547	 0.111340854931069 
548	 0.111613850081774 
549	 0.111942412908081 
550	 0.112220616500744 
551	 0.112516187599646 
552	 0.112819956590274 
553	 0.113103625057357 
554	 0.113322836021982 
555	 0.113586717186139 
556	 0.113857039754339 
557	 0.114096158862847 
558	 0.114405246895553 
559	 0.11465876577237 
560	 0.114862316469755 
561	 0.115104460517867 
562	 0.115340206784776 
563	 0.115518500887478 
564	 0.115638353874883 
565	 0.115780336331651 
566	 0.115975518248047 
567	 0.116236572989927 
568	 0.116529781434791 
569	 0.116675284427794 
570	 0.116759598020819 
571	 0.116879897790519 
572	 0.117117152694042 
573	 0.117292838270171 
574	 0.117437519405097 
575	 0.117605307303709 
576	 0.117800362972356 
577	 0.118010730580421 
578	 0.118254862926276 
579	 0.118554840798169 
580	 0.118856154340016 
581	 0.119123674645749 
582	 0.119348529257998 
583	 0.119552247975971 
584	 0.119761272545263 
585	 0.119961920888922 
586	 0.120137975960287 
587	 0.120322599660826 
588	 0.120444439143593 
589	 0.120466101585688 
590	 0.120405802360483 
591	 0.120566145498466 
592	 0.120715514428627 
593	 0.120728192538546 
594	 0.120789921329166 
595	 0.120968378828312 
596	 0.121159083188422 
597	 0.121253787669499 
598	 0.121474268169152 
599	 0.121734997342554 
600	 0.121978344291511 
601	 0.122187940719156 
602	 0.122309328098887 
603	 0.122448670822882 
604	 0.122656376032285 
605	 0.12275887394799 
606	 0.122781674202267 
607	 0.122790769725774 
608	 0.122865447479725 
609	 0.122969920430724 
610	 0.12307125494025 
611	 0.123131635258697 
612	 0.123107265339415 
613	 0.123164951657252 
614	 0.123282299451131 
615	 0.123377959252158 
616	 0.123371133843467 
617	 0.123359151255463 
618	 0.123403147647817 
619	 0.12352057688072 
620	 0.123604567939303 
621	 0.12371828342907 
622	 0.123872489054743 
623	 0.123930600671073 
624	 0.12393759483575 
625	 0.12396729283435 
626	 0.124087138224518 
627	 0.124269982461324 
628	 0.1243672897049 
629	 0.124377432613872 
630	 0.12444422351529 
631	 0.124585013958966 
632	 0.124686241963567 
633	 0.124695523492038 
634	 0.124786644644663 
635	 0.124873060798087 
636	 0.124979370624077 
637	 0.125148479262189 
638	 0.125219114073956 
639	 0.12526453895524 
640	 0.125322490772819 
641	 0.125359046902353 
642	 0.125439242194996 
643	 0.125545974994884 
644	 0.12564115220355 
645	 0.125696597993546 
646	 0.125683776028894 
647	 0.12566136478211 
648	 0.125729914215536 
649	 0.125822142910021 
650	 0.125883825179702 
651	 0.125913478698487 
652	 0.125989720371501 
653	 0.126168089152816 
654	 0.126346222000124 
655	 0.126397733208785 
656	 0.126298541152192 
657	 0.126237480010227 
658	 0.126305769781776 
659	 0.126466329931712 
660	 0.126545165963475 
661	 0.126541387861873 
662	 0.126500036863501 
663	 0.126501391039978 
664	 0.126575116426897 
665	 0.126629412701373 
666	 0.126583780628789 
667	 0.12665331368685 
668	 0.126696968595113 
669	 0.126694840931299 
670	 0.126748511134146 
671	 0.126818472925498 
672	 0.126906791801544 
673	 0.126985348827131 
674	 0.126925393744613 
675	 0.126987516714074 
676	 0.127131062554675 
677	 0.127210919460979 
678	 0.12724760233985 
679	 0.12737364901641 
680	 0.127567679688391 
681	 0.127651775910384 
682	 0.127828911148345 
683	 0.128035218794686 
684	 0.12821105722696 
685	 0.128453373110529 
686	 0.128692288515444 
687	 0.128894048241049 
688	 0.129058943117398 
689	 0.129476418749876 
690	 0.129827425211414 
691	 0.130078377473049 
692	 0.13049914957435 
693	 0.130976249619651 
694	 0.131484301899715 
695	 0.131955791127249 
696	 0.132145906667077 
697	 0.132583729823836 
698	 0.133135499350767 
699	 0.133427056322355 
700	 0.133786965451407 
701	 0.134127247683105 
702	 0.134415029133084 
703	 0.134721205635894 
704	 0.135085658165031 
705	 0.135420926064936 
706	 0.135680282345932 
707	 0.13599687857533 
708	 0.136286791663148 
709	 0.13657045143139 
710	 0.136891555838856 
711	 0.137123432211565 
712	 0.137354392921035 
713	 0.137606097935594 
714	 0.13780634848388 
715	 0.138058541846162 
716	 0.13833191676373 
717	 0.138572600331185 
718	 0.13870879409182 
719	 0.138912427338615 
720	 0.139130774827263 
721	 0.13925393536982 
722	 0.139545294465123 
723	 0.139802742493 
724	 0.139928037197711 
725	 0.139943638312003 
726	 0.140179132631867 
727	 0.140456542070924 
728	 0.140619729546677 
729	 0.1408052768792 
730	 0.141025426985681 
731	 0.141253694494189 
732	 0.141446992805919 
733	 0.141573144501477 
734	 0.141737820740082 
735	 0.141950174041089 
736	 0.142124542319861 
737	 0.14224445486747 
738	 0.142382488499001 
739	 0.142580391681348 
740	 0.142785079235969 
741	 0.142882964935334 
742	 0.142974199180467 
743	 0.143183477915153 
744	 0.143381976239389 
745	 0.143600119069988 
746	 0.143780394707974 
747	 0.143825444665726 
748	 0.143998802520756 
749	 0.144180282165638 
750	 0.144312717456524 
751	 0.144538821772384 
752	 0.14466723593657 
753	 0.144746216424828 
754	 0.144863619376534 
755	 0.144973914599353 
756	 0.14517679186626 
757	 0.145520717559425 
758	 0.145985432433893 
759	 0.146221267220356 
760	 0.146188536606383 
761	 0.146013781633903 
762	 0.146272461806245 
763	 0.146294352305192 
764	 0.146336767572077 
765	 0.146548195813088 
766	 0.146559503657401 
767	 0.146694868147221 
768	 0.146891979258825 
769	 0.147017284542063 
770	 0.147114543346789 
771	 0.14725729814557 
772	 0.147420143439386 
773	 0.147509568017381 
774	 0.147688134221364 
775	 0.147846444454409 
776	 0.147932051661724 
777	 0.148058963238653 
778	 0.148200679708184 
779	 0.148382083978219 
780	 0.14858874738903 
781	 0.148627195437995 
782	 0.148781693542474 
783	 0.148998582913708 
784	 0.149081187024089 
785	 0.149242245545505 
786	 0.149418904818148 
787	 0.149539895525159 
788	 0.149562950445433 
789	 0.149712519263464 
790	 0.149850899847336 
791	 0.149925735419253 
792	 0.150220179347096 
793	 0.150429757366657 
794	 0.15055585750693 
795	 0.150692636551468 
796	 0.150867614912034 
797	 0.15102624528072 
798	 0.151171153387914 
799	 0.151326786156333 
800	 0.151385637318902 
801	 0.151542357147687 
802	 0.151743525292415 
803	 0.151662440961082 
804	 0.151886495421563 
805	 0.152143824390904 
806	 0.152204204727237 
807	 0.152267889911774 
808	 0.152483078619509 
809	 0.152721094080483 
810	 0.152827732586052 
811	 0.152962704749533 
812	 0.153058887463392 
813	 0.153201538663334 
814	 0.153494646133579 
815	 0.153476673507056 
816	 0.153528236869072 
817	 0.153769149653429 
818	 0.153944076759105 
819	 0.153990628098469 
820	 0.15411781827421 
821	 0.154384456820597 
822	 0.15452920185881 
823	 0.154464971799429 
824	 0.154540546556439 
825	 0.15495484569315 
826	 0.155143942759006 
827	 0.155172241979911 
828	 0.155182375016429 
829	 0.155326240111515 
830	 0.155537527909798 
831	 0.155739518795878 
832	 0.155884724656963 
833	 0.15597364637424 
834	 0.156175205247695 
835	 0.156378978663733 
836	 0.156504388148688 
837	 0.156555824587549 
838	 0.156636326441807 
839	 0.156725332586808 
840	 0.156838299958688 
841	 0.157124501049682 
842	 0.157176993060386 
843	 0.157142230719943 
844	 0.157278261897721 
845	 0.157649201490112 
846	 0.1577436715809 
847	 0.157731301497963 
848	 0.157968825674556 
849	 0.157944874504049 
850	 0.158165286912248 
851	 0.158574845963819 
852	 0.158694565279599 
853	 0.158585139366887 
854	 0.158590256063817 
855	 0.158820397560229 
856	 0.159066275025427 
857	 0.159176358540619 
858	 0.159259211648792 
859	 0.159386617361935 
860	 0.159491821767725 
861	 0.159702675008946 
862	 0.159874913020013 
863	 0.159911676989328 
864	 0.160018424731436 
865	 0.159984222627586 
866	 0.159954391278579 
867	 0.160150311435173 
868	 0.160596292195495 
869	 0.16083030450377 
870	 0.160760881237323 
871	 0.160586699939082 
872	 0.160835008082589 
873	 0.16111411465127 
874	 0.161243978038666 
875	 0.16126960381831 
876	 0.161395855921053 
877	 0.161414320155403 
878	 0.161409882626908 
879	 0.161740555223706 
880	 0.162030448422525 
881	 0.16215618311945 
882	 0.16220151878978 
883	 0.162446141028681 
884	 0.162490680087259 
885	 0.162484017840133 
886	 0.162606911798702 
887	 0.162884496610285 
888	 0.163049200158947 
889	 0.163031730553051 
890	 0.162945337125837 
891	 0.163194029655942 
892	 0.163308424284504 
893	 0.16336136227508 
894	 0.163508582892507 
895	 0.163523399055525 
896	 0.163530397838548 
897	 0.163726795756628 
898	 0.164172376741444 
899	 0.164227415085281 
900	 0.164291761671369 
901	 0.164420812321003 
902	 0.164516445409943 
903	 0.164798243503788 
904	 0.165173261848562 
905	 0.165525491148799 
906	 0.165686330316857 
907	 0.165126002658536 
908	 0.164849325733328 
909	 0.165171317548102 
910	 0.16563010158542 
911	 0.165656036661956 
912	 0.165782191893105 
913	 0.166082117626724 
914	 0.166094695877552 
915	 0.165937147918254 
916	 0.165819084535988 
917	 0.165967109513875 
918	 0.166525407138811 
919	 0.166941471238498 
920	 0.166893426900991 
921	 0.166604911922057 
922	 0.166847166366128 
923	 0.167216723219292 
924	 0.167420215512477 
925	 0.167478177520903 
926	 0.167830311548744 
927	 0.167457071427461 
928	 0.167033588057161 
929	 0.167131116318086 
930	 0.167337829216323 
931	 0.167657563086341 
932	 0.167330854753198 
933	 0.16654422653255 
934	 0.167857683614947 
935	 0.168225227153508 
936	 0.168242692835675 
937	 0.168888848448003 
938	 0.169801871965945 
939	 0.16972369961697 
940	 0.169139613653314 
941	 0.168739118079164 
942	 0.168738449321151 
943	 0.168798945391948 
944	 0.168684344484874 
945	 0.168613525038406 
946	 0.169660710115814 
947	 0.170316336500989 
948	 0.170344395324378 
949	 0.169986431422404 
950	 0.169605846950976 
951	 0.169980277247676 
952	 0.170070613566183 
953	 0.169623821145178 
954	 0.17087347446045 
955	 0.170917276582522 
956	 0.17042005203719 
957	 0.170404815166555 
958	 0.170690923724774 
959	 0.171380773544385 
960	 0.171683295026607 
961	 0.171302195382676 
962	 0.171155893334618 
963	 0.171808763504652 
964	 0.172383087684319 
965	 0.172057488786361 
966	 0.170800178629143 
967	 0.171829378683618 
968	 0.173024008896476 
969	 0.172613603892066 
970	 0.171382670986919 
971	 0.172025632416685 
972	 0.172241245595462 
973	 0.171091731046857 
974	 0.171030911402086 
975	 0.172334483425425 
976	 0.173646306918728 
977	 0.173693607348573 
978	 0.172206279950051 
979	 0.17276523874045 
980	 0.173224636393876 
981	 0.172595447208114 
982	 0.172205532483318 
983	 0.172451777118277 
984	 0.173166936746725 
985	 0.173939363173929 
986	 0.174314639607815 
987	 0.174466740981087 
988	 0.173953298077585 
989	 0.173312001860662 
990	 0.173575552646465 
991	 0.173824112408389 
992	 0.173910544725688 
993	 0.173959563048109 
994	 0.17420300807131 
995	 0.174519981257752 
996	 0.175807886992384 
997	 0.176342581871212 
998	 0.174535988720085 
999	 0.174649242203922 
1000	 0.175092750507207 
1001	 0.171909894754458 
1002	 0.172071171260485 
1003	 0.172204846907033 
1004	 0.172379599777568 
1005	 0.172534239849402 
1006	 0.172717747860506 
1007	 0.172860046663465 
1008	 0.1730219283992 
1009	 0.173152123580032 
1010	 0.173304101787062 
1011	 0.173291855474299 
1012	 0.173251360108457 
1013	 0.173287678701767 
1014	 0.17333429385104 
1015	 0.173435877474849 
1016	 0.173671974487926 
1017	 0.173841332083507 
1018	 0.173942035402976 
1019	 0.173980153967177 
1020	 0.174104499708128 
1021	 0.174213718997103 
1022	 0.174299935905923 
1023	 0.17444846176276 
1024	 0.174534680920534 
1025	 0.174558190539656 
1026	 0.174636060391359 
1027	 0.174779323499459 
1028	 0.174905729169396 
1029	 0.174961950887822 
1030	 0.175070092831327 
1031	 0.175228905055297 
1032	 0.175379912010934 
1033	 0.175546773953824 
1034	 0.1757683699542 
1035	 0.175945247166655 
1036	 0.176124370033233 
1037	 0.176264460473877 
1038	 0.176393937775223 
1039	 0.176486198617503 
1040	 0.176533884952177 
1041	 0.176623742809671 
1042	 0.176745830434781 
1043	 0.17683891348638 
1044	 0.176991493172991 
1045	 0.177144152019857 
1046	 0.177234731357126 
1047	 0.177336235519009 
1048	 0.177448315334266 
1049	 0.17756916301614 
1050	 0.177686139934742 
1051	 0.177816349488446 
1052	 0.178006557476499 
1053	 0.178097487006821 
1054	 0.178087121951893 
1055	 0.178195076704043 
1056	 0.178233374848694 
1057	 0.178223775647353 
1058	 0.178344092192701 
1059	 0.17839960538402 
1060	 0.178376856557589 
1061	 0.178388041891639 
1062	 0.178374925440112 
1063	 0.178388476506382 
1064	 0.178419102068269 
1065	 0.178422558124541 
1066	 0.178444109330207 
1067	 0.178480089476787 
1068	 0.17844799010571 
1069	 0.17840136065493 
1070	 0.178524639156691 
1071	 0.178707991566013 
1072	 0.178813825613207 
1073	 0.178941665512877 
1074	 0.178929152573775 
1075	 0.178832671042455 
1076	 0.178872571691332 
1077	 0.178890352576728 
1078	 0.17892064133553 
1079	 0.178935353698512 
1080	 0.178870322980176 
1081	 0.178896592816458 
1082	 0.178965261028123 
1083	 0.179065105488567 
1084	 0.179148229503215 
1085	 0.179238421000325 
1086	 0.179260889741828 
1087	 0.179303132342717 
1088	 0.179365542127134 
1089	 0.179413226447693 
1090	 0.179449376534866 
1091	 0.17943465701673 
1092	 0.179481309682458 
1093	 0.179576785591594 
1094	 0.179653571481295 
1095	 0.179755831322391 
1096	 0.179828669601985 
1097	 0.179858913380151 
1098	 0.179924606352048 
1099	 0.17999873366481 
1100	 0.180045344412081 
1101	 0.180177023743116 
1102	 0.180304930579569 
1103	 0.180390029802223 
1104	 0.180473758614742 
1105	 0.180507716127298 
1106	 0.180515233119024 
1107	 0.180573839673369 
1108	 0.180713085586233 
1109	 0.180852039640143 
1110	 0.180953043429437 
1111	 0.181049116437555 
1112	 0.181117727207729 
1113	 0.181194832457324 
1114	 0.181221952636292 
1115	 0.181316984305165 
1116	 0.181454414585022 
1117	 0.18162627945027 
1118	 0.181697672470921 
1119	 0.181904973146489 
1120	 0.18211747010582 
1121	 0.182167365863821 
1122	 0.182295464342033 
1123	 0.182442226189509 
1124	 0.182397756244897 
1125	 0.18231557359515 
1126	 0.182433430782693 
1127	 0.182691653074989 
1128	 0.182827070777064 
1129	 0.183093196168572 
1130	 0.183198499769299 
1131	 0.183035425623456 
1132	 0.183080299812027 
1133	 0.183184650326737 
1134	 0.183321054301254 
1135	 0.183472345565395 
1136	 0.183728507175734 
1137	 0.183951214836688 
1138	 0.184039272101184 
1139	 0.184085728785125 
1140	 0.18407480511039 
1141	 0.184081475523671 
1142	 0.184232900747319 
1143	 0.184377181106453 
1144	 0.184681690372189 
1145	 0.184809280342261 
1146	 0.184802002668713 
1147	 0.184902672421112 
1148	 0.184974890090242 
1149	 0.185098197523052 
1150	 0.18540057383323 
1151	 0.185514013900562 
1152	 0.185471181013446 
1153	 0.185519800222578 
1154	 0.185661949648606 
1155	 0.185743106439627 
1156	 0.185910372515708 
1157	 0.186126357452242 
1158	 0.186299234216556 
1159	 0.186377361340372 
1160	 0.186438524691492 
1161	 0.186463042261698 
1162	 0.18655155878702 
1163	 0.186613338791095 
1164	 0.186711582781077 
1165	 0.186893584537273 
1166	 0.187037902334184 
1167	 0.187175519198291 
1168	 0.187265180674996 
1169	 0.187322785279677 
1170	 0.187423447320358 
1171	 0.187498795819853 
1172	 0.187561774867118 
1173	 0.187693981833214 
1174	 0.187887225234197 
1175	 0.188076577716865 
1176	 0.188209295780749 
1177	 0.188307616317815 
1178	 0.188369167309904 
1179	 0.188436244398578 
1180	 0.188454504803049 
1181	 0.188514913803469 
1182	 0.188604748576947 
1183	 0.188680931339557 
1184	 0.188737358353764 
1185	 0.188819577036393 
1186	 0.188953414552271 
1187	 0.189028764220551 
1188	 0.189087395702232 
1189	 0.189111822987259 
1190	 0.189181108809515 
1191	 0.189242957094986 
1192	 0.189349337119326 
1193	 0.189481585801139 
1194	 0.189523854163139 
1195	 0.189474431822823 
1196	 0.189528321717092 
1197	 0.189585008267336 
1198	 0.189647081824733 
1199	 0.189783392289405 
1200	 0.189859311595589 
1201	 0.189891331656998 
1202	 0.189939357408137 
1203	 0.189959911642826 
1204	 0.190026385506694 
1205	 0.190140924468285 
1206	 0.190196892615007 
1207	 0.190256440630212 
1208	 0.190310320340764 
1209	 0.190315768843368 
1210	 0.190307392188065 
1211	 0.190372384045878 
1212	 0.190485362783964 
1213	 0.190581788098634 
1214	 0.190730409539235 
1215	 0.190784855064978 
1216	 0.190762580119471 
1217	 0.190841733713747 
1218	 0.190937728672087 
1219	 0.191015342633462 
1220	 0.191156654295986 
1221	 0.191249346250053 
1222	 0.191284395964933 
1223	 0.191330591508967 
1224	 0.191379224948891 
1225	 0.191442468174397 
1226	 0.191496594127495 
1227	 0.191547808091986 
1228	 0.191616071767015 
1229	 0.191687925586166 
1230	 0.191733903059499 
1231	 0.191757907919422 
1232	 0.191839114776473 
1233	 0.191956538926398 
1234	 0.192043797204658 
1235	 0.192166383430733 
1236	 0.19223178620872 
1237	 0.192234627042709 
1238	 0.192299694684979 
1239	 0.192377639221458 
1240	 0.192442637864069 
1241	 0.192541860386603 
1242	 0.192608861814631 
1243	 0.192634200335029 
1244	 0.19268265029598 
1245	 0.192744880639569 
1246	 0.192794057797447 
1247	 0.192813313416706 
1248	 0.192876887572533 
1249	 0.192967467936003 
1250	 0.193047451273059 
1251	 0.193134933754784 
1252	 0.193262078574064 
1253	 0.19336505677 
1254	 0.193434100998718 
1255	 0.19356886645363 
1256	 0.19375717176271 
1257	 0.19389255907018 
1258	 0.194057107759956 
1259	 0.194172308364955 
1260	 0.194214967547771 
1261	 0.194309571771399 
1262	 0.194409720296059 
1263	 0.194514497046378 
1264	 0.194640753947828 
1265	 0.194757553713368 
1266	 0.194876880535229 
1267	 0.194982219431719 
1268	 0.19508931107265 
1269	 0.195174576894561 
1270	 0.195281634461744 
1271	 0.195309904930439 
1272	 0.195285776465169 
1273	 0.195210612896152 
1274	 0.195196584708898 
1275	 0.195122730432483 
1276	 0.195159018246852 
1277	 0.19531235665391 
1278	 0.1953526475537 
1279	 0.195400858192375 
1280	 0.195390478939778 
1281	 0.195291436944039 
1282	 0.195255515467443 
1283	 0.19523851345451 
1284	 0.195185672510329 
1285	 0.195123325084647 
1286	 0.195074645284398 
1287	 0.194966126964332 
1288	 0.194937311340921 
1289	 0.195004112050255 
1290	 0.195008082464901 
1291	 0.195029278632822 
1292	 0.195020354776031 
1293	 0.194920348562289 
1294	 0.194890362026933 
1295	 0.194891290228337 
1296	 0.194916181582083 
1297	 0.194895070113645 
1298	 0.194891713746915 
1299	 0.194868868056314 
1300	 0.194787764920198 
1301	 0.194764819403153 
1302	 0.194770256476223 
1303	 0.194786888859507 
1304	 0.194817247159619 
1305	 0.194853408380044 
1306	 0.194949264426396 
1307	 0.194965546776637 
1308	 0.194935054386077 
1309	 0.194924334278456 
1310	 0.194858912623228 
1311	 0.194843712766966 
1312	 0.194860192977645 
1313	 0.194887276769991 
1314	 0.194938964104923 
1315	 0.194989769917119 
1316	 0.195068705308052 
1317	 0.195127634839797 
1318	 0.195178695523607 
1319	 0.195227263577119 
1320	 0.195254038075024 
1321	 0.195293962507783 
1322	 0.195359869492599 
1323	 0.195439815657812 
1324	 0.195518661033411 
1325	 0.195626304595837 
1326	 0.195718535374945 
1327	 0.19579499425154 
1328	 0.1959036816075 
1329	 0.196055532858245 
1330	 0.196149997606904 
1331	 0.196240830420553 
1332	 0.196304107013928 
1333	 0.196275086525955 
1334	 0.196339357835346 
1335	 0.196460008705775 
1336	 0.196540026930942 
1337	 0.19665314553539 
1338	 0.196740979322449 
1339	 0.19679657630848 
1340	 0.196849293417992 
1341	 0.196954291415919 
1342	 0.19697538479648 
1343	 0.196800447920614 
1344	 0.196784868297817 
1345	 0.196801786342021 
1346	 0.196892738725473 
1347	 0.197121828400351 
1348	 0.197350396166452 
1349	 0.197393549526569 
1350	 0.197072636758988 
1351	 0.196881156569005 
1352	 0.196377601809333 
1353	 0.196180278306815 
1354	 0.196448632875137 
1355	 0.196332215201788 
1356	 0.196314241047887 
1357	 0.196351407543997 
1358	 0.195670843360408 
1359	 0.195467573140053 
1360	 0.199439795325385 
1361	 0.19924347232055 
1362	 0.191061645543164 
1363	 0.184823503273684 
1364	 0.167402109760913 
1365	 0.16672564495102 
1366	 0.190743224840741 
1367	 0.19881095544826 
1368	 0.208855272539859 
1369	 0.211215381259987 
1370	 0.203570622668119 
1371	 0.200886134945939 
1372	 0.199950228158042 
1373	 0.198284214887985 
1374	 0.195511815184163 
1375	 0.194975076810406 
1376	 0.191951718874422 
1377	 0.189920663165637 
1378	 0.190387179935662 
1379	 0.191838593949754 
1380	 0.193882088024494 
1381	 0.199818662911998 
1382	 0.201011265642976 
1383	 0.200573813110748 
1384	 0.199154475887277 
1385	 0.195319596201829 
1386	 0.193638818499177 
1387	 0.191500423546415 
1388	 0.191593112801397 
1389	 0.192763488688487 
1390	 0.194054639546907 
1391	 0.19714695265209 
1392	 0.197925508366132 
1393	 0.197761058910372 
1394	 0.198073057015685 
1395	 0.197648455329352 
1396	 0.197584123963485 
1397	 0.197762663476547 
1398	 0.198304159012659 
1399	 0.199644750811583 
1400	 0.199667015066539 
1401	 0.199540246829066 
1402	 0.199119550095518 
1403	 0.197126478339827 
1404	 0.196218800060101 
1405	 0.195266745427656 
1406	 0.195886859573019 
1407	 0.195877017720033 
1408	 0.196472915586577 
1409	 0.19723293147477 
1410	 0.196805998539631 
1411	 0.197012218571651 
1412	 0.197275334255259 
1413	 0.197445291488432 
1414	 0.197800588771617 
1415	 0.197718013093378 
1416	 0.197295872219183 
1417	 0.197268204268917 
1418	 0.197116398634002 
1419	 0.197281653324765 
1420	 0.197880924639068 
1421	 0.19799806182312 
1422	 0.197944489915175 
1423	 0.198030976569803 
1424	 0.197942337795507 
1425	 0.198096266629603 
1426	 0.198602246863989 
1427	 0.198715220578238 
1428	 0.198662472440527 
1429	 0.198695873525998 
1430	 0.198675299816031 
1431	 0.198580693418299 
1432	 0.198450678971534 
1433	 0.198401955748243 
1434	 0.198219199405132 
1435	 0.198153913199646 
1436	 0.198264459262661 
1437	 0.19837064456078 
1438	 0.198483387947358 
1439	 0.198611909360965 
1440	 0.19886570063699 
1441	 0.198958292687204 
1442	 0.198934531275242 
1443	 0.19894141066318 
1444	 0.198950297267999 
1445	 0.198986009046265 
1446	 0.198980968587235 
1447	 0.198865340284997 
1448	 0.198937043538448 
1449	 0.198980995086293 
1450	 0.199110866068786 
1451	 0.199441640096269 
1452	 0.199520310492386 
1453	 0.199473711682011 
1454	 0.199510163061481 
1455	 0.199490177360648 
1456	 0.199560813630329 
1457	 0.199672263116354 
1458	 0.199831219972499 
1459	 0.200112390148258 
1460	 0.200223005824569 
1461	 0.200296245349994 
1462	 0.200401222555506 
1463	 0.200415380559162 
1464	 0.200474760971662 
1465	 0.200661234850114 
1466	 0.200719577220402 
1467	 0.200626830266269 
1468	 0.200632460130441 
1469	 0.200627274639579 
1470	 0.200668756154668 
1471	 0.200781670502025 
1472	 0.200870797877044 
1473	 0.200979024427077 
1474	 0.201064796367207 
1475	 0.201118149181244 
1476	 0.201194502953146 
1477	 0.201231814486576 
1478	 0.201338236582605 
1479	 0.201506955501318 
1480	 0.20165427776699 
1481	 0.201868309333976 
1482	 0.202005530540009 
1483	 0.202073070119191 
1484	 0.202170085439806 
1485	 0.202239858293858 
1486	 0.202321222112978 
1487	 0.202445316156901 
1488	 0.202506720799312 
1489	 0.202608288746558 
1490	 0.202743879657601 
1491	 0.202891472312281 
1492	 0.203000999599854 
1493	 0.203036001559785 
1494	 0.203071851623405 
1495	 0.203128051054923 
1496	 0.203157856742063 
1497	 0.203242805748627 
1498	 0.203395784691561 
1499	 0.203448280329008 
1500	 0.203444016871244 
1501	 0.20354326343816 
1502	 0.203646227487164 
1503	 0.203745774396103 
1504	 0.203927455638287 
1505	 0.204044928282154 
1506	 0.204109831390817 
1507	 0.204175656788856 
1508	 0.204220745270033 
1509	 0.20432877304444 
1510	 0.204462624726591 
1511	 0.204537479274756 
1512	 0.204642770119957 
1513	 0.204722784242086 
1514	 0.204684033789337 
1515	 0.204778045225274 
1516	 0.204981529549965 
1517	 0.205119115816821 
1518	 0.205309466042662 
1519	 0.205403487403146 
1520	 0.205393103538567 
1521	 0.205466745946783 
1522	 0.205526855014284 
1523	 0.205608944020018 
1524	 0.205756591651599 
1525	 0.205873755533011 
1526	 0.205974982299487 
1527	 0.206070215121345 
1528	 0.206191084714259 
1529	 0.2062595513311 
1530	 0.206271082983973 
1531	 0.206315994579009 
1532	 0.206325656070048 
1533	 0.206387705897773 
1534	 0.206498485500569 
1535	 0.206593389065808 
1536	 0.206740249223761 
1537	 0.206825909139042 
1538	 0.206830585443407 
1539	 0.206914426085843 
1540	 0.207016147779943 
1541	 0.207109824151639 
1542	 0.207284180217744 
1543	 0.207392289391647 
1544	 0.207422389709177 
1545	 0.207489326354272 
1546	 0.207570657121174 
1547	 0.207630603920574 
1548	 0.207656257013579 
1549	 0.20773574248761 
1550	 0.207849241563374 
1551	 0.207931381809618 
1552	 0.208051462001171 
1553	 0.208152195638415 
1554	 0.208201552201491 
1555	 0.208258030296596 
1556	 0.208314510379118 
1557	 0.208384322732906 
1558	 0.208469607710524 
1559	 0.208530540179357 
1560	 0.208579056583867 
1561	 0.208645701565382 
1562	 0.20868923580949 
1563	 0.208752910381754 
1564	 0.208861289576364 
1565	 0.20895644531745 
1566	 0.209075563053427 
1567	 0.209141557135297 
1568	 0.209221061851598 
1569	 0.209299941278555 
1570	 0.209354674706998 
1571	 0.209389524935373 
1572	 0.209430898618573 
1573	 0.209452427493388 
1574	 0.209502082355084 
1575	 0.209563625403754 
1576	 0.209620578245576 
1577	 0.209698901884143 
1578	 0.209725478532729 
1579	 0.209718461895209 
1580	 0.209751594771778 
1581	 0.209751347384211 
1582	 0.20983785089628 
1583	 0.209978548362469 
1584	 0.210130273554359 
1585	 0.210353058651034 
1586	 0.210470761647696 
1587	 0.210578102555356 
1588	 0.210648037651023 
1589	 0.210630286334517 
1590	 0.210688618605364 
1591	 0.210764892883922 
1592	 0.21084853598487 
1593	 0.210959359766983 
1594	 0.211047904364312 
1595	 0.211134385035817 
1596	 0.211218447145089 
1597	 0.211296226965486 
1598	 0.211370262222599 
1599	 0.211431933589381 
1600	 0.211536579341483 
1601	 0.211672878273837 
1602	 0.211750472314545 
1603	 0.21184932889427 
1604	 0.211883882742473 
1605	 0.211809008900735 
1606	 0.211858775924491 
1607	 0.211934001238477 
1608	 0.212036575338191 
1609	 0.21222699173225 
1610	 0.212326203332851 
1611	 0.212382191355991 
1612	 0.212487032132786 
1613	 0.212588981369055 
1614	 0.212684084294279 
1615	 0.212804419118678 
1616	 0.212914008218679 
1617	 0.212997814626765 
1618	 0.213095820412529 
1619	 0.213224980432436 
1620	 0.213310677448402 
1621	 0.213385762789441 
1622	 0.213407919820022 
1623	 0.213351848280571 
1624	 0.213432213538835 
1625	 0.213504411117271 
1626	 0.213655777908057 
1627	 0.214000115874708 
1628	 0.214110897487458 
1629	 0.214119116513459 
1630	 0.214202245192998 
1631	 0.214188803587948 
1632	 0.214298561275421 
1633	 0.214553205309203 
1634	 0.214668711394139 
1635	 0.214761868987122 
1636	 0.214801791564 
1637	 0.214745090361361 
1638	 0.214774509876691 
1639	 0.214793277336824 
1640	 0.214871054850503 
1641	 0.215008979992884 
1642	 0.215143020207287 
1643	 0.215321275547031 
1644	 0.21543232673046 
1645	 0.215526530952458 
1646	 0.215607919462986 
1647	 0.2156632131977 
1648	 0.215692071833215 
1649	 0.215692960402158 
1650	 0.215751636563131 
1651	 0.215776749281669 
1652	 0.215860274200491 
1653	 0.216017422761712 
1654	 0.216152320764596 
1655	 0.21632087570381 
1656	 0.216395846071573 
1657	 0.216430738165912 
1658	 0.216566110982881 
1659	 0.216594905780489 
1660	 0.216603790041525 
1661	 0.216674548340155 
1662	 0.216703895661394 
1663	 0.216733581010601 
1664	 0.216785504468698 
1665	 0.216866490086955 
1666	 0.216953425408954 
1667	 0.216957274964277 
1668	 0.217072167079717 
1669	 0.21726883423997 
1670	 0.217246369567337 
1671	 0.217277348022412 
1672	 0.217373916506009 
1673	 0.217311969958218 
1674	 0.217432958850614 
1675	 0.217486212434817 
1676	 0.217340244172993 
1677	 0.217431108402015 
1678	 0.21753602092046 
1679	 0.217591743815585 
1680	 0.21772167030121 
1681	 0.217717557748728 
1682	 0.217634302251756 
1683	 0.217684963417423 
1684	 0.217796386318841 
1685	 0.217817075720059 
1686	 0.217836724332468 
1687	 0.217786140143965 
1688	 0.217617942400873 
1689	 0.217586842189656 
1690	 0.217540401814004 
1691	 0.217538641444343 
1692	 0.217673424603597 
1693	 0.217730514073532 
1694	 0.217727099426797 
1695	 0.217804713862317 
1696	 0.217938206595067 
1697	 0.218007134782576 
1698	 0.218129032947218 
1699	 0.218160630148936 
1700	 0.2180183797457 
1701	 0.217998794669172 
1702	 0.218008929883991 
1703	 0.21805573120276 
1704	 0.218257860943932 
1705	 0.218303545334117 
1706	 0.218179366002643 
1707	 0.218219349592478 
1708	 0.21828259950905 
1709	 0.218335930202856 
1710	 0.218586405549871 
1711	 0.218662036233261 
1712	 0.218515724665807 
1713	 0.218562788768927 
1714	 0.218678416401017 
1715	 0.218692017990042 
1716	 0.218731296836949 
1717	 0.21879639018648 
1718	 0.218806867517034 
1719	 0.218858868357591 
1720	 0.219041346517042 
1721	 0.219080674708148 
1722	 0.218954776453089 
1723	 0.218981269129186 
1724	 0.2190386642366 
1725	 0.219125008219407 
1726	 0.219329948278318 
1727	 0.219376314590848 
1728	 0.219334399548849 
1729	 0.219360553906492 
1730	 0.219384629360643 
1731	 0.219308209756902 
1732	 0.219364431147421 
1733	 0.219385602150298 
1734	 0.219250872744877 
1735	 0.219267856315071 
1736	 0.219249073743527 
1737	 0.219091690114832 
1738	 0.218996823628985 
1739	 0.21905362720469 
1740	 0.219170750928447 
1741	 0.21928075426879 
1742	 0.219432147518469 
1743	 0.219465787071348 
1744	 0.219351362515571 
1745	 0.219434169720965 
1746	 0.219570332221852 
1747	 0.219628720400494 
1748	 0.219758753717727 
1749	 0.219770427468369 
1750	 0.219797730994384 
1751	 0.219869579042476 
1752	 0.219832230728707 
1753	 0.219905641934176 
1754	 0.219960322860546 
1755	 0.219993393603115 
1756	 0.220185785208314 
1757	 0.220235092160827 
1758	 0.220318289106675 
1759	 0.22044909296619 
1760	 0.220540416785463 
1761	 0.220611187588978 
1762	 0.220662570235734 
1763	 0.220705761247913 
1764	 0.220719848665895 
1765	 0.220702711003603 
1766	 0.220835410566595 
1767	 0.220994886651392 
1768	 0.221090831158388 
1769	 0.221278025649535 
1770	 0.221362463628766 
1771	 0.221317313819179 
1772	 0.221404307223048 
1773	 0.221535631383337 
1774	 0.221587225359974 
1775	 0.221765144439994 
1776	 0.221749543418701 
1777	 0.221707096418023 
1778	 0.221782780541837 
1779	 0.221631740205489 
1780	 0.221495535810125 
1781	 0.221648429241517 
1782	 0.222009646756555 
1783	 0.222537496645186 
1784	 0.222917731146249 
1785	 0.223197816591256 
1786	 0.223244518071258 
1787	 0.223215519657086 
1788	 0.22359190129637 
1789	 0.223915505800665 
1790	 0.223895800866976 
1791	 0.223760061817777 
1792	 0.223643492863143 
1793	 0.223715428059224 
1794	 0.224019992292504 
1795	 0.224330655921526 
1796	 0.224539761551122 
1797	 0.224752224345861 
1798	 0.224966885979024 
1799	 0.225013980507378 
1800	 0.22548461316558 
1801	 0.223988569837489 
1802	 0.225022700542126 
1803	 0.225181059186547 
1804	 0.224453724973567 
1805	 0.224372662247011 
1806	 0.224724844923473 
1807	 0.224564440827979 
1808	 0.224620265779299 
1809	 0.22364097732343 
1810	 0.223386870781033 
1811	 0.222034822534047 
1812	 0.22302382803012 
1813	 0.227120142569447 
1814	 0.228772754955287 
1815	 0.23135189935984 
1816	 0.232771446357116 
1817	 0.230529235115261 
1818	 0.229878976684338 
1819	 0.229509499884679 
1820	 0.230706524078318 
1821	 0.228956757372134 
1822	 0.224573554123308 
1823	 0.222811876637414 
1824	 0.218835845669635 
1825	 0.217453904263513 
1826	 0.222947810526699 
1827	 0.22538737156459 
1828	 0.227654442768603 
1829	 0.229042812343128 
1830	 0.23312014833144 
1831	 0.238850369850148 
1832	 0.244782960760442 
1833	 0.258206172450258 
1834	 0.267713248063824 
1835	 0.263033395376506 
1836	 0.262928768185619 
1837	 0.24431106106778 
1838	 0.243104516945321 
1839	 0.251450073020784 
1840	 0.280564684140784 
1841	 0.280627501886074 
1842	 0.27727468919143 
1843	 0.278842953877479 
1844	 0.253332739429901 
1845	 0.254414192779394 
1846	 0.293251595409185 
1847	 0.303971711480471 
1848	 0.308365439708159 
1849	 0.311183718134389 
1850	 0.311935972859767 
1851	 0.290938320607461 
1852	 0.292629351566449 
1853	 0.312123052855276 
1854	 0.316219812396313 
1855	 0.331175700765744 
1856	 0.323899707528155 
1857	 0.299060349215391 
1858	 0.276434534666481 
1859	 0.256231304821757 
1860	 0.218037722995046 
1861	 0.21182614048435 
1862	 0.226849419563643 
1863	 0.22830116902449 
1864	 0.239089043122486 
1865	 0.2426471229341 
1866	 0.233088528949932 
1867	 0.225519457284214 
1868	 0.251395132496385 
1869	 0.279206454737002 
1870	 0.297460925287886 
1871	 0.338381866919675 
1872	 0.340699982941777 
1873	 0.302273302363949 
1874	 0.290145811547142 
1875	 0.288100847386402 
1876	 0.274529052353969 
1877	 0.250828988703299 
1878	 0.250583409209059 
1879	 0.253827891417398 
1880	 0.249386986373337 
1881	 0.248997860608821 
1882	 0.257746234210654 
1883	 0.254609004502913 
1884	 0.242873325544226 
1885	 0.23872932590671 
1886	 0.234393594829879 
1887	 0.232439942299497 
1888	 0.230113985785155 
1889	 0.2283161220454 
1890	 0.227945915807931 
1891	 0.226883203405103 
1892	 0.227659843089173 
1893	 0.235289005280925 
1894	 0.235070557175286 
1895	 0.226110043309158 
1896	 0.223734595663974 
1897	 0.223126600101871 
1898	 0.218265106790243 
1899	 0.214496898535026 
1900	 0.214413638764116 
1901	 0.215829920364797 
1902	 0.217789587218073 
1903	 0.21561353529922 
1904	 0.218690804034354 
1905	 0.221156784043564 
1906	 0.217393905474454 
1907	 0.205489743042816 
1908	 0.220395453431421 
1909	 0.226455251860196 
1910	 0.228556391359588 
1911	 0.231788780839587 
1912	 0.228960575293993 
1913	 0.22503212305147 
1914	 0.218872562210592 
1915	 0.210347027696719 
1916	 0.205949235383174 
1917	 0.201035110377683 
1918	 0.196755473888297 
1919	 0.19800631528558 
1920	 0.199439702603152 
1921	 0.203493230168864 
1922	 0.208668670998974 
1923	 0.20986058106971 
1924	 0.209555222285001 
1925	 0.209306581906117 
1926	 0.207010064856442 
1927	 0.205963724683963 
1928	 0.204342698413929 
1929	 0.205917423101518 
1930	 0.207984757373264 
1931	 0.207164468486999 
1932	 0.207265792870796 
1933	 0.206959992316358 
1934	 0.207119063756862 
1935	 0.207109329106386 
1936	 0.207029811301226 
1937	 0.206949482301896 
1938	 0.207434179410219 
1939	 0.208224491630269 
1940	 0.207974566007287 
1941	 0.206972407896549 
1942	 0.20856848683687 
1943	 0.209462381822433 
1944	 0.208902204861483 
1945	 0.209545827050576 
1946	 0.209077604054559 
1947	 0.208878689453582 
1948	 0.208220390534915 
1949	 0.208098032849296 
1950	 0.208450564051516 
1951	 0.208344829792423 
1952	 0.208128348111323 
1953	 0.207936185599769 
1954	 0.208205369518442 
1955	 0.208737479999196 
1956	 0.210167619420245 
1957	 0.211949601106315 
1958	 0.212992524153461 
1959	 0.214058697447155 
1960	 0.215004317620976 
1961	 0.215865862954224 
1962	 0.215412511163927 
1963	 0.215657921447715 
1964	 0.216121803067092 
1965	 0.215949861657662 
1966	 0.216142063065411 
1967	 0.21644483787649 
1968	 0.216332602486421 
1969	 0.216201115387637 
1970	 0.215960904684259 
1971	 0.215831961358392 
1972	 0.215601571128551 
1973	 0.21544022629509 
1974	 0.215713748708665 
1975	 0.216063090088564 
1976	 0.216311112431569 
1977	 0.216831066169568 
1978	 0.21718128072839 
1979	 0.217160575737585 
1980	 0.217375703090434 
1981	 0.217526047694922 
1982	 0.217788890979004 
1983	 0.217980550885558 
1984	 0.218654197999173 
1985	 0.219115628391586 
1986	 0.219241877439974 
1987	 0.219530684989569 
1988	 0.219293767121194 
1989	 0.218835221056641 
1990	 0.218859355706184 
1991	 0.218559865418765 
1992	 0.218531717247264 
1993	 0.219111480523147 
1994	 0.219620053318769 
1995	 0.21999614351861 
1996	 0.220584173923812 
1997	 0.22066132601258 
1998	 0.220364534664529 
1999	 0.220512785080375 
2000	 0.220694962757101 
2001	 0.221081164284603 
2002	 0.221769485920498 
2003	 0.222297189570159 
2004	 0.223454265061596 
2005	 0.224341417421916 
2006	 0.22493805446827 
2007	 0.225419776340702 
2008	 0.226127556975176 
2009	 0.225674934557438 
2010	 0.225608883952438 
2011	 0.226761044736682 
2012	 0.227375731320001 
2013	 0.228308133448771 
2014	 0.22936351823441 
2015	 0.229162012405435 
2016	 0.22867837286719 
2017	 0.228266153587202 
2018	 0.227765759523554 
2019	 0.22759304092442 
2020	 0.227656046897229 
2021	 0.228054789340203 
2022	 0.228648740298177 
2023	 0.22885070581519 
2024	 0.228826385540417 
2025	 0.229001184254741 
2026	 0.228987263944768 
2027	 0.229027868019088 
2028	 0.229149705514147 
2029	 0.22913261887423 
2030	 0.228846250286205 
2031	 0.228497748872789 
2032	 0.228461692662583 
2033	 0.228730683745378 
2034	 0.228962054429918 
2035	 0.228968203557749 
2036	 0.229065634879824 
2037	 0.228979876683976 
2038	 0.228716314998815 
2039	 0.228630038012287 
2040	 0.228568956605553 
2041	 0.228378137377223 
2042	 0.228121268277674 
2043	 0.228175070283017 
2044	 0.228288657630116 
2045	 0.22831176550992 
2046	 0.228424096475162 
2047	 0.228652425255415 
2048	 0.228469602119858 
2049	 0.228317459740598 
2050	 0.228279797941647 
2051	 0.228410237718753 
2052	 0.228657028136096 
2053	 0.228805836514257 
2054	 0.229172514710502 
2055	 0.229140676392052 
2056	 0.229237840898797 
2057	 0.229452182190155 
2058	 0.229084054913266 
2059	 0.229019647600196 
2060	 0.229116071463727 
2061	 0.229229916944539 
2062	 0.229101773941814 
2063	 0.229375473237567 
2064	 0.229613593926896 
2065	 0.229396862961926 
2066	 0.229372385155383 
2067	 0.229350168385725 
2068	 0.229152858579877 
2069	 0.229531076688122 
2070	 0.229741233838732 
2071	 0.229744204740754 
2072	 0.229899333136801 
2073	 0.230125513631278 
2074	 0.230192747179798 
2075	 0.230568296396894 
2076	 0.231020418971534 
2077	 0.231327911420953 
2078	 0.231186919497554 
2079	 0.230984602720739 
2080	 0.230817729477417 
2081	 0.230663546792369 
2082	 0.230993907146109 
2083	 0.230913399673401 
2084	 0.230682009472897 
2085	 0.230655340750173 
2086	 0.23044005298203 
2087	 0.230534315439405 
2088	 0.230938305916236 
2089	 0.231270435284663 
2090	 0.231365665252196 
2091	 0.23174859165018 
2092	 0.231746452042785 
2093	 0.231776438962889 
2094	 0.231876673465923 
2095	 0.231577146453028 
2096	 0.231357792389622 
2097	 0.231166026065196 
2098	 0.231178604498818 
2099	 0.231347525774712 
2100	 0.23153326372184 
2101	 0.231933619285634 
2102	 0.232278071880013 
2103	 0.232729013232195 
2104	 0.233043428598815 
2105	 0.233025800694582 
2106	 0.232939634519407 
2107	 0.232862567822085 
2108	 0.232899064821382 
2109	 0.233352272556665 
2110	 0.233690676894074 
2111	 0.233887712686376 
2112	 0.234105589393987 
2113	 0.234166527702328 
2114	 0.234158432527553 
2115	 0.234184756150864 
2116	 0.234361366501385 
2117	 0.234551124549567 
2118	 0.234910257702292 
2119	 0.235211137733187 
2120	 0.235663342821038 
2121	 0.235591757666304 
2122	 0.235500144015676 
2123	 0.235216612937817 
2124	 0.235115936004246 
2125	 0.235317918257634 
2126	 0.235375390509469 
2127	 0.235624088575921 
2128	 0.235837572951463 
2129	 0.23574413027276 
2130	 0.235895732462183 
2131	 0.23634811039092 
2132	 0.236533900434697 
2133	 0.236679755028724 
2134	 0.236748773611091 
2135	 0.236838928537655 
2136	 0.236504437806007 
2137	 0.236347108660567 
2138	 0.236643564035093 
2139	 0.236804367568698 
2140	 0.236835247817275 
2141	 0.236702632091146 
2142	 0.236333727380498 
2143	 0.236170681595431 
2144	 0.23606836743922 
2145	 0.235979599714004 
2146	 0.235646939993554 
2147	 0.235248535548662 
2148	 0.235212777520466 
2149	 0.235012075374876 
2150	 0.234954291776571 
2151	 0.234977143363829 
2152	 0.235032769170671 
2153	 0.234916676236026 
2154	 0.234880284729259 
2155	 0.23480278903317 
2156	 0.234460422061204 
2157	 0.233969367453223 
2158	 0.233389538101111 
2159	 0.233253727498402 
2160	 0.233313073865302 
2161	 0.233274149905227 
2162	 0.233480008873427 
2163	 0.233070085127858 
2164	 0.232560046438341 
2165	 0.23259995961808 
2166	 0.23235219584942 
2167	 0.232359805776271 
2168	 0.232513022699581 
2169	 0.23281113517865 
2170	 0.232744667827481 
2171	 0.232720144528214 
2172	 0.232634014106251 
2173	 0.232289489946769 
2174	 0.231955169293379 
2175	 0.231751915627328 
2176	 0.231719845729176 
2177	 0.231335319494463 
2178	 0.230986703857774 
2179	 0.230653910494365 
2180	 0.23040297370527 
2181	 0.230649932301683 
2182	 0.230677035973001 
2183	 0.230785968798861 
2184	 0.230895842695607 
2185	 0.230778661158059 
2186	 0.230698262608067 
2187	 0.230492438167974 
2188	 0.230119497883289 
2189	 0.229798244546278 
2190	 0.22931174096289 
2191	 0.229199958628952 
2192	 0.229179965897416 
2193	 0.229444775981574 
2194	 0.230096280436476 
2195	 0.230143869296839 
2196	 0.230030808014555 
2197	 0.229898504695368 
2198	 0.229742214833154 
2199	 0.229879223338338 
2200	 0.229849475188636 
2201	 0.229978284947413 
2202	 0.230046280150186 
2203	 0.229593138459441 
2204	 0.229128778636969 
2205	 0.229059879203206 
2206	 0.229070061188056 
2207	 0.228981556690611 
2208	 0.229027778089382 
2209	 0.229567996908073 
2210	 0.229466293475985 
2211	 0.228894677510663 
2212	 0.22883001653768 
2213	 0.228683022472305 
2214	 0.228208327326877 
2215	 0.228381515874735 
2216	 0.2286901150884 
2217	 0.228941578267353 
2218	 0.229143711719933 
2219	 0.229126077354455 
2220	 0.228963234556869 
2221	 0.228619377197865 
2222	 0.228893461819328 
2223	 0.22946499987879 
2224	 0.229642395043188 
2225	 0.229924237006241 
2226	 0.23027984188598 
2227	 0.230144195412882 
2228	 0.230039592455999 
2229	 0.230469081636118 
2230	 0.230462478310406 
2231	 0.230568206083454 
2232	 0.23114263420325 
2233	 0.231346390572366 
2234	 0.231244371004237 
2235	 0.231229600245081 
2236	 0.231058861290965 
2237	 0.230651955801274 
2238	 0.230331450794592 
2239	 0.230069344140461 
2240	 0.230148367623821 
2241	 0.23033895556746 
2242	 0.230394650518489 
2243	 0.230675530174702 
2244	 0.230504471575086 
2245	 0.230202537115117 
2246	 0.230563418983464 
2247	 0.230272834884209 
2248	 0.230094587378008 
2249	 0.230112643381725 
2250	 0.229095727056505 
2251	 0.228778615867124 
2252	 0.228825273882915 
2253	 0.228679390975715 
2254	 0.229163246058251 
2255	 0.22874700214083 
2256	 0.228333302826602 
2257	 0.227558609055927 
2258	 0.227163855531608 
2259	 0.226676730513787 
2260	 0.226981401927192 
2261	 0.227363948316185 
2262	 0.227458361800207 
2263	 0.227602666881345 
2264	 0.22798086676478 
2265	 0.228653587148426 
2266	 0.228880048383919 
2267	 0.228897959881546 
2268	 0.228604792145348 
2269	 0.227884948233521 
2270	 0.228157410301878 
2271	 0.228744018429756 
2272	 0.228614380291195 
2273	 0.228634247390366 
2274	 0.227925062256147 
2275	 0.226720575385628 
2276	 0.226451182375234 
2277	 0.226475563367205 
2278	 0.22657631986551 
2279	 0.22660736699872 
2280	 0.226476059500882 
2281	 0.226195209199648 
2282	 0.226359246945825 
2283	 0.226894245133023 
2284	 0.226876679879015 
2285	 0.227132989230609 
2286	 0.227268357259606 
2287	 0.227053103351844 
2288	 0.226498024245443 
2289	 0.226994513791864 
2290	 0.227694457372629 
2291	 0.22756132662187 
2292	 0.227806867061626 
2293	 0.228158296879216 
2294	 0.227099451864061 
2295	 0.226595283510479 
2296	 0.227383069259875 
2297	 0.227493211015795 
2298	 0.227751790126262 
2299	 0.228560862925651 
2300	 0.228630852822828 
2301	 0.228315608349326 
2302	 0.228192261735992 
2303	 0.22794100141247 
2304	 0.227426917790168 
2305	 0.227566235799511 
2306	 0.227953951838053 
2307	 0.228534119856164 
2308	 0.228765564181552 
2309	 0.228175615994594 
2310	 0.228319929525602 
2311	 0.22823767711424 
2312	 0.228226300051598 
2313	 0.228652702727273 
2314	 0.228362457080899 
2315	 0.228491055892524 
2316	 0.22917097154055 
2317	 0.229925892324366 
2318	 0.230267082984142 
2319	 0.229912834722616 
2320	 0.229528184220206 
2321	 0.229349271525491 
2322	 0.229147141667556 
2323	 0.229132544563394 
2324	 0.229390794498261 
2325	 0.229778641980371 
2326	 0.23004139682061 
2327	 0.230627822442755 
2328	 0.231139061999398 
2329	 0.230212462631427 
2330	 0.230265671014769 
2331	 0.229721409844485 
2332	 0.228607313000338 
2333	 0.229561076260339 
2334	 0.229379060358332 
2335	 0.228816221686907 
2336	 0.230204945121453 
2337	 0.230628116882885 
2338	 0.230521436970961 
2339	 0.23124958140207 
2340	 0.231544499781433 
2341	 0.232484472602343 
2342	 0.233092112142259 
2343	 0.232989847209419 
2344	 0.233635262581302 
2345	 0.233472540214511 
2346	 0.233193684026014 
2347	 0.234450359915541 
2348	 0.233907052929107 
2349	 0.232295547215995 
2350	 0.232658971475764 
2351	 0.232359315268522 
2352	 0.233006139781261 
2353	 0.234917886392069 
2354	 0.234297958638518 
2355	 0.234035872534668 
2356	 0.235398516893231 
2357	 0.234753254670798 
2358	 0.234014874652256 
2359	 0.234459656216687 
2360	 0.233155870107737 
2361	 0.232619463456203 
2362	 0.234228044282123 
2363	 0.234751109140609 
2364	 0.234977183107473 
2365	 0.234878273231624 
2366	 0.234610730025384 
2367	 0.235649847148573 
2368	 0.236634270048866 
2369	 0.238068827024652 
2370	 0.238116194222897 
2371	 0.235832268387982 
2372	 0.234571071894363 
2373	 0.232552051604831 
2374	 0.231354575009235 
2375	 0.23081241279451 
2376	 0.230188043867158 
2377	 0.229889419833801 
2378	 0.229643339035395 
2379	 0.229824061581235 
2380	 0.230578320505287 
2381	 0.231517312016909 
2382	 0.230883923044203 
2383	 0.229881722471623 
2384	 0.229359996723404 
2385	 0.227485165705524 
2386	 0.227709188513621 
2387	 0.2304095888811 
2388	 0.230737865226265 
2389	 0.230353977746431 
2390	 0.230680935675083 
2391	 0.229820977928677 
2392	 0.230187685499819 
2393	 0.232545131758682 
2394	 0.233083949644459 
2395	 0.233040906597238 
2396	 0.232556775714751 
2397	 0.229760419927303 
2398	 0.230027642116134 
2399	 0.233083483751982 
2400	 0.233182432822022 
2401	 0.232943631973289 
2402	 0.233869043014072 
2403	 0.230917768397475 
2404	 0.229072519332261 
2405	 0.23237329146863 
2406	 0.233788217246483 
2407	 0.234737537137022 
2408	 0.233357975894927 
2409	 0.228001103638549 
2410	 0.223460359298511 
2411	 0.221027605089695 
2412	 0.222004544684889 
2413	 0.222037729855548 
2414	 0.222221374717665 
2415	 0.224748843198076 
2416	 0.224636455900883 
2417	 0.226702778644469 
2418	 0.22960820877382 
2419	 0.22992865691692 
2420	 0.229786829792473 
2421	 0.227282936274881 
2422	 0.229476360007306 
2423	 0.22979609746139 
2424	 0.225970343782058 
2425	 0.228317151061157 
2426	 0.226348182768905 
2427	 0.220467453827822 
2428	 0.219447100553865 
2429	 0.218342623697376 
2430	 0.216801838534196 
2431	 0.219045086444131 
2432	 0.223138203529894 
2433	 0.222620961732643 
2434	 0.223252488018794 
2435	 0.22332713000736 
2436	 0.222992143930776 
2437	 0.224051884947659 
2438	 0.225623570595338 
2439	 0.227246633976571 
2440	 0.227611146714415 
2441	 0.227638002737667 
2442	 0.225953248693231 
2443	 0.220369049213921 
2444	 0.217935286291101 
2445	 0.216424405298064 
2446	 0.217561420008956 
2447	 0.225185854922667 
2448	 0.226883279030935 
2449	 0.226218227863495 
2450	 0.2242479831467 
2451	 0.215403393801846 
2452	 0.212722316690878 
2453	 0.214154876428495 
2454	 0.214134759614504 
2455	 0.216857060702371 
2456	 0.215209277326387 
2457	 0.209169769356414 
2458	 0.207961901332884 
2459	 0.208836414794057 
2460	 0.208376024967915 
2461	 0.208953430605372 
2462	 0.208783753804831 
2463	 0.205106525049964 
2464	 0.205267484513343 
2465	 0.210527446165825 
2466	 0.213748469371661 
2467	 0.21671410880614 
2468	 0.217583717764866 
2469	 0.218305169377268 
2470	 0.216282193205045 
2471	 0.209730280058322 
2472	 0.208423920757357 
2473	 0.207393062790469 
2474	 0.205310216314223 
2475	 0.208153728112119 
2476	 0.206693768606363 
2477	 0.195823137661485 
2478	 0.196942587908962 
2479	 0.208570916101294 
2480	 0.208487770187032 
2481	 0.204206264947888 
2482	 0.212789819018893 
2483	 0.216546812701364 
2484	 0.231833356787859 
2485	 0.291152199401077 
2486	 0.28445627393367 
2487	 0.27695881104115 
2488	 0.25006155581366 
2489	 0.208921434235736 
2490	 0.204041456626882 
2491	 0.179692949874272 
2492	 0.166214642808223 
2493	 0.184348901344863 
2494	 0.218769745389715 
2495	 0.228053119110912 
2496	 0.219231294023355 
2497	 0.207332924974821 
2498	 0.152988835241848 
2499	 0.143510609097431 
2500	 0.156407592112294 
