Wavelength	ref00048.asd
350	 8.18541952977778E-02 
351	 8.20063604157805E-02 
352	 8.22513299292626E-02 
353	 8.24455906978273E-02 
354	 8.22752988306042E-02 
355	 8.16086937059314E-02 
356	 8.09469402275161E-02 
357	 8.20726360059114E-02 
358	 8.26255371554964E-02 
359	 8.24065194117652E-02 
360	 8.21518041301198E-02 
361	 8.33831593120949E-02 
362	 8.33931208356056E-02 
363	 8.23834834938208E-02 
364	 8.23978219943998E-02 
365	 8.27022402325611E-02 
366	 8.24040195834664E-02 
367	 8.17434320367384E-02 
368	 8.25282990432061E-02 
369	 8.26956626321193E-02 
370	 8.25581720826142E-02 
371	 0.082703684834897 
372	 8.26875991418401E-02 
373	 8.28629741874503E-02 
374	 8.30087373050716E-02 
375	 8.27366057189634E-02 
376	 8.27225904664542E-02 
377	 8.30672016338639E-02 
378	 8.35373871382376E-02 
379	 8.35987126517897E-02 
380	 8.33126111871178E-02 
381	 8.31569651830012E-02 
382	 8.34828454062606E-02 
383	 8.41409852948414E-02 
384	 8.43612280381979E-02 
385	 8.42754976673212E-02 
386	 8.44062408816778E-02 
387	 8.47529580502198E-02 
388	 8.50690227399021E-02 
389	 8.52055834773936E-02 
390	 8.51640947356826E-02 
391	 8.53279274964192E-02 
392	 8.56574925365029E-02 
393	 8.59593700221011E-02 
394	 8.58227880770297E-02 
395	 8.62493341833322E-02 
396	 8.68887361261153E-02 
397	 8.70542852040806E-02 
398	 8.71006600497283E-02 
399	 8.67921781980041E-02 
400	 8.64574128185609E-02 
401	 8.68009169699757E-02 
402	 8.69256097772659E-02 
403	 8.69322708830947E-02 
404	 0.087078952462183 
405	 8.76716311499788E-02 
406	 0.088030944863961 
407	 8.81714101050952E-02 
408	 8.83517928430918E-02 
409	 8.87042598843564E-02 
410	 8.88956206654139E-02 
411	 8.89633475982472E-02 
412	 8.92516627883469E-02 
413	 8.93396328042243E-02 
414	 8.94088986873396E-02 
415	 8.96200039832508E-02 
416	 8.98977130175938E-02 
417	 9.01678135880586E-02 
418	 9.03775244169704E-02 
419	 9.05082149410817E-02 
420	 9.06062446642171E-02 
421	 9.08579721964124E-02 
422	 9.11450266487811E-02 
423	 9.11191403097225E-02 
424	 9.12228729213477E-02 
425	 9.14605085149258E-02 
426	 9.17628352286448E-02 
427	 9.21094776369398E-02 
428	 9.21553385441872E-02 
429	 9.21747546708394E-02 
430	 9.25314855060344E-02 
431	 9.27884481386697E-02 
432	 0.093030354860571 
433	 9.32144491078198E-02 
434	 0.093196280301638 
435	 9.33563933822973E-02 
436	 9.35613694590114E-02 
437	 9.36778451483135E-02 
438	 9.37471368164172E-02 
439	 9.38078236001934E-02 
440	 9.39331456922695E-02 
441	 9.41552852109939E-02 
442	 9.42493067943635E-02 
443	 0.094350779643574 
444	 9.44911402240994E-02 
445	 9.45882005656033E-02 
446	 9.47268187178147E-02 
447	 0.094875353328919 
448	 9.50187320802665E-02 
449	 9.52566448356668E-02 
450	 9.53230849482563E-02 
451	 9.53238396844943E-02 
452	 0.095488071269039 
453	 9.57027724117432E-02 
454	 9.58675178310866E-02 
455	 9.59829769014767E-02 
456	 0.096164228169753 
457	 9.63203556065285E-02 
458	 9.63977879043495E-02 
459	 9.64112585699304E-02 
460	 9.65355993268789E-02 
461	 9.67399330405516E-02 
462	 9.68948058128576E-02 
463	 9.68687465319153E-02 
464	 9.70178541571748E-02 
465	 9.71902595461008E-02 
466	 9.72915414217692E-02 
467	 9.73939460006938E-02 
468	 9.75699765672732E-02 
469	 9.77260290415177E-02 
470	 9.77747714460238E-02 
471	 9.78425349161571E-02 
472	 9.79401509437879E-02 
473	 9.80477618830019E-02 
474	 9.81311924324234E-02 
475	 9.82693047824764E-02 
476	 9.83406249697615E-02 
477	 9.83418987281844E-02 
478	 9.85455281713288E-02 
479	 9.87264085087736E-02 
480	 9.88691833236051E-02 
481	 9.90138771748898E-02 
482	 9.91055322441964E-02 
483	 9.91691825303954E-02 
484	 9.93134653377105E-02 
485	 9.96974315373829E-02 
486	 9.98644998737957E-02 
487	 9.99295421812156E-02 
488	 0.100052935471158 
489	 0.100197804035932 
490	 0.100270666530428 
491	 0.10033804966152 
492	 0.100523255622802 
493	 0.100815409560482 
494	 0.101032178404098 
495	 0.101180713256914 
496	 0.101510269314973 
497	 0.101636665620331 
498	 0.101744466583304 
499	 0.10202501455836 
500	 0.10220064986659 
501	 0.102478516070093 
502	 0.102810826526118 
503	 0.103006338550882 
504	 0.103150921042966 
505	 0.103258475339832 
506	 0.103384692146571 
507	 0.103669063379205 
508	 0.103889353737468 
509	 0.104081433054419 
510	 0.104334158575838 
511	 0.104586557345847 
512	 0.104855648304893 
513	 0.105117385260838 
514	 0.105323010193378 
515	 0.105644598695421 
516	 0.105968822816152 
517	 0.106222915592709 
518	 0.10656544423154 
519	 0.106920357017758 
520	 0.107183023429788 
521	 0.107293000258215 
522	 0.107475884266749 
523	 0.10776869942134 
524	 0.108112066376352 
525	 0.108356316088971 
526	 0.108654816309534 
527	 0.108953495247924 
528	 0.1091921795916 
529	 0.109436572730945 
530	 0.109661291945075 
531	 0.109912934825133 
532	 0.110261150337061 
533	 0.110591289470677 
534	 0.110906010233001 
535	 0.11118055627196 
536	 0.111311512569511 
537	 0.111639039566723 
538	 0.112015647892422 
539	 0.112225731892406 
540	 0.112486440801556 
541	 0.112885998470954 
542	 0.113265516665437 
543	 0.113312422048298 
544	 0.113700777551708 
545	 0.114106409782452 
546	 0.114301223537143 
547	 0.114673024689613 
548	 0.115030922899867 
549	 0.115322464149713 
550	 0.115561282635991 
551	 0.115826534092764 
552	 0.116075664169444 
553	 0.116280123117928 
554	 0.116439767653574 
555	 0.116668153746478 
556	 0.116925406551564 
557	 0.117152747613015 
558	 0.117360460351197 
559	 0.117623951190109 
560	 0.117900863449913 
561	 0.118087985794705 
562	 0.118284251890207 
563	 0.118536887068688 
564	 0.118850331583266 
565	 0.119170794845981 
566	 0.119438987232396 
567	 0.119706738126812 
568	 0.120016354107124 
569	 0.120166119775679 
570	 0.12025804509793 
571	 0.12035841770763 
572	 0.12048213972276 
573	 0.120565641816315 
574	 0.120626177067915 
575	 0.120682853043714 
576	 0.12070988554382 
577	 0.120775799077971 
578	 0.120911021546517 
579	 0.12111271279828 
580	 0.121324587173497 
581	 0.121429370047842 
582	 0.121434173045559 
583	 0.121509846452395 
584	 0.121553936213236 
585	 0.12159887814873 
586	 0.121701083779302 
587	 0.121891604939951 
588	 0.122031586113741 
589	 0.12205696493722 
590	 0.121982355133749 
591	 0.121954731791755 
592	 0.122076661711046 
593	 0.122328256625661 
594	 0.122504645519404 
595	 0.122660586275372 
596	 0.122736228632227 
597	 0.12268123567029 
598	 0.122641274429534 
599	 0.1225883633399 
600	 0.122539099494856 
601	 0.122555456468587 
602	 0.122482254076544 
603	 0.122428627152 
604	 0.122469623361098 
605	 0.122444969503512 
606	 0.122456352166541 
607	 0.122507731216078 
608	 0.122559393921731 
609	 0.122619602318122 
610	 0.122737935595398 
611	 0.122887312575091 
612	 0.122932879574745 
613	 0.122956239020767 
614	 0.122963893621161 
615	 0.122955968962099 
616	 0.122976426965264 
617	 0.123025705169621 
618	 0.123038027733355 
619	 0.122932951155765 
620	 0.12296886274313 
621	 0.123051121093074 
622	 0.123098735760096 
623	 0.123156687689256 
624	 0.123148737140893 
625	 0.123132612808897 
626	 0.123184881698472 
627	 0.123203088926419 
628	 0.123254771478573 
629	 0.123327826621763 
630	 0.123331532204997 
631	 0.123347848089585 
632	 0.123398921696746 
633	 0.123463243445862 
634	 0.12343120618664 
635	 0.123465952973069 
636	 0.123532605089541 
637	 0.123529040307769 
638	 0.123575550367305 
639	 0.12362349142383 
640	 0.123631711467376 
641	 0.123585995424093 
642	 0.123557309852409 
643	 0.123533086316963 
644	 0.123498476704561 
645	 0.123524666333767 
646	 0.123409178359468 
647	 0.123278760524302 
648	 0.12341067569187 
649	 0.123403468391856 
650	 0.123376359105529 
651	 0.123403807187907 
652	 0.123384544643631 
653	 0.123421660465136 
654	 0.123428489908585 
655	 0.123355573266437 
656	 0.123606967106113 
657	 0.123646990288304 
658	 0.1234376376065 
659	 0.123356127519122 
660	 0.123428965119112 
661	 0.12335232336006 
662	 0.123067756333111 
663	 0.123088120522331 
664	 0.12295433760052 
665	 0.12272940070651 
666	 0.122612536259123 
667	 0.122516423703927 
668	 0.122496902769638 
669	 0.122501623111661 
670	 0.122386872880478 
671	 0.122259705455527 
672	 0.122154824608296 
673	 0.122103074138765 
674	 0.122162860377011 
675	 0.122202368329697 
676	 0.122260227416824 
677	 0.122387339418255 
678	 0.122267514385121 
679	 0.122310219170308 
680	 0.122567258574917 
681	 0.122688381047384 
682	 0.122996812378939 
683	 0.12325223359543 
684	 0.123317128997722 
685	 0.123596845151669 
686	 0.123969741845388 
687	 0.124496199643077 
688	 0.125201737698697 
689	 0.125695972283533 
690	 0.126134232996979 
691	 0.12660831922154 
692	 0.127049800489598 
693	 0.127682801475879 
694	 0.128296310843056 
695	 0.1287313052304 
696	 0.129245883944085 
697	 0.129733270426099 
698	 0.130189307214179 
699	 0.130637391962773 
700	 0.130986601405397 
701	 0.131446740343523 
702	 0.132023106798677 
703	 0.132453037870663 
704	 0.132750584082658 
705	 0.132966870621304 
706	 0.133196675987738 
707	 0.13362615363188 
708	 0.133970907480547 
709	 0.134222776765898 
710	 0.134493037559358 
711	 0.134724333805258 
712	 0.134971562067582 
713	 0.135204270574591 
714	 0.135294478495431 
715	 0.135502246092874 
716	 0.135664505164757 
717	 0.135666606315189 
718	 0.135823276778062 
719	 0.135956240586518 
720	 0.136182315865233 
721	 0.136627040024405 
722	 0.136718446710347 
723	 0.136780459208273 
724	 0.136925177300981 
725	 0.136986229269789 
726	 0.137096794516899 
727	 0.137233294137788 
728	 0.137387491207392 
729	 0.137682141297206 
730	 0.137781767781876 
731	 0.137851794393926 
732	 0.138140892833564 
733	 0.138201412726299 
734	 0.138338219389903 
735	 0.138574538016363 
736	 0.13866296128746 
737	 0.138789712302355 
738	 0.138882340304264 
739	 0.138951656661007 
740	 0.139290769763983 
741	 0.139401174020096 
742	 0.139428272801532 
743	 0.139629372603044 
744	 0.13969071892175 
745	 0.13973285397783 
746	 0.139818671704753 
747	 0.139945654183454 
748	 0.140009816350698 
749	 0.140173994779908 
750	 0.140432131206352 
751	 0.140435922483619 
752	 0.140539282768988 
753	 0.140676600511597 
754	 0.140725188048754 
755	 0.140798267916062 
756	 0.140851596387001 
757	 0.140940106572546 
758	 0.141158248847132 
759	 0.141368331117502 
760	 0.141761354674574 
761	 0.142297710083029 
762	 0.142218948039114 
763	 0.142262057499487 
764	 0.142275826806102 
765	 0.142121014099482 
766	 0.142028482490912 
767	 0.141961302718023 
768	 0.142033598379815 
769	 0.142292841584102 
770	 0.142251805621563 
771	 0.142308849315151 
772	 0.142491416827298 
773	 0.142509678497774 
774	 0.142595469275792 
775	 0.142698017175535 
776	 0.142787410217273 
777	 0.142946034101136 
778	 0.142924866524971 
779	 0.142934719931391 
780	 0.143147370697654 
781	 0.143118617370732 
782	 0.143213036875497 
783	 0.143426002479085 
784	 0.143562583273213 
785	 0.143663113391989 
786	 0.143653117473569 
787	 0.143619033497571 
788	 0.143800724727976 
789	 0.14392275090631 
790	 0.143976760985392 
791	 0.144036358862978 
792	 0.144234635868771 
793	 0.144448377071275 
794	 0.144635043927064 
795	 0.144770381897622 
796	 0.144798522987133 
797	 0.144767887362964 
798	 0.144796266017214 
799	 0.144991042775763 
800	 0.145115748997743 
801	 0.145123786947545 
802	 0.145062077922893 
803	 0.145065523642234 
804	 0.145378897486169 
805	 0.145683807844866 
806	 0.145747091424958 
807	 0.14573587057704 
808	 0.145915109863707 
809	 0.146059247299698 
810	 0.145945570386449 
811	 0.146051974094224 
812	 0.146099529028665 
813	 0.146063712012433 
814	 0.146051925175947 
815	 0.145878211391657 
816	 0.145892883842454 
817	 0.14619835495771 
818	 0.146532034360215 
819	 0.146308482419687 
820	 0.14620358136212 
821	 0.146542176942704 
822	 0.146717662483591 
823	 0.146795489678433 
824	 0.146804582245412 
825	 0.146812950424167 
826	 0.14697625824553 
827	 0.147104060452328 
828	 0.1471634576552 
829	 0.147196833625126 
830	 0.147269101094808 
831	 0.147326591224315 
832	 0.147363925329618 
833	 0.147427379349882 
834	 0.147656015661428 
835	 0.147735176921685 
836	 0.147682176570086 
837	 0.147924835468079 
838	 0.147826203920816 
839	 0.147886489715538 
840	 0.148280765248689 
841	 0.148110429893155 
842	 0.148259715951845 
843	 0.148410338330037 
844	 0.148226948430049 
845	 0.148529603015329 
846	 0.14864458324894 
847	 0.148570578680025 
848	 0.148570142148506 
849	 0.148492008161642 
850	 0.148628423689558 
851	 0.148829317587836 
852	 0.148709363010266 
853	 0.148981859710404 
854	 0.149203913575652 
855	 0.149180014083148 
856	 0.14914063900627 
857	 0.149081391180787 
858	 0.149027286154546 
859	 0.149047632879661 
860	 0.149280178526898 
861	 0.149444953358741 
862	 0.149473373583585 
863	 0.149424509978251 
864	 0.149513900986201 
865	 0.149682901970495 
866	 0.149837612743016 
867	 0.149881809257112 
868	 0.149801020685355 
869	 0.149610231006151 
870	 0.149478572258215 
871	 0.149571004377185 
872	 0.149700330960191 
873	 0.149854371841119 
874	 0.150038684156961 
875	 0.150242291290981 
876	 0.150267356497246 
877	 0.150298218579889 
878	 0.150320979840879 
879	 0.15014684381224 
880	 0.150393768334825 
881	 0.150519618272613 
882	 0.15039796549672 
883	 0.150654882330632 
884	 0.150602312461799 
885	 0.150693320988179 
886	 0.151040281267371 
887	 0.150747988598697 
888	 0.150801545430056 
889	 0.15082725550883 
890	 0.150555420334571 
891	 0.150881181721997 
892	 0.151114670066891 
893	 0.150977033062541 
894	 0.150553526434337 
895	 0.150680393991396 
896	 0.150665494668616 
897	 0.150560043153391 
898	 0.150709753244791 
899	 0.151191166606446 
900	 0.151183531884682 
901	 0.150788448918906 
902	 0.15058383797964 
903	 0.150568758653686 
904	 0.150692470336493 
905	 0.150776034646418 
906	 0.150651535652983 
907	 0.150641043353533 
908	 0.151001184172639 
909	 0.151375487104692 
910	 0.151063578973594 
911	 0.150923405400573 
912	 0.150956646669193 
913	 0.151196407739211 
914	 0.151709127098898 
915	 0.151807222467076 
916	 0.151622334257728 
917	 0.151360921442275 
918	 0.151175361395007 
919	 0.15130139597952 
920	 0.151378911097879 
921	 0.151430968387993 
922	 0.15198068522909 
923	 0.151534470944581 
924	 0.151251658628352 
925	 0.15151598803755 
926	 0.15083798684533 
927	 0.150730578794267 
928	 0.150736965505279 
929	 0.150433948995281 
930	 0.150329707168077 
931	 0.150421312447022 
932	 0.15027691198318 
933	 0.149807308231725 
934	 0.149965704848118 
935	 0.150717867104746 
936	 0.150095866719958 
937	 0.147910183263534 
938	 0.147895185159995 
939	 0.149216396052613 
940	 0.148918310369482 
941	 0.146639330574175 
942	 0.147435723753668 
943	 0.14842337807899 
944	 0.148818168903761 
945	 0.148518239524384 
946	 0.14785694937769 
947	 0.146639826853581 
948	 0.14627477645232 
949	 0.147165845313344 
950	 0.146998385314858 
951	 0.145859297429575 
952	 0.145068512218725 
953	 0.14548598292273 
954	 0.146327896762339 
955	 0.14666105122335 
956	 0.146243366716584 
957	 0.145519187001335 
958	 0.145703731557731 
959	 0.144144009742964 
960	 0.143931388330374 
961	 0.146151691945869 
962	 0.146085800376537 
963	 0.144895212091591 
964	 0.144380819049696 
965	 0.145068696560512 
966	 0.145157339583375 
967	 0.145427049720096 
968	 0.145695938990863 
969	 0.145817657732282 
970	 0.145950050537181 
971	 0.145102719214305 
972	 0.145440143579501 
973	 0.14706097647422 
974	 0.146529455896752 
975	 0.145837452788582 
976	 0.146271679387007 
977	 0.147221946936622 
978	 0.14625609903911 
979	 0.14658449835232 
980	 0.147524298111037 
981	 0.147675450752811 
982	 0.146161736703676 
983	 0.147185568133147 
984	 0.148220764528444 
985	 0.147886611920403 
986	 0.147064127145346 
987	 0.148370795546202 
988	 0.147758698446339 
989	 0.146379025269499 
990	 0.148535420628562 
991	 0.148497780131799 
992	 0.148814518488052 
993	 0.1492917130857 
994	 0.148293603125887 
995	 0.148033492679942 
996	 0.148343859973503 
997	 0.148946832491318 
998	 0.149465791529296 
999	 0.149256600030165 
1000	 0.149595589632245 
1001	 0.155861336247899 
1002	 0.15598666103459 
1003	 0.156164269464749 
1004	 0.156387184436982 
1005	 0.156609319553614 
1006	 0.156909586921338 
1007	 0.157097745007205 
1008	 0.157153881879925 
1009	 0.157331085493258 
1010	 0.157516599445837 
1011	 0.157748858404747 
1012	 0.158038620904083 
1013	 0.158373754125685 
1014	 0.158585638828133 
1015	 0.158704037025145 
1016	 0.158807378708495 
1017	 0.158907836500357 
1018	 0.15906387553331 
1019	 0.159287886182057 
1020	 0.159493311594316 
1021	 0.159709858939135 
1022	 0.159873413946864 
1023	 0.160019935990538 
1024	 0.16015357024609 
1025	 0.160225622504215 
1026	 0.1604221220504 
1027	 0.160696732104937 
1028	 0.160872848371418 
1029	 0.161112044106231 
1030	 0.161391346686688 
1031	 0.161516743626223 
1032	 0.161627378297936 
1033	 0.161679804484686 
1034	 0.161578745676869 
1035	 0.161623783629838 
1036	 0.161690273648424 
1037	 0.161768841338155 
1038	 0.16191744032659 
1039	 0.162010904796768 
1040	 0.162181338422111 
1041	 0.16241921229291 
1042	 0.162562940001149 
1043	 0.162751337148465 
1044	 0.162908327253228 
1045	 0.163018823896953 
1046	 0.163156078177932 
1047	 0.16327089936701 
1048	 0.163322182775083 
1049	 0.163386853962411 
1050	 0.163542100639954 
1051	 0.163766826061882 
1052	 0.164013376216508 
1053	 0.164227858536027 
1054	 0.164444378340282 
1055	 0.164527745988816 
1056	 0.164626572510338 
1057	 0.16491344257276 
1058	 0.165038070770201 
1059	 0.164954422296899 
1060	 0.16503999659283 
1061	 0.165236620253014 
1062	 0.165328499980118 
1063	 0.165671234039984 
1064	 0.166053361441399 
1065	 0.166229128166415 
1066	 0.166175370561145 
1067	 0.16629386081486 
1068	 0.166447240457709 
1069	 0.166503808653823 
1070	 0.166682051010146 
1071	 0.166894590808821 
1072	 0.166937718860258 
1073	 0.166962272106703 
1074	 0.167014052293449 
1075	 0.167008185914627 
1076	 0.167180374115189 
1077	 0.167411911598867 
1078	 0.167578089009532 
1079	 0.167744006770383 
1080	 0.167832828275993 
1081	 0.16790452926306 
1082	 0.167908430363007 
1083	 0.167966707315284 
1084	 0.167956986210607 
1085	 0.167959508394616 
1086	 0.168031685892421 
1087	 0.168056069596903 
1088	 0.168201287568589 
1089	 0.168283118939992 
1090	 0.168238171299893 
1091	 0.168251628796691 
1092	 0.168163903839992 
1093	 0.168159995026575 
1094	 0.16819198637494 
1095	 0.1680547257755 
1096	 0.168011671015903 
1097	 0.168009749731996 
1098	 0.167995309000802 
1099	 0.167977996157654 
1100	 0.168028616892621 
1101	 0.168077770173828 
1102	 0.16803389716661 
1103	 0.167966254933962 
1104	 0.167965307512652 
1105	 0.167939251331461 
1106	 0.167863643412187 
1107	 0.167798824779806 
1108	 0.167735965685569 
1109	 0.167586030138701 
1110	 0.167373266360208 
1111	 0.167225634443782 
1112	 0.167090321277042 
1113	 0.166945245877297 
1114	 0.166873430267497 
1115	 0.166694684432271 
1116	 0.166471302389449 
1117	 0.16613301086285 
1118	 0.165641665686074 
1119	 0.165210721955521 
1120	 0.164910487280797 
1121	 0.164633849578181 
1122	 0.164538216920062 
1123	 0.16453031101811 
1124	 0.164318684113482 
1125	 0.164020665667872 
1126	 0.163719289804605 
1127	 0.163264041409036 
1128	 0.162929667553532 
1129	 0.162693889143625 
1130	 0.162463061267231 
1131	 0.16233298145842 
1132	 0.162150073473627 
1133	 0.162091343496936 
1134	 0.161672206354586 
1135	 0.161233362626167 
1136	 0.160764827942304 
1137	 0.160148946000444 
1138	 0.159632152456724 
1139	 0.15920386491409 
1140	 0.158598541170832 
1141	 0.157946342801573 
1142	 0.157269638587362 
1143	 0.156604682167624 
1144	 0.155858821737677 
1145	 0.155249305287192 
1146	 0.15469159535724 
1147	 0.154106979731583 
1148	 0.153556568389534 
1149	 0.153052868696079 
1150	 0.152525836158853 
1151	 0.152182050797142 
1152	 0.152021760604722 
1153	 0.151762703992751 
1154	 0.151611850096012 
1155	 0.15159497229122 
1156	 0.151508530985123 
1157	 0.151435953573839 
1158	 0.151407985192095 
1159	 0.151420464338013 
1160	 0.151440324038095 
1161	 0.151549867027575 
1162	 0.151579361114796 
1163	 0.151535745554455 
1164	 0.151544196192367 
1165	 0.151594323536318 
1166	 0.15156272777964 
1167	 0.151483238561371 
1168	 0.151485722047432 
1169	 0.151474637047067 
1170	 0.151463324233793 
1171	 0.151543433155166 
1172	 0.151677182208289 
1173	 0.151784075670661 
1174	 0.151765835100527 
1175	 0.151751654867553 
1176	 0.151737086116678 
1177	 0.151734965329249 
1178	 0.151725033551884 
1179	 0.151732739008199 
1180	 0.151770975352928 
1181	 0.151775064151781 
1182	 0.151770007849883 
1183	 0.151731359125802 
1184	 0.151621512287117 
1185	 0.151618035223558 
1186	 0.151660747421945 
1187	 0.151676821247376 
1188	 0.151750062321756 
1189	 0.151785234569806 
1190	 0.151840613357238 
1191	 0.151900651220364 
1192	 0.151984775340603 
1193	 0.152095740282251 
1194	 0.15215513353437 
1195	 0.152166229752914 
1196	 0.152171788380271 
1197	 0.152137260496951 
1198	 0.152171634701788 
1199	 0.152204810308457 
1200	 0.152261674221007 
1201	 0.152361528452494 
1202	 0.152493447360012 
1203	 0.152651376321502 
1204	 0.152788836512782 
1205	 0.152998633849643 
1206	 0.153131773829148 
1207	 0.153179906691559 
1208	 0.15326987592098 
1209	 0.153355496349602 
1210	 0.153435069225601 
1211	 0.153564645046234 
1212	 0.153659185462646 
1213	 0.153785295344586 
1214	 0.153930827778915 
1215	 0.154066090462745 
1216	 0.154213359910694 
1217	 0.154343771277651 
1218	 0.154454188079128 
1219	 0.154573205479673 
1220	 0.154716672197843 
1221	 0.154824895791538 
1222	 0.154880564665654 
1223	 0.155000698062646 
1224	 0.155147838156821 
1225	 0.155274613381781 
1226	 0.155439066451919 
1227	 0.155579563575609 
1228	 0.155741438408813 
1229	 0.155797841310518 
1230	 0.155791079326224 
1231	 0.155893014880478 
1232	 0.156011673153253 
1233	 0.156108986084484 
1234	 0.156271269223687 
1235	 0.156556027822245 
1236	 0.156733258103406 
1237	 0.156895086800757 
1238	 0.157013640677533 
1239	 0.157087878268171 
1240	 0.157163829730554 
1241	 0.157197496738481 
1242	 0.157256202017689 
1243	 0.157278072134962 
1244	 0.157373722821487 
1245	 0.157537944197151 
1246	 0.157660099885579 
1247	 0.157860286866924 
1248	 0.157971308026628 
1249	 0.157974482593433 
1250	 0.158013528327824 
1251	 0.157999013284955 
1252	 0.158056404888194 
1253	 0.158082704412933 
1254	 0.158116550509491 
1255	 0.158177335008357 
1256	 0.158250559202105 
1257	 0.158300002929069 
1258	 0.15838789567828 
1259	 0.158421145708327 
1260	 0.158347121903719 
1261	 0.158408411267795 
1262	 0.158588192846557 
1263	 0.158635930387685 
1264	 0.158697988095667 
1265	 0.1587185966264 
1266	 0.158547313357691 
1267	 0.158528331450077 
1268	 0.158629740136734 
1269	 0.158679288254672 
1270	 0.15876228162739 
1271	 0.158826340884875 
1272	 0.158863508139754 
1273	 0.158884309383282 
1274	 0.158935105249958 
1275	 0.159003823461953 
1276	 0.159066001427752 
1277	 0.159141506696389 
1278	 0.159192514458221 
1279	 0.159241759529148 
1280	 0.159269763202735 
1281	 0.159260754619834 
1282	 0.159288932146675 
1283	 0.159318033426549 
1284	 0.159358041368614 
1285	 0.159453335726241 
1286	 0.159478190514725 
1287	 0.159463021255459 
1288	 0.159459279372439 
1289	 0.159460111474376 
1290	 0.159401429698463 
1291	 0.15929762347179 
1292	 0.159217768069935 
1293	 0.159119686227073 
1294	 0.158988953652488 
1295	 0.15891376899901 
1296	 0.15873234075528 
1297	 0.158566747714059 
1298	 0.158324350037765 
1299	 0.158146732624381 
1300	 0.158012812408131 
1301	 0.157810694258173 
1302	 0.15758227511047 
1303	 0.157361881648389 
1304	 0.157134457455736 
1305	 0.156851996444151 
1306	 0.156572722209174 
1307	 0.156231022651158 
1308	 0.155752155423873 
1309	 0.155384609511339 
1310	 0.155116955034418 
1311	 0.15470538156643 
1312	 0.154218194243984 
1313	 0.153794879105606 
1314	 0.153340407942836 
1315	 0.152840076770255 
1316	 0.152385677181892 
1317	 0.151909840257938 
1318	 0.15129026545785 
1319	 0.150750818142724 
1320	 0.150309884884259 
1321	 0.149851625207183 
1322	 0.149308518725592 
1323	 0.148751241712124 
1324	 0.148095433739634 
1325	 0.14731184510998 
1326	 0.146555783961178 
1327	 0.145689364981248 
1328	 0.144935721996951 
1329	 0.144238581539326 
1330	 0.143473784458257 
1331	 0.142706422003275 
1332	 0.141990037228985 
1333	 0.14124736441881 
1334	 0.140558563375294 
1335	 0.139983407743944 
1336	 0.139381846429157 
1337	 0.138706875957312 
1338	 0.138138928376218 
1339	 0.13760747751638 
1340	 0.137118776742643 
1341	 0.136744497154696 
1342	 0.136285966641114 
1343	 0.135747240825923 
1344	 0.135221349557266 
1345	 0.134543676543238 
1346	 0.133872665154685 
1347	 0.133285142849468 
1348	 0.132569680827241 
1349	 0.131922849173498 
1350	 0.131286029899925 
1351	 0.130763256155807 
1352	 0.130738759016261 
1353	 0.130342152755206 
1354	 0.13032953490234 
1355	 0.13012763610495 
1356	 0.129817195081364 
1357	 0.128765255093198 
1358	 0.126437018963378 
1359	 0.125915037832727 
1360	 0.127042674090908 
1361	 0.129501005824109 
1362	 0.148436267462587 
1363	 0.157750215831065 
1364	 0.146562897703085 
1365	 0.142087653616247 
1366	 0.126237406093185 
1367	 0.121945079625671 
1368	 0.13363406642926 
1369	 0.129371544577663 
1370	 0.119462645221718 
1371	 0.11584338922139 
1372	 0.107943029064251 
1373	 0.104447321891484 
1374	 0.107490683882866 
1375	 0.1081225293714 
1376	 0.102100771960365 
1377	 0.097917010676856 
1378	 0.100269605583579 
1379	 0.106379080098173 
1380	 0.106803935002167 
1381	 0.113298050386709 
1382	 0.110095955641235 
1383	 9.64238469689684E-02 
1384	 9.03870631839451E-02 
1385	 8.48083718372599E-02 
1386	 8.25804135222655E-02 
1387	 8.36558953029638E-02 
1388	 8.17841087822654E-02 
1389	 8.16949779744494E-02 
1390	 7.96323797954667E-02 
1391	 7.34879301516655E-02 
1392	 0.072167458203028 
1393	 0.072644973483717 
1394	 7.26428287314069E-02 
1395	 7.54229731012707E-02 
1396	 7.54101433443572E-02 
1397	 0.074342904325811 
1398	 7.24313977550901E-02 
1399	 6.77285703886911E-02 
1400	 6.60480901233983E-02 
1401	 6.57670311605853E-02 
1402	 6.46962810792685E-02 
1403	 6.49372874231427E-02 
1404	 6.46107006447098E-02 
1405	 6.37466953466363E-02 
1406	 6.23837639791505E-02 
1407	 6.07069232724574E-02 
1408	 5.98859667879008E-02 
1409	 5.94944962038804E-02 
1410	 5.92703352473965E-02 
1411	 5.94138790084378E-02 
1412	 6.04554785409551E-02 
1413	 6.07365366735541E-02 
1414	 6.08834475756378E-02 
1415	 6.05753228032832E-02 
1416	 5.99672779842878E-02 
1417	 5.98365108972494E-02 
1418	 5.93979872952627E-02 
1419	 5.94881972240956E-02 
1420	 6.02826690179714E-02 
1421	 6.03647858240831E-02 
1422	 6.02041668347921E-02 
1423	 6.01613567343074E-02 
1424	 6.01095408739819E-02 
1425	 5.98371647986917E-02 
1426	 5.94340084117613E-02 
1427	 5.91895927264073E-02 
1428	 5.85950554415948E-02 
1429	 5.84967130256964E-02 
1430	 5.89693932118966E-02 
1431	 5.90513839555737E-02 
1432	 5.91191459725244E-02 
1433	 5.91614472757513E-02 
1434	 5.89707577926311E-02 
1435	 5.88854568262331E-02 
1436	 5.89104031653298E-02 
1437	 5.89587794418459E-02 
1438	 5.91228158637412E-02 
1439	 5.90835323442999E-02 
1440	 5.88462927897746E-02 
1441	 5.87747467897496E-02 
1442	 5.85969011933544E-02 
1443	 5.85181414186437E-02 
1444	 5.88134139653246E-02 
1445	 5.92679104217489E-02 
1446	 5.93883077034627E-02 
1447	 5.95518245391592E-02 
1448	 5.96272486072933E-02 
1449	 5.95216880892369E-02 
1450	 5.95375444681384E-02 
1451	 5.95589263328771E-02 
1452	 5.97141173264611E-02 
1453	 5.99258804032974E-02 
1454	 6.00636726454979E-02 
1455	 6.03509339039952E-02 
1456	 6.04080287219149E-02 
1457	 6.02503671499222E-02 
1458	 6.02742140645633E-02 
1459	 6.02634957950998E-02 
1460	 6.03746030569895E-02 
1461	 6.06961693165219E-02 
1462	 6.08176430863464E-02 
1463	 6.09380751306928E-02 
1464	 6.09824304198903E-02 
1465	 6.08395182922601E-02 
1466	 6.08095426346194E-02 
1467	 6.07350046742137E-02 
1468	 6.08062557177499E-02 
1469	 6.09629461381859E-02 
1470	 0.061163866193726 
1471	 6.16256428958628E-02 
1472	 6.17908709640209E-02 
1473	 6.17101522940411E-02 
1474	 6.18497233701293E-02 
1475	 6.19060744935124E-02 
1476	 6.20796693056393E-02 
1477	 6.25246330848214E-02 
1478	 6.27789129905446E-02 
1479	 0.062956792836099 
1480	 6.31064620751555E-02 
1481	 6.31210693119167E-02 
1482	 6.32814495928556E-02 
1483	 6.34234106465961E-02 
1484	 6.36763591878877E-02 
1485	 6.41695697127762E-02 
1486	 6.44696960574529E-02 
1487	 6.47345396278782E-02 
1488	 6.49351120936676E-02 
1489	 6.50835432654089E-02 
1490	 6.51943635534406E-02 
1491	 6.53834477408928E-02 
1492	 6.56609264952427E-02 
1493	 6.59884007976776E-02 
1494	 0.066292477011079 
1495	 6.65129483263216E-02 
1496	 6.67203566826981E-02 
1497	 6.69327569045161E-02 
1498	 6.70532695060909E-02 
1499	 6.72892993212816E-02 
1500	 0.06762593562649 
1501	 6.78965437723076E-02 
1502	 6.81499347032558E-02 
1503	 6.84378761069929E-02 
1504	 6.87488687677735E-02 
1505	 6.90147031655116E-02 
1506	 6.92797261644243E-02 
1507	 6.95430798733025E-02 
1508	 6.97599071802327E-02 
1509	 7.00149641932306E-02 
1510	 7.02973547644052E-02 
1511	 7.05861049991483E-02 
1512	 0.070880812348343 
1513	 7.11818442072754E-02 
1514	 7.14976259445965E-02 
1515	 7.18187807440421E-02 
1516	 7.21474575712866E-02 
1517	 7.24744837251822E-02 
1518	 7.28127051008707E-02 
1519	 7.31572076139533E-02 
1520	 7.35135948183158E-02 
1521	 7.38525207048006E-02 
1522	 7.42345618179327E-02 
1523	 7.45236978575085E-02 
1524	 7.47047673629753E-02 
1525	 7.49796988245286E-02 
1526	 7.52285179371387E-02 
1527	 7.55370492979345E-02 
1528	 7.59391035630154E-02 
1529	 7.63195606648619E-02 
1530	 7.67449914353859E-02 
1531	 0.077100007697479 
1532	 0.077422432871814 
1533	 7.77562167441669E-02 
1534	 7.80275023206684E-02 
1535	 7.83447575840877E-02 
1536	 7.87008373456389E-02 
1537	 7.90669600388273E-02 
1538	 7.94688899018264E-02 
1539	 7.98246855995133E-02 
1540	 8.01931596931574E-02 
1541	 8.05231099836968E-02 
1542	 8.07354015866468E-02 
1543	 8.10638621572185E-02 
1544	 8.14885187561386E-02 
1545	 8.18396885658248E-02 
1546	 8.22097396814287E-02 
1547	 8.25805605956565E-02 
1548	 8.28882011164246E-02 
1549	 8.32163125660483E-02 
1550	 8.35682675465994E-02 
1551	 8.39424581796831E-02 
1552	 8.42949293354134E-02 
1553	 8.46926766113086E-02 
1554	 8.52223583615885E-02 
1555	 0.085642039089449 
1556	 8.60325566020552E-02 
1557	 8.63844380503136E-02 
1558	 8.66151710265538E-02 
1559	 8.68861809053732E-02 
1560	 8.71131052904914E-02 
1561	 8.74205914440252E-02 
1562	 8.77937710071407E-02 
1563	 8.81703944749166E-02 
1564	 8.85777294479411E-02 
1565	 8.90791652732227E-02 
1566	 8.94356679161503E-02 
1567	 8.98210480567294E-02 
1568	 9.02186329228706E-02 
1569	 9.05939426799425E-02 
1570	 9.10093442737799E-02 
1571	 9.14821660410796E-02 
1572	 9.18874266984467E-02 
1573	 9.22923916099666E-02 
1574	 9.26048905856862E-02 
1575	 9.28347570844779E-02 
1576	 9.31449627730916E-02 
1577	 9.33986671366299E-02 
1578	 9.37507520030915E-02 
1579	 9.42160385120908E-02 
1580	 9.45445483564121E-02 
1581	 9.48416731131129E-02 
1582	 0.095133074159463 
1583	 9.53473615472937E-02 
1584	 9.56555810947901E-02 
1585	 9.59969533845178E-02 
1586	 9.63577976440541E-02 
1587	 9.67844232411541E-02 
1588	 9.71166900674262E-02 
1589	 9.74386735829018E-02 
1590	 0.097733306007946 
1591	 9.79452551034623E-02 
1592	 9.82499724239229E-02 
1593	 9.86094094655695E-02 
1594	 9.89002488033691E-02 
1595	 9.91845834356132E-02 
1596	 9.94858562163399E-02 
1597	 9.97586596787251E-02 
1598	 0.100037331100098 
1599	 0.100382439064848 
1600	 0.100608682949422 
1601	 0.100698981230451 
1602	 0.100989389803222 
1603	 0.101345422658113 
1604	 0.101627006291458 
1605	 0.102000656463307 
1606	 0.102281592078975 
1607	 0.102441918836142 
1608	 0.102651187144564 
1609	 0.102882687578536 
1610	 0.103120803014191 
1611	 0.103321449339451 
1612	 0.103556248960313 
1613	 0.103844869083201 
1614	 0.104109289271386 
1615	 0.104382008879611 
1616	 0.104585025408153 
1617	 0.104744216040103 
1618	 0.104955804856146 
1619	 0.105150612269655 
1620	 0.105312213668998 
1621	 0.105493119552289 
1622	 0.105708034575798 
1623	 0.1058770719778 
1624	 0.106064478557955 
1625	 0.106359306338109 
1626	 0.106519559039612 
1627	 0.106553702923933 
1628	 0.106714743362183 
1629	 0.106898016656094 
1630	 0.107077171125652 
1631	 0.10728931775771 
1632	 0.107529557164747 
1633	 0.107799365040998 
1634	 0.107998662156751 
1635	 0.108220139665902 
1636	 0.108402092429583 
1637	 0.108456525937895 
1638	 0.108673046875121 
1639	 0.109006010440047 
1640	 0.109229444293695 
1641	 0.109506321982938 
1642	 0.109639279844416 
1643	 0.109592707177604 
1644	 0.109738990366728 
1645	 0.109925187972662 
1646	 0.110056087990802 
1647	 0.110266528940721 
1648	 0.110406626149014 
1649	 0.110405238585332 
1650	 0.110586709636204 
1651	 0.110883086807524 
1652	 0.111106774329328 
1653	 0.111388172107509 
1654	 0.111543222213056 
1655	 0.11162551765404 
1656	 0.111732234467807 
1657	 0.111803759240133 
1658	 0.11182538649815 
1659	 0.111838180105856 
1660	 0.111847192910516 
1661	 0.111881379724747 
1662	 0.112019485459452 
1663	 0.112133389325103 
1664	 0.112239482167115 
1665	 0.112377568578013 
1666	 0.112508311893097 
1667	 0.112602461545716 
1668	 0.11259750206544 
1669	 0.112622568894034 
1670	 0.112673055520537 
1671	 0.112722759910377 
1672	 0.112842389988527 
1673	 0.112927614543839 
1674	 0.112942446777983 
1675	 0.112918760629918 
1676	 0.112892379860498 
1677	 0.112889719961004 
1678	 0.112960896313296 
1679	 0.113095277708649 
1680	 0.113138864274603 
1681	 0.113110673249337 
1682	 0.112992470308009 
1683	 0.11289560943709 
1684	 0.112869860609105 
1685	 0.112854175791182 
1686	 0.112826281692808 
1687	 0.112802716763485 
1688	 0.112921664656138 
1689	 0.113012471880652 
1690	 0.113161880818221 
1691	 0.113171067599945 
1692	 0.112944427108327 
1693	 0.112843255295087 
1694	 0.112763174116337 
1695	 0.112681054343308 
1696	 0.112665221342622 
1697	 0.112584761590494 
1698	 0.112417386931504 
1699	 0.112315399149447 
1700	 0.112200889887569 
1701	 0.112162246486013 
1702	 0.112269235920659 
1703	 0.112250439106501 
1704	 0.112223716379782 
1705	 0.112139469953974 
1706	 0.111880521467561 
1707	 0.111762763866958 
1708	 0.111789347083557 
1709	 0.111614493822771 
1710	 0.111346392051217 
1711	 0.111197690209314 
1712	 0.111024187950015 
1713	 0.110798148581826 
1714	 0.110656609226102 
1715	 0.110478984083732 
1716	 0.110021422902034 
1717	 0.109859321085104 
1718	 0.110052587289325 
1719	 0.109888489734778 
1720	 0.109657092128222 
1721	 0.109466813073834 
1722	 0.109031651836718 
1723	 0.108808768868281 
1724	 0.108854904769295 
1725	 0.108629132924315 
1726	 0.108313964552045 
1727	 0.108025635768595 
1728	 0.107546031274949 
1729	 0.107248178879692 
1730	 0.107094287549945 
1731	 0.106707378511731 
1732	 0.106563829829484 
1733	 0.106341573661229 
1734	 0.105916762059663 
1735	 0.105507636343062 
1736	 0.105082855698172 
1737	 0.104733168096684 
1738	 0.104443244495962 
1739	 0.104206446928334 
1740	 0.103999659348008 
1741	 0.103549837340435 
1742	 0.103039768245319 
1743	 0.102658420516566 
1744	 0.102373103921569 
1745	 0.102077230701594 
1746	 0.101697161404745 
1747	 0.101272142322521 
1748	 0.100653840730377 
1749	 0.100135427147608 
1750	 9.97855302796659E-02 
1751	 9.95073280300181E-02 
1752	 9.91033958997505E-02 
1753	 9.84201554436072E-02 
1754	 9.79685572664187E-02 
1755	 0.09756940063119 
1756	 9.71850949513566E-02 
1757	 0.097089569670228 
1758	 9.67690228401317E-02 
1759	 9.62986254037363E-02 
1760	 9.57741240401129E-02 
1761	 9.49951909484865E-02 
1762	 9.45455480122996E-02 
1763	 9.42702370199883E-02 
1764	 9.38994613636758E-02 
1765	 9.37719851174535E-02 
1766	 9.35430616299623E-02 
1767	 9.30669208152892E-02 
1768	 0.092681205962203 
1769	 9.23641469238118E-02 
1770	 9.20275165304102E-02 
1771	 9.16847431109743E-02 
1772	 9.14324681829146E-02 
1773	 9.12167077112264E-02 
1774	 9.09213524772934E-02 
1775	 9.07095258123942E-02 
1776	 9.01517915859967E-02 
1777	 9.00203458140581E-02 
1778	 8.99263319435423E-02 
1779	 8.94947534647717E-02 
1780	 8.93068022735013E-02 
1781	 8.91647933032934E-02 
1782	 8.90198610235013E-02 
1783	 8.87955870859288E-02 
1784	 0.088352182023179 
1785	 8.78501276432829E-02 
1786	 8.76065523550268E-02 
1787	 0.087632669266523 
1788	 8.77932758382137E-02 
1789	 8.78019472173249E-02 
1790	 0.087536448150745 
1791	 8.75970646753617E-02 
1792	 8.75883249433759E-02 
1793	 0.087318797833316 
1794	 8.73330577380518E-02 
1795	 8.68486390940269E-02 
1796	 8.61887937188838E-02 
1797	 8.60801076408508E-02 
1798	 8.57853735479355E-02 
1799	 8.56723647237441E-02 
1800	 8.58607465089927E-02 
1801	 8.79702314887943E-02 
1802	 8.80906945665408E-02 
1803	 8.86288133883221E-02 
1804	 8.96039235505801E-02 
1805	 9.02243107735786E-02 
1806	 9.12358711485671E-02 
1807	 0.091654102459545 
1808	 9.08192637429905E-02 
1809	 9.13625125983999E-02 
1810	 9.10688462483441E-02 
1811	 8.99611318203935E-02 
1812	 8.98461770508186E-02 
1813	 9.02832154218806E-02 
1814	 9.00940860870038E-02 
1815	 9.03418173811893E-02 
1816	 9.03566917855891E-02 
1817	 8.83889923463071E-02 
1818	 8.84181081685534E-02 
1819	 8.94776775613058E-02 
1820	 9.35401965343228E-02 
1821	 0.093271840336548 
1822	 9.07462520913215E-02 
1823	 9.11679503096162E-02 
1824	 8.91296375130878E-02 
1825	 8.91250523976758E-02 
1826	 9.64900002078897E-02 
1827	 0.101493225487583 
1828	 0.106284223512052 
1829	 0.109291199558034 
1830	 0.110822037339727 
1831	 0.108270841654569 
1832	 0.110078685785314 
1833	 0.107573982282437 
1834	 0.105572057978255 
1835	 0.108444634793118 
1836	 0.116114006705261 
1837	 0.117978297004307 
1838	 0.126226817358552 
1839	 0.142866417270122 
1840	 0.196327591185196 
1841	 0.194816308413072 
1842	 0.156639049221544 
1843	 0.145936401979379 
1844	 0.126285770462444 
1845	 0.108040357588013 
1846	 8.03943805706777E-02 
1847	 7.72660978670733E-02 
1848	 8.31484487376509E-02 
1849	 9.56041524659745E-02 
1850	 9.87145697330111E-02 
1851	 0.105991371121038 
1852	 0.135112208654935 
1853	 0.163101199411596 
1854	 0.181393808025873 
1855	 0.236578382780332 
1856	 0.25611256786833 
1857	 0.256001870668822 
1858	 0.23568671601787 
1859	 0.218842309154315 
1860	 0.189074984647495 
1861	 0.176449368310006 
1862	 0.157056745934152 
1863	 0.148470068670027 
1864	 0.162447336101884 
1865	 0.157010718781162 
1866	 0.145173342490579 
1867	 0.126082021810149 
1868	 8.83762111953308E-02 
1869	 7.82445686925014E-02 
1870	 7.35840704676664E-02 
1871	 8.59067297573173E-02 
1872	 9.96049424811074E-02 
1873	 0.156136056994396 
1874	 0.139863859535108 
1875	 8.79363891524915E-02 
1876	 7.22769338141243E-02 
1877	 5.50363757835869E-02 
1878	 3.78160680645331E-02 
1879	 4.38733362537397E-02 
1880	 3.70788697307788E-02 
1881	 3.74502843130221E-02 
1882	 2.99566762248237E-02 
1883	 3.98529045928364E-02 
1884	 7.20583481843963E-02 
1885	 7.75751924210041E-02 
1886	 8.01915532516886E-02 
1887	 7.43333440045587E-02 
1888	 0.059949933443435 
1889	 5.27135822439581E-02 
1890	 5.00449758365218E-02 
1891	 5.80176727637816E-02 
1892	 5.82399726081981E-02 
1893	 5.13529709575377E-02 
1894	 5.16067584592048E-02 
1895	 6.04987016864174E-02 
1896	 6.55720836667705E-02 
1897	 7.00716063246357E-02 
1898	 8.52856502153272E-02 
1899	 0.101110846565257 
1900	 8.65375762774714E-02 
1901	 0.083747573001416 
1902	 7.34118661407762E-02 
1903	 8.01931809673502E-02 
1904	 0.102248287521312 
1905	 0.11412503718678 
1906	 0.142265202772044 
1907	 0.147491033827766 
1908	 0.111247726784037 
1909	 8.41182061034764E-02 
1910	 7.35311020231374E-02 
1911	 6.05923406923264E-02 
1912	 5.32011305525726E-02 
1913	 0.056452975588978 
1914	 5.66831066215271E-02 
1915	 5.51344882331575E-02 
1916	 5.10038510477291E-02 
1917	 4.81246326615428E-02 
1918	 4.53865582730355E-02 
1919	 4.08661776544003E-02 
1920	 3.91605199206952E-02 
1921	 4.29010959849968E-02 
1922	 4.70562262649431E-02 
1923	 4.82446730653318E-02 
1924	 4.92137434910916E-02 
1925	 4.97256994162443E-02 
1926	 4.76642632413591E-02 
1927	 4.75881101697428E-02 
1928	 4.92434409447814E-02 
1929	 4.83652049149652E-02 
1930	 4.77704799117705E-02 
1931	 4.72635516393046E-02 
1932	 4.52943781221129E-02 
1933	 4.18167507110557E-02 
1934	 4.14300256131673E-02 
1935	 4.27799794616737E-02 
1936	 4.38594528149511E-02 
1937	 0.047275280418983 
1938	 4.83118292376049E-02 
1939	 4.89580400533112E-02 
1940	 4.72144905529343E-02 
1941	 4.62019031893568E-02 
1942	 4.51008542167975E-02 
1943	 4.47139964659971E-02 
1944	 4.40332635457012E-02 
1945	 4.34393639573673E-02 
1946	 4.22338880368578E-02 
1947	 4.19265075689391E-02 
1948	 4.22679878420938E-02 
1949	 4.24420331861313E-02 
1950	 4.28072406319936E-02 
1951	 4.35405226689374E-02 
1952	 4.35645934502874E-02 
1953	 4.35664293236116E-02 
1954	 4.39489331941252E-02 
1955	 4.44174910512289E-02 
1956	 4.52033478405632E-02 
1957	 4.45538056239856E-02 
1958	 4.40611558979301E-02 
1959	 4.28932094382589E-02 
1960	 4.29021371769086E-02 
1961	 4.27829463178864E-02 
1962	 4.37990564956894E-02 
1963	 0.045006305682691 
1964	 4.52783062957665E-02 
1965	 4.55946889668527E-02 
1966	 4.54022368912658E-02 
1967	 4.52941422010755E-02 
1968	 4.53923555550758E-02 
1969	 4.53328540722968E-02 
1970	 4.52195571646636E-02 
1971	 4.51234622135949E-02 
1972	 4.50077719358073E-02 
1973	 4.47461924650363E-02 
1974	 4.47833744013093E-02 
1975	 4.48082272444329E-02 
1976	 4.47019742803653E-02 
1977	 4.50315934422819E-02 
1978	 4.53177870422208E-02 
1979	 4.53414774626793E-02 
1980	 4.57324467018175E-02 
1981	 4.61361052464215E-02 
1982	 4.61450576731789E-02 
1983	 4.58406201857671E-02 
1984	 0.045582644603628 
1985	 4.56242672472628E-02 
1986	 4.52481914958263E-02 
1987	 4.50598999877042E-02 
1988	 4.52844049255294E-02 
1989	 4.50719814095499E-02 
1990	 4.51780016487879E-02 
1991	 4.56573099647168E-02 
1992	 4.63983620883692E-02 
1993	 4.73297595699145E-02 
1994	 4.80016809166411E-02 
1995	 4.84533739564078E-02 
1996	 4.87736844352891E-02 
1997	 4.85496954191523E-02 
1998	 4.80419980557231E-02 
1999	 4.76956538923526E-02 
2000	 4.77147604393618E-02 
2001	 4.80486333638316E-02 
2002	 4.81929053295341E-02 
2003	 4.87443258189081E-02 
2004	 4.88327949016593E-02 
2005	 4.86081147731222E-02 
2006	 4.87710440976285E-02 
2007	 4.93732210461572E-02 
2008	 4.92203242734578E-02 
2009	 4.91724189622818E-02 
2010	 0.049186275406259 
2011	 4.82249086247794E-02 
2012	 4.77069689330244E-02 
2013	 4.70822933491275E-02 
2014	 4.66571609400393E-02 
2015	 4.72939412866307E-02 
2016	 4.75868479004617E-02 
2017	 4.86731148024792E-02 
2018	 5.01439574844293E-02 
2019	 5.07957334905983E-02 
2020	 5.11463048254339E-02 
2021	 5.14610851199177E-02 
2022	 5.11067613768592E-02 
2023	 5.03974444150278E-02 
2024	 4.99034885718853E-02 
2025	 4.94980564005079E-02 
2026	 0.049321305748861 
2027	 4.93511050436695E-02 
2028	 4.93016274530733E-02 
2029	 4.94270547987478E-02 
2030	 4.96443198768049E-02 
2031	 4.96629767619348E-02 
2032	 4.96839759355583E-02 
2033	 4.96619339609118E-02 
2034	 4.97369526434824E-02 
2035	 4.97405335651915E-02 
2036	 4.97105227994476E-02 
2037	 4.98571281705308E-02 
2038	 4.99328437930875E-02 
2039	 5.01275603430448E-02 
2040	 5.03194502357613E-02 
2041	 5.06039390977804E-02 
2042	 5.08989029237295E-02 
2043	 5.07460153377315E-02 
2044	 5.07785236206185E-02 
2045	 0.050811596979947 
2046	 5.07367621278994E-02 
2047	 5.05786018872825E-02 
2048	 5.07593709775321E-02 
2049	 5.08721753563281E-02 
2050	 5.11248156616215E-02 
2051	 5.17971613671988E-02 
2052	 0.052484709436018 
2053	 5.25236017570694E-02 
2054	 5.21786097035895E-02 
2055	 5.17881398188475E-02 
2056	 5.12512934623853E-02 
2057	 5.15437893449004E-02 
2058	 5.20469394741316E-02 
2059	 5.21270422330097E-02 
2060	 5.19473586415483E-02 
2061	 5.20275708380583E-02 
2062	 0.051597203729476 
2063	 5.13982317623189E-02 
2064	 5.18277056248313E-02 
2065	 5.15023582011857E-02 
2066	 5.12908885675986E-02 
2067	 5.10880050882598E-02 
2068	 5.06288284097921E-02 
2069	 0.051106638684726 
2070	 0.051827534629947 
2071	 5.20668457254406E-02 
2072	 0.052256715930128 
2073	 5.24398688903149E-02 
2074	 5.23560185034036E-02 
2075	 5.21319223050209E-02 
2076	 5.23664604604399E-02 
2077	 5.30714385723106E-02 
2078	 5.33350296675326E-02 
2079	 5.32101975855132E-02 
2080	 5.33603004430991E-02 
2081	 5.32417255456536E-02 
2082	 5.31018278227858E-02 
2083	 5.33325437643977E-02 
2084	 5.32841080115816E-02 
2085	 5.34635535866982E-02 
2086	 5.38928575336284E-02 
2087	 5.39722832221457E-02 
2088	 0.053863985176788 
2089	 0.054025742891537 
2090	 5.44886756067675E-02 
2091	 5.46151829683748E-02 
2092	 5.49391255083934E-02 
2093	 5.56128789425265E-02 
2094	 5.53742158602329E-02 
2095	 5.48912948052482E-02 
2096	 5.50673252840984E-02 
2097	 5.49443522138769E-02 
2098	 5.47763638556648E-02 
2099	 5.51583784107675E-02 
2100	 5.52839186537448E-02 
2101	 5.53744034239412E-02 
2102	 0.055626310077971 
2103	 5.62245624544634E-02 
2104	 5.63105187258527E-02 
2105	 5.62037777477959E-02 
2106	 5.60398428004338E-02 
2107	 5.58651719580761E-02 
2108	 5.60098809487027E-02 
2109	 5.61450817220999E-02 
2110	 5.64949114740228E-02 
2111	 5.68079951398659E-02 
2112	 5.68799887673375E-02 
2113	 5.71978022326358E-02 
2114	 0.057663938195189 
2115	 5.77412391400856E-02 
2116	 5.76275680702652E-02 
2117	 5.76068236509412E-02 
2118	 5.72726601379837E-02 
2119	 5.72537609358946E-02 
2120	 5.74922692742336E-02 
2121	 5.76673904667801E-02 
2122	 5.77439857899073E-02 
2123	 5.80487804271922E-02 
2124	 5.79365529018285E-02 
2125	 5.84226708282512E-02 
2126	 5.89096998260708E-02 
2127	 5.84796498974574E-02 
2128	 5.85852266526936E-02 
2129	 0.058654008549684 
2130	 5.86095040472778E-02 
2131	 5.89607136046883E-02 
2132	 5.91216479928591E-02 
2133	 0.059181715731173 
2134	 5.93325290426438E-02 
2135	 5.94379632741225E-02 
2136	 5.97193718676401E-02 
2137	 6.00099239574412E-02 
2138	 6.01992078372612E-02 
2139	 6.03668614794973E-02 
2140	 6.05431238892084E-02 
2141	 6.05369848326672E-02 
2142	 6.05117444220085E-02 
2143	 6.05058243031422E-02 
2144	 6.03769098008729E-02 
2145	 6.05412820404306E-02 
2146	 6.05385465438814E-02 
2147	 0.060367806316613 
2148	 6.02633578367064E-02 
2149	 6.02406361004971E-02 
2150	 6.04270564483507E-02 
2151	 6.04491587135948E-02 
2152	 6.04307838668173E-02 
2153	 6.04767594582817E-02 
2154	 6.04765776613896E-02 
2155	 6.03685530763572E-02 
2156	 6.05718313879419E-02 
2157	 6.07062109294051E-02 
2158	 6.04251606073003E-02 
2159	 6.01904882731178E-02 
2160	 6.04008881906772E-02 
2161	 0.060761296085785 
2162	 6.08622774768661E-02 
2163	 6.13518551317179E-02 
2164	 6.16826039558834E-02 
2165	 6.12663545096426E-02 
2166	 6.11443680535949E-02 
2167	 6.12958641066642E-02 
2168	 6.11666882616972E-02 
2169	 6.05581026571729E-02 
2170	 6.04280940455115E-02 
2171	 6.05997188378046E-02 
2172	 6.03186224462851E-02 
2173	 6.03334613596925E-02 
2174	 6.08763967928441E-02 
2175	 6.09777686812412E-02 
2176	 0.060841483208749 
2177	 6.11740621770169E-02 
2178	 6.16654823459922E-02 
2179	 6.21095586828698E-02 
2180	 0.06284095920802 
2181	 6.30111739400957E-02 
2182	 0.062369176121113 
2183	 6.15648255512652E-02 
2184	 6.07076212094695E-02 
2185	 6.02017338890171E-02 
2186	 6.03793096929546E-02 
2187	 6.03890276148601E-02 
2188	 6.05788986911613E-02 
2189	 6.08638301260983E-02 
2190	 6.13608700278248E-02 
2191	 6.14046342272578E-02 
2192	 6.14270547642792E-02 
2193	 6.15868958213975E-02 
2194	 6.13249092025912E-02 
2195	 6.07279840482823E-02 
2196	 6.01698563010014E-02 
2197	 5.99913790538873E-02 
2198	 6.00850173744167E-02 
2199	 6.01416088174491E-02 
2200	 6.00055708865815E-02 
2201	 6.02157889309015E-02 
2202	 6.01558543534929E-02 
2203	 5.95171464037958E-02 
2204	 5.95709855248897E-02 
2205	 5.94108604123143E-02 
2206	 0.059001181925435 
2207	 5.86347736054909E-02 
2208	 5.85326331669998E-02 
2209	 5.87647558606156E-02 
2210	 0.058938934292898 
2211	 0.059216873295604 
2212	 5.93693296945547E-02 
2213	 5.95202749940292E-02 
2214	 5.89281313048626E-02 
2215	 5.83745123418743E-02 
2216	 5.85518506105539E-02 
2217	 5.91209424189596E-02 
2218	 5.96445194558082E-02 
2219	 5.98081860528897E-02 
2220	 5.98627087857951E-02 
2221	 5.99186429390507E-02 
2222	 5.91779729404399E-02 
2223	 5.85402153964608E-02 
2224	 5.82759603173851E-02 
2225	 5.76837855664396E-02 
2226	 5.80119534852387E-02 
2227	 5.86362616222354E-02 
2228	 5.87327683622698E-02 
2229	 0.059434162153473 
2230	 5.94473220019961E-02 
2231	 0.059189223956838 
2232	 5.87235824624046E-02 
2233	 5.85885163734956E-02 
2234	 5.81981081832576E-02 
2235	 5.77445194077928E-02 
2236	 5.77419119571398E-02 
2237	 5.77863037441262E-02 
2238	 5.74763399683466E-02 
2239	 5.70661556669827E-02 
2240	 5.73676171836181E-02 
2241	 5.73589586618396E-02 
2242	 5.71131909788322E-02 
2243	 5.71409074979593E-02 
2244	 0.056638603648203 
2245	 5.62741966956461E-02 
2246	 0.056636060951395 
2247	 5.70569621057204E-02 
2248	 5.75634737161611E-02 
2249	 5.78646064021413E-02 
2250	 5.76147702051923E-02 
2251	 5.76121169744398E-02 
2252	 5.80335855305658E-02 
2253	 0.058216901948809 
2254	 5.77988284699191E-02 
2255	 5.71297997428759E-02 
2256	 5.69632811610384E-02 
2257	 5.66763513954861E-02 
2258	 5.67336452109865E-02 
2259	 5.70596758456543E-02 
2260	 5.72712071982227E-02 
2261	 5.68570139661931E-02 
2262	 5.59336464575292E-02 
2263	 5.51890860159129E-02 
2264	 5.48424674201739E-02 
2265	 5.47316600951009E-02 
2266	 5.52053759368762E-02 
2267	 5.54906136176911E-02 
2268	 5.53677566829821E-02 
2269	 5.51979882337501E-02 
2270	 5.48109131336006E-02 
2271	 5.49331070364384E-02 
2272	 5.54326094019379E-02 
2273	 5.60393952276904E-02 
2274	 5.61389681428212E-02 
2275	 5.59638299927658E-02 
2276	 5.61189256404383E-02 
2277	 5.57492883167141E-02 
2278	 5.49728576688172E-02 
2279	 5.40090729109428E-02 
2280	 5.33478395996587E-02 
2281	 5.35599546023483E-02 
2282	 5.37591328672244E-02 
2283	 5.42149864509831E-02 
2284	 5.46211322916743E-02 
2285	 5.41654914323303E-02 
2286	 5.38479151632128E-02 
2287	 5.35910247373141E-02 
2288	 5.31087424688568E-02 
2289	 5.22652202740842E-02 
2290	 5.19587252994655E-02 
2291	 0.051869242540436 
2292	 5.16819633268494E-02 
2293	 5.19876820668182E-02 
2294	 5.23320955332454E-02 
2295	 5.16133809011329E-02 
2296	 5.20552226920459E-02 
2297	 0.053613032287619 
2298	 5.38335604953453E-02 
2299	 0.054255625957519 
2300	 5.44396854434372E-02 
2301	 5.32287554678123E-02 
2302	 5.25705848967596E-02 
2303	 0.05260805713576 
2304	 0.053117830932905 
2305	 5.36048112560503E-02 
2306	 5.30184757234614E-02 
2307	 5.24417121446326E-02 
2308	 5.15236308382879E-02 
2309	 0.049836816968918 
2310	 4.91746746785454E-02 
2311	 4.90402580727943E-02 
2312	 4.87521695894028E-02 
2313	 4.90827263000905E-02 
2314	 5.04674266149177E-02 
2315	 5.14669991956552E-02 
2316	 0.051890822321253 
2317	 5.22312656263215E-02 
2318	 5.09924621793568E-02 
2319	 5.02037123570883E-02 
2320	 4.98707642975886E-02 
2321	 4.98934126621986E-02 
2322	 5.14323847843066E-02 
2323	 5.14103279128718E-02 
2324	 5.07250004533672E-02 
2325	 5.03508121755288E-02 
2326	 4.87691933623197E-02 
2327	 4.76345716439789E-02 
2328	 4.80356981445628E-02 
2329	 4.68231017782484E-02 
2330	 4.57324448095159E-02 
2331	 0.045025272917302 
2332	 4.54427067989816E-02 
2333	 0.047486973851856 
2334	 4.88423149801222E-02 
2335	 4.95290878360451E-02 
2336	 4.81637613194912E-02 
2337	 4.59465235711902E-02 
2338	 4.66840779040395E-02 
2339	 4.76119770335913E-02 
2340	 4.76998890194261E-02 
2341	 4.83779312780721E-02 
2342	 4.83850543726489E-02 
2343	 4.87448686137767E-02 
2344	 4.97967253562652E-02 
2345	 5.04352593327287E-02 
2346	 5.19588872021348E-02 
2347	 5.25148894741884E-02 
2348	 5.27463220303028E-02 
2349	 5.43811415564373E-02 
2350	 5.29471360246812E-02 
2351	 0.05220698425505 
2352	 5.28261593496101E-02 
2353	 5.15814464602475E-02 
2354	 5.12936505640307E-02 
2355	 0.049447848826128 
2356	 0.046355309964583 
2357	 0.045122003050904 
2358	 4.46876351499409E-02 
2359	 4.58887078179378E-02 
2360	 4.73232906946096E-02 
2361	 4.70848582742895E-02 
2362	 4.73065555741216E-02 
2363	 4.72456611851355E-02 
2364	 4.74063787434496E-02 
2365	 4.67722898223203E-02 
2366	 4.48868047218595E-02 
2367	 4.40035030327884E-02 
2368	 4.33862246863142E-02 
2369	 4.40938665614013E-02 
2370	 4.56584218766928E-02 
2371	 0.046516256717325 
2372	 4.68160093181723E-02 
2373	 4.59015040693531E-02 
2374	 4.59354533959382E-02 
2375	 4.61338723657863E-02 
2376	 4.71243465194983E-02 
2377	 4.87505993480207E-02 
2378	 4.91934203735763E-02 
2379	 4.97010026320038E-02 
2380	 4.90906990751773E-02 
2381	 4.82410080560414E-02 
2382	 4.74511339416332E-02 
2383	 4.48556002235345E-02 
2384	 4.35495699063963E-02 
2385	 4.21063474746082E-02 
2386	 4.13414749350711E-02 
2387	 4.23466461239959E-02 
2388	 4.31034481550158E-02 
2389	 4.39324813295875E-02 
2390	 4.49611372958811E-02 
2391	 4.68525374058091E-02 
2392	 4.79511334104054E-02 
2393	 4.76110836580236E-02 
2394	 4.81149414078596E-02 
2395	 5.01840297446192E-02 
2396	 4.96756161081816E-02 
2397	 4.89965363765244E-02 
2398	 4.82676054166586E-02 
2399	 0.043198573349498 
2400	 4.07163162816751E-02 
2401	 3.93246238277566E-02 
2402	 3.97415195407719E-02 
2403	 4.37478298774926E-02 
2404	 4.99110326329514E-02 
2405	 5.22816564661796E-02 
2406	 5.01764781807864E-02 
2407	 0.044086738364287 
2408	 3.87915460481509E-02 
2409	 3.98286887058419E-02 
2410	 4.38652743091301E-02 
2411	 4.25865564089159E-02 
2412	 3.76426532041241E-02 
2413	 3.38857069219828E-02 
2414	 3.41205563986082E-02 
2415	 4.08314343056048E-02 
2416	 4.94231861426811E-02 
2417	 4.92406378941739E-02 
2418	 4.37998738030559E-02 
2419	 3.99338012999413E-02 
2420	 3.38646137512001E-02 
2421	 3.34979895964984E-02 
2422	 3.77321746148501E-02 
2423	 4.01339486421867E-02 
2424	 4.54693959672981E-02 
2425	 4.98442055711854E-02 
2426	 5.16383231840169E-02 
2427	 5.01839288003886E-02 
2428	 4.66430241795343E-02 
2429	 4.74258037640206E-02 
2430	 4.72950834224771E-02 
2431	 4.46760350569816E-02 
2432	 4.42984592405946E-02 
2433	 0.039734060194919 
2434	 3.83131627745989E-02 
2435	 4.08964775727352E-02 
2436	 4.47595737558548E-02 
2437	 5.62822776012032E-02 
2438	 5.69965959076631E-02 
2439	 5.06120481375782E-02 
2440	 4.92495645081572E-02 
2441	 4.14261184442874E-02 
2442	 3.67508297995389E-02 
2443	 3.82624125791698E-02 
2444	 0.037456662605587 
2445	 3.20993051303501E-02 
2446	 3.09819779111077E-02 
2447	 3.55086482072684E-02 
2448	 3.79047826798016E-02 
2449	 4.05074863989924E-02 
2450	 4.31581307077879E-02 
2451	 4.79697706659744E-02 
2452	 5.02604692466752E-02 
2453	 0.049032011338535 
2454	 5.02386732991765E-02 
2455	 5.06087944427428E-02 
2456	 5.08165222419185E-02 
2457	 0.055981814132952 
2458	 5.31099258558575E-02 
2459	 4.40926925527551E-02 
2460	 3.92382629436985E-02 
2461	 2.90847621615005E-02 
2462	 2.63614051413092E-02 
2463	 3.02254915982083E-02 
2464	 2.81155370252147E-02 
2465	 2.35199161501349E-02 
2466	 0.027726375160725 
2467	 3.75391355580296E-02 
2468	 4.50191619910894E-02 
2469	 0.062731285671065 
2470	 6.79819046203523E-02 
2471	 5.84355821535803E-02 
2472	 5.37330369898297E-02 
2473	 4.78442317686277E-02 
2474	 4.35229398787787E-02 
2475	 3.95182033018405E-02 
2476	 3.86140089468348E-02 
2477	 3.70074400031496E-02 
2478	 3.68136714710931E-02 
2479	 4.41069884494904E-02 
2480	 5.14019469402707E-02 
2481	 6.16824468699423E-02 
2482	 6.02126331822986E-02 
2483	 4.78820014694913E-02 
2484	 3.94338248623346E-02 
2485	 2.13488447303434E-02 
2486	 3.47583559059579E-02 
2487	 5.08426583771992E-02 
2488	 0.093842818489471 
2489	 0.113286111407839 
2490	 7.91991748095236E-02 
2491	 5.37732656333091E-02 
2492	 3.10781115531932E-02 
2493	 2.37274869109528E-02 
2494	 9.24874075420341E-02 
2495	 0.142502746651267 
2496	 0.181524463717767 
2497	 0.206913657335586 
2498	 0.14739430748456 
2499	 0.112032141149348 
2500	 9.78694105092154E-02 
