Wavelength	ref00074.asd
350	 1.41687237407288E-02 
351	 1.40948223968876E-02 
352	 1.36739335495785E-02 
353	 1.37393132553539E-02 
354	 1.39114537705819E-02 
355	 0.013480988963072 
356	 1.25254366685704E-02 
357	 1.28518308305566E-02 
358	 0.012864089691947 
359	 1.25437981893644E-02 
360	 1.23722748774252E-02 
361	 1.27977683658831E-02 
362	 1.23593632460704E-02 
363	 1.15713601095459E-02 
364	 1.20028715148356E-02 
365	 1.17713075911252E-02 
366	 1.14807419778708E-02 
367	 1.14225468179135E-02 
368	 1.10300492382504E-02 
369	 1.09502235488737E-02 
370	 1.09219959687931E-02 
371	 1.07054479558009E-02 
372	 1.08353180658972E-02 
373	 1.07487181711667E-02 
374	 1.07076291336762E-02 
375	 1.11985554266725E-02 
376	 1.10300604381121E-02 
377	 0.01051059426557 
378	 1.02211476288222E-02 
379	 1.08376179936553E-02 
380	 1.07475211881433E-02 
381	 1.05300348186859E-02 
382	 1.07911724466163E-02 
383	 1.08604447014762E-02 
384	 1.09888859316235E-02 
385	 1.12007919588652E-02 
386	 1.13969117181359E-02 
387	 1.13068983098269E-02 
388	 0.011563151662535 
389	 1.19948409458266E-02 
390	 1.16273434461312E-02 
391	 1.16429378276403E-02 
392	 1.19123974178148E-02 
393	 1.22049831547719E-02 
394	 1.26456266639034E-02 
395	 1.32142788263872E-02 
396	 1.34405094032836E-02 
397	 1.30573325137977E-02 
398	 1.35238242813654E-02 
399	 1.39238545841048E-02 
400	 0.014051095681043 
401	 1.43802747520526E-02 
402	 1.49402753071441E-02 
403	 0.015584788150696 
404	 1.62134218956831E-02 
405	 1.68713612603305E-02 
406	 0.017702363812645 
407	 1.85516448637073E-02 
408	 1.92598616086586E-02 
409	 2.02321143226181E-02 
410	 2.12275876719787E-02 
411	 2.22539166225921E-02 
412	 2.35065848923178E-02 
413	 2.41960357122558E-02 
414	 2.50255922395123E-02 
415	 2.64314218277593E-02 
416	 0.0278639889202 
417	 2.89308430022476E-02 
418	 2.99069585897877E-02 
419	 3.11904492380342E-02 
420	 3.23818848227988E-02 
421	 3.37006656959978E-02 
422	 3.50503201785117E-02 
423	 3.60956596947585E-02 
424	 3.75522101732702E-02 
425	 3.90098942310799E-02 
426	 4.01745524766658E-02 
427	 0.041391420521756 
428	 0.042774768662971 
429	 4.41808566054755E-02 
430	 4.54189807513169E-02 
431	 0.046669361030944 
432	 4.77463768478544E-02 
433	 4.86378833002361E-02 
434	 4.94861657748333E-02 
435	 5.01086827803343E-02 
436	 5.06437364852699E-02 
437	 5.11536242701453E-02 
438	 5.14241206628135E-02 
439	 5.17201360723709E-02 
440	 5.19300506334988E-02 
441	 5.18944131402602E-02 
442	 0.051940086737606 
443	 5.20157444065901E-02 
444	 5.20291474598594E-02 
445	 5.18880596192883E-02 
446	 0.051864893463699 
447	 5.19149991243352E-02 
448	 5.19797061743635E-02 
449	 5.21242613823141E-02 
450	 5.22961483200293E-02 
451	 5.25139285516057E-02 
452	 5.28447749055467E-02 
453	 5.34567728929639E-02 
454	 5.41173011010261E-02 
455	 5.47419836662854E-02 
456	 0.055455343087509 
457	 5.62525211802138E-02 
458	 5.71183533497542E-02 
459	 5.80188634538083E-02 
460	 5.88783905236413E-02 
461	 5.97608079560735E-02 
462	 6.06531352604812E-02 
463	 6.15014010220751E-02 
464	 0.06231996606882 
465	 6.31147476391872E-02 
466	 6.38260969731052E-02 
467	 6.43010094219671E-02 
468	 6.45652321691093E-02 
469	 6.46725984734154E-02 
470	 6.46667418054805E-02 
471	 0.064499758756525 
472	 6.41891343291035E-02 
473	 6.37541872439525E-02 
474	 6.32298519636137E-02 
475	 6.28007469199024E-02 
476	 6.23684226796189E-02 
477	 6.19079779240944E-02 
478	 6.16135921726001E-02 
479	 0.061373075527946 
480	 6.12592909621566E-02 
481	 6.13847465145637E-02 
482	 6.17164469991489E-02 
483	 6.23682251701759E-02 
484	 0.063362921151813 
485	 6.46192541067062E-02 
486	 6.61177399442524E-02 
487	 6.78070490007506E-02 
488	 6.96653649812029E-02 
489	 7.17629963766378E-02 
490	 7.40780916785136E-02 
491	 7.66733876196981E-02 
492	 7.96353366972026E-02 
493	 8.27950252250365E-02 
494	 8.61886820186873E-02 
495	 8.98033844216445E-02 
496	 9.35513274446225E-02 
497	 0.09754956645758 
498	 0.101866626750057 
499	 0.106496803184921 
500	 0.111233817906763 
501	 0.116383861703012 
502	 0.121772646762458 
503	 0.126996685087394 
504	 0.132489424032307 
505	 0.138125946846681 
506	 0.143858637323648 
507	 0.149867375771352 
508	 0.156047660686658 
509	 0.162331762978165 
510	 0.168674723689049 
511	 0.175116228598375 
512	 0.181577731277965 
513	 0.188074450945177 
514	 0.194706057592893 
515	 0.2013120509685 
516	 0.208202258010862 
517	 0.215363799172743 
518	 0.221945423373875 
519	 0.22833745731774 
520	 0.234448473093343 
521	 0.240104537990854 
522	 0.245516575192142 
523	 0.250856110566728 
524	 0.256129464380902 
525	 0.26110506445356 
526	 0.266142077890589 
527	 0.271008907104857 
528	 0.275380994110718 
529	 0.27901185393619 
530	 0.28241121611877 
531	 0.28581861399289 
532	 0.289259558778892 
533	 0.292322813326393 
534	 0.295106030961462 
535	 0.297665552924671 
536	 0.299889422033041 
537	 0.302140103510727 
538	 0.304390889856723 
539	 0.306515878224699 
540	 0.308600494892582 
541	 0.310544482676246 
542	 0.312246434639706 
543	 0.313640102013283 
544	 0.315175513348926 
545	 0.316617957031131 
546	 0.317845053047227 
547	 0.319275946346016 
548	 0.320605230974536 
549	 0.321735707796023 
550	 0.322704781933578 
551	 0.32379308933074 
552	 0.324965933518961 
553	 0.32614718278498 
554	 0.327245241045177 
555	 0.328396836896754 
556	 0.32976761999775 
557	 0.331425571242685 
558	 0.333091009455388 
559	 0.334911645201808 
560	 0.336860818154175 
561	 0.338841029615757 
562	 0.341138481426412 
563	 0.343694650953466 
564	 0.346397884655932 
565	 0.349113310116386 
566	 0.351793276160588 
567	 0.35438217533919 
568	 0.35687591231972 
569	 0.35944058003212 
570	 0.362134829157938 
571	 0.364890629045981 
572	 0.367541694481384 
573	 0.370055933296292 
574	 0.37266673573929 
575	 0.375482121017872 
576	 0.378109303776382 
577	 0.380654937254779 
578	 0.383134184698435 
579	 0.38552041548711 
580	 0.387704305488134 
581	 0.389717121891191 
582	 0.391589170519598 
583	 0.393325986235185 
584	 0.395422241917346 
585	 0.397707701300417 
586	 0.399917329441574 
587	 0.402189176296073 
588	 0.404834952994108 
589	 0.407777502753249 
590	 0.410563477769636 
591	 0.412876820706722 
592	 0.414926361173243 
593	 0.416915257162586 
594	 0.41873545029895 
595	 0.420458407608275 
596	 0.421876459949505 
597	 0.422848309671752 
598	 0.423960381916309 
599	 0.424934774565702 
600	 0.425722354295584 
601	 0.42653542957539 
602	 0.427352785432353 
603	 0.428123453225839 
604	 0.428842223418607 
605	 0.429647608155083 
606	 0.430540880389004 
607	 0.431448534500747 
608	 0.432258008463117 
609	 0.432958626882571 
610	 0.433620178903429 
611	 0.434244650678594 
612	 0.434732330870698 
613	 0.435207825565651 
614	 0.435625422817707 
615	 0.435929496899672 
616	 0.436212039530004 
617	 0.43648401213765 
618	 0.436643699225255 
619	 0.436557711691228 
620	 0.436553101354634 
621	 0.436583802420381 
622	 0.436585202421385 
623	 0.436549532414853 
624	 0.436682768847961 
625	 0.436875923874077 
626	 0.436947337935755 
627	 0.437022375436112 
628	 0.437050164970276 
629	 0.437017425036767 
630	 0.436956985883111 
631	 0.436952664092099 
632	 0.43693961796224 
633	 0.436834227512259 
634	 0.436575219852922 
635	 0.436306575823254 
636	 0.436055609557368 
637	 0.435776925952818 
638	 0.43534992859986 
639	 0.434806337572256 
640	 0.434268207559746 
641	 0.433962290302573 
642	 0.433494992015143 
643	 0.432976901069523 
644	 0.432559422366743 
645	 0.432092150639068 
646	 0.431752966208348 
647	 0.431458167999453 
648	 0.430996970041483 
649	 0.430652032996813 
650	 0.430166880841252 
651	 0.429552162618333 
652	 0.429317932718415 
653	 0.428868139550446 
654	 0.428323189440128 
655	 0.42798160225272 
656	 0.428039269329041 
657	 0.427859433452986 
658	 0.427273285905661 
659	 0.426514340185476 
660	 0.425733974869326 
661	 0.425021059053488 
662	 0.424394970521312 
663	 0.423727319945437 
664	 0.423019877921965 
665	 0.422381478670891 
666	 0.421903778838217 
667	 0.421433260177661 
668	 0.420851678630083 
669	 0.420267668940769 
670	 0.419957805770439 
671	 0.419600419879448 
672	 0.419251193235675 
673	 0.418970858904925 
674	 0.418637599799638 
675	 0.418511972503469 
676	 0.418450285491643 
677	 0.418229322015052 
678	 0.418176969575649 
679	 0.418154072189672 
680	 0.4181906612808 
681	 0.418503867429794 
682	 0.418810681638733 
683	 0.419234025441047 
684	 0.41984125261434 
685	 0.420298756341441 
686	 0.421086849754526 
687	 0.422421927311683 
688	 0.424158297903958 
689	 0.425579726282101 
690	 0.426949334640531 
691	 0.428570981327858 
692	 0.430553269093913 
693	 0.432986528960437 
694	 0.435552355199479 
695	 0.437894933780561 
696	 0.439872388640157 
697	 0.441731599174216 
698	 0.443978059663827 
699	 0.447023723777505 
700	 0.449952907198397 
701	 0.452699951082345 
702	 0.455285309014507 
703	 0.457741479927146 
704	 0.460129292246769 
705	 0.46251573901128 
706	 0.464949558017594 
707	 0.467359193532051 
708	 0.469851400906384 
709	 0.472412800014199 
710	 0.474949419447782 
711	 0.477398012920503 
712	 0.479903151923412 
713	 0.482521788210088 
714	 0.48519913952294 
715	 0.488233781554887 
716	 0.491998216317542 
717	 0.49667585855029 
718	 0.501577637957543 
719	 0.505553554789361 
720	 0.507733664641969 
721	 0.508314259262456 
722	 0.509497355744769 
723	 0.512117501360238 
724	 0.515908871640986 
725	 0.519118027127265 
726	 0.521325396579697 
727	 0.523222392967115 
728	 0.52538548003518 
729	 0.527289177683317 
730	 0.528941870161997 
731	 0.530223932887502 
732	 0.531027940399472 
733	 0.531249803781623 
734	 0.531975050687793 
735	 0.533305229534081 
736	 0.534435446328492 
737	 0.535684020413284 
738	 0.536804564748647 
739	 0.53767795443962 
740	 0.538556565841407 
741	 0.539513778771919 
742	 0.540427244834244 
743	 0.541157907248197 
744	 0.541882560334827 
745	 0.542654683407541 
746	 0.543404377264294 
747	 0.543986118994649 
748	 0.544490424261045 
749	 0.545002662615782 
750	 0.545561431246466 
751	 0.546136631431432 
752	 0.546451420371058 
753	 0.546696228318086 
754	 0.547088697545005 
755	 0.547477482415274 
756	 0.547462665526313 
757	 0.547103607949946 
758	 0.546800286852508 
759	 0.547260315082232 
760	 0.548776586601151 
761	 0.550798403799076 
762	 0.550519397221668 
763	 0.550457301617549 
764	 0.550620353096556 
765	 0.55051481509012 
766	 0.549744914563862 
767	 0.549439099902382 
768	 0.54941277281027 
769	 0.549250280175783 
770	 0.549271920068825 
771	 0.549391075563235 
772	 0.549461894776661 
773	 0.549343808337253 
774	 0.549459490263681 
775	 0.549513830908914 
776	 0.549380684640329 
777	 0.549405052328817 
778	 0.549425592323841 
779	 0.549476976846839 
780	 0.549606359588952 
781	 0.549743845259891 
782	 0.549784685101424 
783	 0.549823067534844 
784	 0.550011979915236 
785	 0.550076768125143 
786	 0.55027050713403 
787	 0.550646088494036 
788	 0.550999493086822 
789	 0.551365230126681 
790	 0.551591522947798 
791	 0.551619387527268 
792	 0.551631102925738 
793	 0.551656806187431 
794	 0.551739149840263 
795	 0.551902739736868 
796	 0.552153348622999 
797	 0.552236157711049 
798	 0.55220275866796 
799	 0.552279895492656 
800	 0.552476794369168 
801	 0.552593006992697 
802	 0.552583957708475 
803	 0.552605515418508 
804	 0.552609628429147 
805	 0.552573592309065 
806	 0.552493126211075 
807	 0.552371158045979 
808	 0.5525922369608 
809	 0.552979027255407 
810	 0.55333709150777 
811	 0.554191649453612 
812	 0.555183565537866 
813	 0.556368369017407 
814	 0.557931292633769 
815	 0.559154526785156 
816	 0.559819495630158 
817	 0.559873700245109 
818	 0.559427353542847 
819	 0.558481524559809 
820	 0.557496502906632 
821	 0.557006405061934 
822	 0.557579880577468 
823	 0.558039904711488 
824	 0.55753495938185 
825	 0.55601704619921 
826	 0.555062964995319 
827	 0.554943472380659 
828	 0.555117027765454 
829	 0.554785118546193 
830	 0.554090527181867 
831	 0.553547053505793 
832	 0.553085939750862 
833	 0.552272867818036 
834	 0.551700164151116 
835	 0.550984814529338 
836	 0.550149054908444 
837	 0.549778799031992 
838	 0.549569108012569 
839	 0.549323685102104 
840	 0.548973009276495 
841	 0.548649594308893 
842	 0.548498256218427 
843	 0.5483987516717 
844	 0.548195197279796 
845	 0.547897454751816 
846	 0.547684284269884 
847	 0.547621497656098 
848	 0.547663145477723 
849	 0.54753214520628 
850	 0.547550328867957 
851	 0.547536440273873 
852	 0.547090633005079 
853	 0.547432530114159 
854	 0.547881782791746 
855	 0.547884995612248 
856	 0.547356913592864 
857	 0.546655430378231 
858	 0.546476748932835 
859	 0.546855880804169 
860	 0.546808056657842 
861	 0.54657800089246 
862	 0.546395335891263 
863	 0.546359686534791 
864	 0.546155942049459 
865	 0.54659396005322 
866	 0.54699800071677 
867	 0.546583099784222 
868	 0.546295952487619 
869	 0.546049635472648 
870	 0.545870191769739 
871	 0.54580112840011 
872	 0.545783543778405 
873	 0.545717905280214 
874	 0.54562635210333 
875	 0.545587216946702 
876	 0.545373379393088 
877	 0.545263304131402 
878	 0.545279896246499 
879	 0.545158188170857 
880	 0.544924333858033 
881	 0.544832236196737 
882	 0.544808401746508 
883	 0.544344230292891 
884	 0.544145707782057 
885	 0.544111762961142 
886	 0.544047512799053 
887	 0.543908906575878 
888	 0.543769661977601 
889	 0.54368937425341 
890	 0.543712219341848 
891	 0.543821032400327 
892	 0.544583892926444 
893	 0.54531554081644 
894	 0.545542524454353 
895	 0.547172099052664 
896	 0.54815239205962 
897	 0.548727219775028 
898	 0.549854447916227 
899	 0.550688034597892 
900	 0.550368923370207 
901	 0.549269148500943 
902	 0.548323895494631 
903	 0.547434255558185 
904	 0.546350742210965 
905	 0.545746790267245 
906	 0.546553975738136 
907	 0.547586020712337 
908	 0.548480622592621 
909	 0.548934812637306 
910	 0.548798820011697 
911	 0.548839847028586 
912	 0.548611898213769 
913	 0.548161205787756 
914	 0.548028944496067 
915	 0.547599270875898 
916	 0.546597938854759 
917	 0.545310671083584 
918	 0.544476938465658 
919	 0.543549109380294 
920	 0.542044799393298 
921	 0.540376030514548 
922	 0.539910353206876 
923	 0.539823324236979 
924	 0.539293214228734 
925	 0.53847853482118 
926	 0.538970636766645 
927	 0.540014547379947 
928	 0.541226829230849 
929	 0.54279927820249 
930	 0.54586625912591 
931	 0.549424684121512 
932	 0.552058633231507 
933	 0.553210623648145 
934	 0.554690673486549 
935	 0.553554844470758 
936	 0.550847650829803 
937	 0.547728200592825 
938	 0.543218581179322 
939	 0.539838386310934 
940	 0.537255613228129 
941	 0.534752716040428 
942	 0.532242530602833 
943	 0.531604409514398 
944	 0.530679206986095 
945	 0.528189114408341 
946	 0.527046750372707 
947	 0.524555547714967 
948	 0.521179946275138 
949	 0.517834441654951 
950	 0.514430597322134 
951	 0.511681070302189 
952	 0.508553917385411 
953	 0.504757142075148 
954	 0.502293371090453 
955	 0.498917638489209 
956	 0.495792961329496 
957	 0.493558374719131 
958	 0.49030449935325 
959	 0.487580998519519 
960	 0.484915481215593 
961	 0.482221011664896 
962	 0.480836819308201 
963	 0.479367273771276 
964	 0.476542055253801 
965	 0.473049588843311 
966	 0.472296631386955 
967	 0.470257938498316 
968	 0.468393688763834 
969	 0.467622867687162 
970	 0.466320874615887 
971	 0.465239101591287 
972	 0.464917809432586 
973	 0.465128163798359 
974	 0.464728969103298 
975	 0.464728439515485 
976	 0.465097757100862 
977	 0.465055145093795 
978	 0.463453355646218 
979	 0.462755878966779 
980	 0.46231305235368 
981	 0.461826991029578 
982	 0.46182762052359 
983	 0.461598122685887 
984	 0.460763512011972 
985	 0.460263076816263 
986	 0.461490741224898 
987	 0.460479307458039 
988	 0.460760920186044 
989	 0.462524308638514 
990	 0.46316678257101 
991	 0.464105573091021 
992	 0.463858438111597 
993	 0.463178122163689 
994	 0.463853729810247 
995	 0.464740492105187 
996	 0.465751747452298 
997	 0.465540520459214 
998	 0.463875147173256 
999	 0.467192814774172 
1000	 0.468938491104496 
1001	 0.468730765710554 
1002	 0.469497989658766 
1003	 0.470360262366837 
1004	 0.471227177610154 
1005	 0.472076415608247 
1006	 0.473158943455163 
1007	 0.474063069838214 
1008	 0.474784583255066 
1009	 0.475715262640971 
1010	 0.476777500693935 
1011	 0.477707610451849 
1012	 0.478690317300168 
1013	 0.479642311663399 
1014	 0.480469362821998 
1015	 0.481412097487327 
1016	 0.482411434022596 
1017	 0.483306780915422 
1018	 0.484319031696275 
1019	 0.485513790359159 
1020	 0.48645388369939 
1021	 0.487344401162082 
1022	 0.488268902864212 
1023	 0.489073351210269 
1024	 0.48984194555457 
1025	 0.490932006651722 
1026	 0.49194436121484 
1027	 0.492899778737141 
1028	 0.493771420696089 
1029	 0.494500353331852 
1030	 0.495191415851611 
1031	 0.495844620306191 
1032	 0.49659460569021 
1033	 0.497348117343778 
1034	 0.498094277784082 
1035	 0.49889049384172 
1036	 0.499778792359424 
1037	 0.500561383418783 
1038	 0.501361416332138 
1039	 0.502124913878471 
1040	 0.502669764808525 
1041	 0.503101354895416 
1042	 0.503626059855225 
1043	 0.504114410778675 
1044	 0.504638769895888 
1045	 0.505386097325616 
1046	 0.506171762509342 
1047	 0.506819630459681 
1048	 0.507255378150714 
1049	 0.507637268298526 
1050	 0.508117950860232 
1051	 0.508522039173587 
1052	 0.508990033880472 
1053	 0.509615494846459 
1054	 0.510174998725721 
1055	 0.51061020873084 
1056	 0.511032161150211 
1057	 0.511397196514259 
1058	 0.511824199913269 
1059	 0.512364337179088 
1060	 0.512782576779646 
1061	 0.51308101892314 
1062	 0.513359898020173 
1063	 0.513567195369794 
1064	 0.513821224061666 
1065	 0.514110356712041 
1066	 0.514494306535046 
1067	 0.514900202062764 
1068	 0.515177949162146 
1069	 0.515267640276685 
1070	 0.515502995513527 
1071	 0.515689916307102 
1072	 0.515738074745918 
1073	 0.516021888255823 
1074	 0.516202299553436 
1075	 0.516205248178657 
1076	 0.51622703278159 
1077	 0.516103241395655 
1078	 0.515857578088542 
1079	 0.515707270986692 
1080	 0.515644672884399 
1081	 0.515571052782697 
1082	 0.515527866578483 
1083	 0.515534752945403 
1084	 0.515464814397808 
1085	 0.515375953603004 
1086	 0.515311014423204 
1087	 0.51504058286357 
1088	 0.514854012799237 
1089	 0.51470844317895 
1090	 0.514419980942699 
1091	 0.514324536596969 
1092	 0.51421967876974 
1093	 0.514043375702132 
1094	 0.514059046480737 
1095	 0.514089446091425 
1096	 0.514014261645719 
1097	 0.513860457629318 
1098	 0.51378415071729 
1099	 0.513680135704494 
1100	 0.513562178104224 
1101	 0.513466047848692 
1102	 0.513368728979975 
1103	 0.513361190504223 
1104	 0.513337205180167 
1105	 0.513377814679497 
1106	 0.513681255967615 
1107	 0.513989768671746 
1108	 0.514408613917444 
1109	 0.514984337538217 
1110	 0.515617494134631 
1111	 0.51639722682226 
1112	 0.517292228672929 
1113	 0.518271643927654 
1114	 0.519598397182146 
1115	 0.520936628517283 
1116	 0.522355898598827 
1117	 0.523933750072177 
1118	 0.525730689110024 
1119	 0.527142519626288 
1120	 0.52809573854418 
1121	 0.528660873927862 
1122	 0.528780703743192 
1123	 0.528208087688787 
1124	 0.527142556509061 
1125	 0.525751391698645 
1126	 0.523542143746385 
1127	 0.520753281871543 
1128	 0.517274477412908 
1129	 0.513192140038676 
1130	 0.508943347756376 
1131	 0.504317992044358 
1132	 0.499617823146942 
1133	 0.494802552589452 
1134	 0.48981779925218 
1135	 0.484810883018519 
1136	 0.479768988345075 
1137	 0.474873455687287 
1138	 0.470342180503082 
1139	 0.46610399040628 
1140	 0.461941247856115 
1141	 0.45782415062797 
1142	 0.453745707968401 
1143	 0.449655273129429 
1144	 0.44563026112757 
1145	 0.441289959385135 
1146	 0.436850057162098 
1147	 0.432425485321657 
1148	 0.427889920056951 
1149	 0.423431526287738 
1150	 0.419299732688586 
1151	 0.415161635613868 
1152	 0.411052652287426 
1153	 0.407267813939532 
1154	 0.403764496121652 
1155	 0.400534134315039 
1156	 0.397556741108911 
1157	 0.394826101672797 
1158	 0.392374066308694 
1159	 0.39013565137086 
1160	 0.388196053382811 
1161	 0.386542591024784 
1162	 0.385007000506495 
1163	 0.383674350083591 
1164	 0.382373582085872 
1165	 0.381112347771912 
1166	 0.379973548363989 
1167	 0.378821926503839 
1168	 0.377888436447822 
1169	 0.377083644433641 
1170	 0.376430924097703 
1171	 0.375853786830988 
1172	 0.375353606185606 
1173	 0.374851221297564 
1174	 0.374281663873944 
1175	 0.373683882441093 
1176	 0.373119985316376 
1177	 0.372633673545248 
1178	 0.372163502222044 
1179	 0.371766786836838 
1180	 0.371545262120813 
1181	 0.371144805114004 
1182	 0.370704754384072 
1183	 0.370253149500148 
1184	 0.369720967321484 
1185	 0.369202912859606 
1186	 0.368626892566791 
1187	 0.368176504174332 
1188	 0.36781373950557 
1189	 0.367363056487717 
1190	 0.366985672957051 
1191	 0.366701500027912 
1192	 0.366308709996012 
1193	 0.365968051490028 
1194	 0.365700687248716 
1195	 0.365475998151844 
1196	 0.365329618921313 
1197	 0.365277591140018 
1198	 0.365205974943897 
1199	 0.365174610938206 
1200	 0.365185351455676 
1201	 0.365209848763569 
1202	 0.365265203786925 
1203	 0.365442780731678 
1204	 0.365526464482365 
1205	 0.365511031862344 
1206	 0.365589122025696 
1207	 0.365658834295747 
1208	 0.365789585689632 
1209	 0.366014698484413 
1210	 0.366258304447484 
1211	 0.366463834770324 
1212	 0.366621331303946 
1213	 0.366802480727552 
1214	 0.366932758683876 
1215	 0.367166425502265 
1216	 0.367476371919097 
1217	 0.367727460907154 
1218	 0.36800035893784 
1219	 0.368265736318733 
1220	 0.368490683434466 
1221	 0.368735075127798 
1222	 0.369030681053518 
1223	 0.36928626145161 
1224	 0.369486377365718 
1225	 0.369748309107864 
1226	 0.370038526392248 
1227	 0.370299775555742 
1228	 0.370568647904373 
1229	 0.370852713263859 
1230	 0.371114326363943 
1231	 0.371410572014403 
1232	 0.371674004595957 
1233	 0.371938626365133 
1234	 0.372223783998365 
1235	 0.3724921940302 
1236	 0.372786684108111 
1237	 0.373078899308927 
1238	 0.373470519348293 
1239	 0.373971795568701 
1240	 0.374333444443907 
1241	 0.374723813458394 
1242	 0.375071904950079 
1243	 0.375261626254763 
1244	 0.375547370231517 
1245	 0.375950203992178 
1246	 0.376259517457063 
1247	 0.376539436836263 
1248	 0.376786719999236 
1249	 0.376981237450644 
1250	 0.377161221116802 
1251	 0.377325624757476 
1252	 0.37745390132183 
1253	 0.377569601073361 
1254	 0.377647397493072 
1255	 0.37776426400677 
1256	 0.377892122060383 
1257	 0.377984362551659 
1258	 0.378092945695041 
1259	 0.37815845862443 
1260	 0.378154764332819 
1261	 0.378190908624485 
1262	 0.378246448741631 
1263	 0.378268711479178 
1264	 0.378245506305081 
1265	 0.378283949065282 
1266	 0.378378129223467 
1267	 0.378393589138542 
1268	 0.37847657528284 
1269	 0.37843444450212 
1270	 0.378170011454511 
1271	 0.378042705407769 
1272	 0.377968118864626 
1273	 0.377844150420841 
1274	 0.377729025737734 
1275	 0.377699019611369 
1276	 0.377551678633825 
1277	 0.37729105809031 
1278	 0.377126839689728 
1279	 0.376984495273542 
1280	 0.376823700868639 
1281	 0.376726795983939 
1282	 0.376507586648469 
1283	 0.37624112283075 
1284	 0.375926128537449 
1285	 0.37550018340204 
1286	 0.375127455779587 
1287	 0.374776414763502 
1288	 0.374359290277988 
1289	 0.373947177155103 
1290	 0.373470108628817 
1291	 0.37288689671912 
1292	 0.372329309652294 
1293	 0.37173405614525 
1294	 0.371155876230451 
1295	 0.370618241756512 
1296	 0.370034069739921 
1297	 0.369365539109224 
1298	 0.368683009112034 
1299	 0.367881863504076 
1300	 0.366933706775923 
1301	 0.366046547830247 
1302	 0.365164389619073 
1303	 0.364144300350527 
1304	 0.363081658514006 
1305	 0.36193169433556 
1306	 0.360592816840592 
1307	 0.35934208698769 
1308	 0.358126021743905 
1309	 0.356807576706318 
1310	 0.355488865357129 
1311	 0.354045569652577 
1312	 0.352452190167741 
1313	 0.350871925242629 
1314	 0.349265228685748 
1315	 0.347584353034881 
1316	 0.345863812402823 
1317	 0.34409975587197 
1318	 0.342160159336554 
1319	 0.340323253562591 
1320	 0.338495406608389 
1321	 0.336696219207636 
1322	 0.334870729856906 
1323	 0.333055754919404 
1324	 0.331237157181532 
1325	 0.329312562551274 
1326	 0.327519349609439 
1327	 0.325786057867312 
1328	 0.324012734735106 
1329	 0.322404832732536 
1330	 0.320448367728551 
1331	 0.318278516172423 
1332	 0.31619510025414 
1333	 0.313872695751525 
1334	 0.311789140626903 
1335	 0.309870407367347 
1336	 0.308009430484481 
1337	 0.306062478871253 
1338	 0.304423299978787 
1339	 0.302803091542136 
1340	 0.3015399668251 
1341	 0.300495481580408 
1342	 0.299778188796455 
1343	 0.299755322133987 
1344	 0.299582483865618 
1345	 0.299658941173198 
1346	 0.299982031899933 
1347	 0.300449074261345 
1348	 0.30107914407549 
1349	 0.302337236065003 
1350	 0.305081477614701 
1351	 0.307607194555699 
1352	 0.311294117695616 
1353	 0.315053259145621 
1354	 0.318373133247955 
1355	 0.323768268195278 
1356	 0.329130140687867 
1357	 0.337452601789977 
1358	 0.347119162918041 
1359	 0.359948006870939 
1360	 0.361762816237427 
1361	 0.374122547881161 
1362	 0.379576676524052 
1363	 0.388541560891178 
1364	 0.392565646302785 
1365	 0.392348693828016 
1366	 0.376430368707375 
1367	 0.368223458458586 
1368	 0.364356856346415 
1369	 0.359170307341301 
1370	 0.357651839248795 
1371	 0.351464625288226 
1372	 0.339867522075099 
1373	 0.335319639638315 
1374	 0.329781121444665 
1375	 0.329767704785107 
1376	 0.331037727400908 
1377	 0.325855631473633 
1378	 0.31958197540653 
1379	 0.309470002418615 
1380	 0.298374861523987 
1381	 0.283955380701905 
1382	 0.272270435039697 
1383	 0.260914200896994 
1384	 0.249661102279723 
1385	 0.243108355935338 
1386	 0.231273896576863 
1387	 0.214726229540197 
1388	 0.207842167616163 
1389	 0.204456744212056 
1390	 0.199272223570116 
1391	 0.198755256461728 
1392	 0.194109779901146 
1393	 0.186692551070176 
1394	 0.179285728460394 
1395	 0.172001023826284 
1396	 0.164025034946296 
1397	 0.152019721488327 
1398	 0.145115731827738 
1399	 0.141612809172415 
1400	 0.136475778132272 
1401	 0.133736297755023 
1402	 0.129357698076019 
1403	 0.122881013733578 
1404	 0.117457066326974 
1405	 0.112366954033702 
1406	 0.10841103956401 
1407	 0.105042034017382 
1408	 0.101819143231798 
1409	 9.81723114639477E-02 
1410	 9.53769533434238E-02 
1411	 9.30097837907681E-02 
1412	 9.10336060452085E-02 
1413	 8.84865775674644E-02 
1414	 8.62851383006197E-02 
1415	 8.41000113125647E-02 
1416	 8.10741821765483E-02 
1417	 7.96571339258721E-02 
1418	 7.92645147944524E-02 
1419	 7.80897434962347E-02 
1420	 0.077151165046127 
1421	 7.60614172331462E-02 
1422	 7.44769443124187E-02 
1423	 0.073479925657682 
1424	 7.27691515874537E-02 
1425	 7.20287666966534E-02 
1426	 7.14155717726571E-02 
1427	 7.07117803231272E-02 
1428	 6.98873079137775E-02 
1429	 6.92494892393553E-02 
1430	 6.85601257034883E-02 
1431	 6.80621111230687E-02 
1432	 6.78578461197095E-02 
1433	 6.74447730929801E-02 
1434	 6.70933275234641E-02 
1435	 6.65976369753606E-02 
1436	 6.57225996020627E-02 
1437	 6.52430995179445E-02 
1438	 6.49000772736995E-02 
1439	 6.46154184197848E-02 
1440	 6.47869712961665E-02 
1441	 6.45962061579575E-02 
1442	 6.42022487931777E-02 
1443	 6.37711161856259E-02 
1444	 6.35639017022067E-02 
1445	 6.32103731468142E-02 
1446	 6.29429536842206E-02 
1447	 6.30019916430123E-02 
1448	 6.26783261459108E-02 
1449	 6.21329843350964E-02 
1450	 6.18321424501997E-02 
1451	 6.14856596834922E-02 
1452	 6.12912193065095E-02 
1453	 6.12836681308849E-02 
1454	 6.11389162800452E-02 
1455	 6.09691191518945E-02 
1456	 6.08357122419449E-02 
1457	 6.05996381533673E-02 
1458	 0.060548834471401 
1459	 0.06055806715148 
1460	 6.06868321094286E-02 
1461	 0.061058326193568 
1462	 6.12143686463028E-02 
1463	 6.12451926208589E-02 
1464	 6.15446152913476E-02 
1465	 6.17772710905076E-02 
1466	 6.22868097303082E-02 
1467	 6.33712424560425E-02 
1468	 6.40492072047888E-02 
1469	 6.46643329919696E-02 
1470	 6.51659837421095E-02 
1471	 6.52945977351414E-02 
1472	 0.065676402620219 
1473	 6.60615969357427E-02 
1474	 6.64979452566834E-02 
1475	 6.71207232347519E-02 
1476	 6.75878666338702E-02 
1477	 6.79557598716552E-02 
1478	 6.83503087836499E-02 
1479	 6.86091575216799E-02 
1480	 6.90065343899594E-02 
1481	 6.94982035564501E-02 
1482	 6.99807270787659E-02 
1483	 7.05300840755751E-02 
1484	 7.10475169219449E-02 
1485	 7.14762056870671E-02 
1486	 7.19946265415232E-02 
1487	 7.25713286039544E-02 
1488	 7.31268631684939E-02 
1489	 0.073690136530459 
1490	 7.42300290333191E-02 
1491	 7.45483279445177E-02 
1492	 7.49040714345125E-02 
1493	 7.53909396102622E-02 
1494	 7.58546983036693E-02 
1495	 7.63687710916849E-02 
1496	 7.70256158471844E-02 
1497	 7.75726606981188E-02 
1498	 7.80213408167885E-02 
1499	 0.078655007844276 
1500	 0.079371543163091 
1501	 8.00850523196746E-02 
1502	 8.09297992484234E-02 
1503	 8.16438650109277E-02 
1504	 8.22772107936118E-02 
1505	 0.083011269532867 
1506	 0.08375993727835 
1507	 8.44584335239752E-02 
1508	 8.52034737971511E-02 
1509	 8.58935094142142E-02 
1510	 8.64634350900868E-02 
1511	 8.71829094336581E-02 
1512	 0.087975037926087 
1513	 8.87499754361914E-02 
1514	 8.96206780086866E-02 
1515	 9.03741704233993E-02 
1516	 9.10643393333643E-02 
1517	 9.17973782162372E-02 
1518	 9.24817990728668E-02 
1519	 9.32309296305744E-02 
1520	 9.40421661628158E-02 
1521	 9.48378359471879E-02 
1522	 9.56800765755695E-02 
1523	 9.64492604293917E-02 
1524	 9.71906240352381E-02 
1525	 9.79363450692156E-02 
1526	 9.85937837104938E-02 
1527	 9.93649465443256E-02 
1528	 0.100239318761712 
1529	 0.101032674204169 
1530	 0.101836537008836 
1531	 0.102642439220741 
1532	 0.103421969385872 
1533	 0.104193885108917 
1534	 0.104970830799597 
1535	 0.105758277480337 
1536	 0.106515702371617 
1537	 0.107289739423373 
1538	 0.108116874062742 
1539	 0.10891337729029 
1540	 0.109651564383362 
1541	 0.110454043623153 
1542	 0.111331705351626 
1543	 0.112130887507968 
1544	 0.112917567590864 
1545	 0.113707468004832 
1546	 0.114398671916718 
1547	 0.115175670605693 
1548	 0.116088563083905 
1549	 0.116894582398678 
1550	 0.117651802308086 
1551	 0.118439313871117 
1552	 0.119156796711938 
1553	 0.11992046426379 
1554	 0.120800830682597 
1555	 0.121592947090023 
1556	 0.122278788668382 
1557	 0.12305815062541 
1558	 0.123900637955405 
1559	 0.124668318991701 
1560	 0.125503104753957 
1561	 0.126257418527109 
1562	 0.12680172112869 
1563	 0.127478148310035 
1564	 0.128236164906717 
1565	 0.12898728876008 
1566	 0.129725139205288 
1567	 0.130478561165142 
1568	 0.131171910756935 
1569	 0.131740150868855 
1570	 0.132498613691056 
1571	 0.133347145021276 
1572	 0.134119891688399 
1573	 0.134950426958428 
1574	 0.135692076928375 
1575	 0.136314449911426 
1576	 0.137086980175713 
1577	 0.137938799477506 
1578	 0.138627950834357 
1579	 0.139313113639442 
1580	 0.139931695964947 
1581	 0.140397548350869 
1582	 0.140965388367592 
1583	 0.141557641584558 
1584	 0.142181262081132 
1585	 0.142812568448233 
1586	 0.143452690467131 
1587	 0.144160484954343 
1588	 0.144788436118742 
1589	 0.14536469830925 
1590	 0.145988926211321 
1591	 0.146621094721896 
1592	 0.147234828795968 
1593	 0.147850537271623 
1594	 0.148489360265286 
1595	 0.149145652395588 
1596	 0.149732437758256 
1597	 0.150347354885723 
1598	 0.150865732271488 
1599	 0.151249511688329 
1600	 0.151756113478524 
1601	 0.152253218842825 
1602	 0.152836304594544 
1603	 0.153498226102951 
1604	 0.154155274981079 
1605	 0.154913833217289 
1606	 0.155484325863562 
1607	 0.155992559134984 
1608	 0.156466220238363 
1609	 0.156779985369013 
1610	 0.157240473111704 
1611	 0.157777140168128 
1612	 0.158220024014351 
1613	 0.158655018349142 
1614	 0.159084621407739 
1615	 0.159449968144515 
1616	 0.159882277586565 
1617	 0.16033947377667 
1618	 0.160827236218666 
1619	 0.161392588724363 
1620	 0.161794713651139 
1621	 0.162143408611097 
1622	 0.162546107373091 
1623	 0.162857816116532 
1624	 0.163232445452396 
1625	 0.163692704735356 
1626	 0.16414016896369 
1627	 0.164574475521447 
1628	 0.164958820970952 
1629	 0.16538797868015 
1630	 0.165752545323965 
1631	 0.165983594615206 
1632	 0.166363743636693 
1633	 0.166862996113366 
1634	 0.167206131770069 
1635	 0.167519621597853 
1636	 0.167844898872082 
1637	 0.168056384658644 
1638	 0.168407622685945 
1639	 0.168891461675145 
1640	 0.16921403712772 
1641	 0.169497961258089 
1642	 0.169788873581175 
1643	 0.170017289437633 
1644	 0.170256438038597 
1645	 0.170534510031768 
1646	 0.170724582962916 
1647	 0.170798781050273 
1648	 0.171015510764344 
1649	 0.171232665011999 
1650	 0.171549370230165 
1651	 0.172006667000724 
1652	 0.172330302037852 
1653	 0.172701284934673 
1654	 0.172906694859936 
1655	 0.17296942019138 
1656	 0.173124568251478 
1657	 0.173235317398382 
1658	 0.173350679398926 
1659	 0.173466367684032 
1660	 0.173444813913706 
1661	 0.173516268440595 
1662	 0.173778781254834 
1663	 0.174003477095602 
1664	 0.17416522940818 
1665	 0.174265485783503 
1666	 0.174183402271029 
1667	 0.174134406117944 
1668	 0.174334629878236 
1669	 0.174544682027998 
1670	 0.174691060034904 
1671	 0.174791696716142 
1672	 0.17478984631045 
1673	 0.174698573919808 
1674	 0.174657993912149 
1675	 0.174738935399174 
1676	 0.174650189998924 
1677	 0.174505973455489 
1678	 0.174457928717147 
1679	 0.174365246316385 
1680	 0.174310058423183 
1681	 0.174329454360115 
1682	 0.174201888933722 
1683	 0.174029231911885 
1684	 0.174034026587884 
1685	 0.173936038326289 
1686	 0.173805650984022 
1687	 0.173677936616633 
1688	 0.173381579665707 
1689	 0.173174332506573 
1690	 0.172977431552309 
1691	 0.172791994048141 
1692	 0.17256597633968 
1693	 0.172386678028858 
1694	 0.172348453593387 
1695	 0.172172138311168 
1696	 0.171842312132492 
1697	 0.171647897239419 
1698	 0.171532720699473 
1699	 0.171330801017898 
1700	 0.171223625807719 
1701	 0.17101330899148 
1702	 0.170550934449525 
1703	 0.170222604742406 
1704	 0.169957215191072 
1705	 0.169714999491157 
1706	 0.169585662171613 
1707	 0.169332370867062 
1708	 0.169037229834878 
1709	 0.168684631823257 
1710	 0.168176083628829 
1711	 0.167797708183427 
1712	 0.167487317110504 
1713	 0.167173320055987 
1714	 0.166934048238738 
1715	 0.166666175051002 
1716	 0.166394104742435 
1717	 0.16604126146799 
1718	 0.165627459831815 
1719	 0.165237457439545 
1720	 0.164782560577825 
1721	 0.164325652466903 
1722	 0.163895710772243 
1723	 0.163504126628965 
1724	 0.163148781865252 
1725	 0.162694196951514 
1726	 0.162220363113527 
1727	 0.161735339023164 
1728	 0.161079330035922 
1729	 0.160592079264728 
1730	 0.160243846245019 
1731	 0.15971140028398 
1732	 0.159479956370255 
1733	 0.159052795472015 
1734	 0.158588417148371 
1735	 0.158343576816714 
1736	 0.157847532169945 
1737	 0.157197003254387 
1738	 0.156674959654962 
1739	 0.156097108229725 
1740	 0.155272489012015 
1741	 0.15461154415937 
1742	 0.154113464597819 
1743	 0.153520019777202 
1744	 0.1530179843086 
1745	 0.152543579311679 
1746	 0.151853735326649 
1747	 0.151022390357002 
1748	 0.150269549819901 
1749	 0.149636384020592 
1750	 0.149014857922341 
1751	 0.148375570739706 
1752	 0.147751388978236 
1753	 0.147152171921783 
1754	 0.146533969560021 
1755	 0.145797576604136 
1756	 0.145112176450564 
1757	 0.144468703142361 
1758	 0.143759594573749 
1759	 0.143150852574256 
1760	 0.142612906695681 
1761	 0.141919928483631 
1762	 0.141440425634592 
1763	 0.141194405087832 
1764	 0.140802229356842 
1765	 0.140531437635453 
1766	 0.14006492045378 
1767	 0.139477631423456 
1768	 0.139018058557802 
1769	 0.138371835540263 
1770	 0.138044115802405 
1771	 0.137866650737067 
1772	 0.137753277594077 
1773	 0.137929302071492 
1774	 0.13776790089139 
1775	 0.13764745194359 
1776	 0.137174862714281 
1777	 0.136714343717965 
1778	 0.136487820157486 
1779	 0.1364107309754 
1780	 0.136353748978861 
1781	 0.13635042817367 
1782	 0.136395485050222 
1783	 0.136174018825228 
1784	 0.136380622758468 
1785	 0.136762388219617 
1786	 0.136571006217801 
1787	 0.13655789884917 
1788	 0.136448951477146 
1789	 0.136136889792962 
1790	 0.136409417197476 
1791	 0.136988559532572 
1792	 0.137439360896977 
1793	 0.137411036961742 
1794	 0.137484262464608 
1795	 0.138281137680007 
1796	 0.13910410928962 
1797	 0.140177056551774 
1798	 0.141278307865354 
1799	 0.141468862004479 
1800	 0.141947478160239 
1801	 0.145082275307748 
1802	 0.14569753418539 
1803	 0.146488696484599 
1804	 0.146424093616298 
1805	 0.147138941488868 
1806	 0.148489120258518 
1807	 0.149890205472498 
1808	 0.151760612907858 
1809	 0.153695408381545 
1810	 0.155298135732282 
1811	 0.15675795184489 
1812	 0.158156194516462 
1813	 0.158732060356891 
1814	 0.160331623098675 
1815	 0.163828007036749 
1816	 0.16506416119146 
1817	 0.164026778707063 
1818	 0.164734741317865 
1819	 0.16541006489314 
1820	 0.164446996127901 
1821	 0.163786008095773 
1822	 0.165257467036452 
1823	 0.165206872646374 
1824	 0.158979414475768 
1825	 0.159286269372317 
1826	 0.168598364010405 
1827	 0.173628635252999 
1828	 0.179429021970056 
1829	 0.194341480664461 
1830	 0.196819665892697 
1831	 0.172354081015428 
1832	 0.172891402213913 
1833	 0.181933870173381 
1834	 0.194549324976247 
1835	 0.274416900811361 
1836	 0.317423068820608 
1837	 0.271677089591026 
1838	 0.266233441204602 
1839	 0.260220316154232 
1840	 0.234919796340614 
1841	 0.226911756565846 
1842	 0.254672074161122 
1843	 0.250155440939884 
1844	 0.216875942289435 
1845	 0.210101013640671 
1846	 0.204008061467768 
1847	 0.2064638710277 
1848	 0.217103096356449 
1849	 0.251823683817251 
1850	 0.260771895640919 
1851	 0.266715284813579 
1852	 0.266258513498459 
1853	 0.267412111534747 
1854	 0.239234382163395 
1855	 0.167625163646012 
1856	 0.144737542578077 
1857	 0.149149213561083 
1858	 0.12417390594928 
1859	 0.119416401624603 
1860	 0.137300171375553 
1861	 0.146604090629973 
1862	 0.149211978268304 
1863	 0.152534495851875 
1864	 0.168244530652283 
1865	 0.176559340783161 
1866	 0.180228251057911 
1867	 0.174642261530079 
1868	 0.163988803077951 
1869	 0.186662965554837 
1870	 0.189397372213208 
1871	 0.187668453676129 
1872	 0.18004554033169 
1873	 0.177436804256068 
1874	 0.159413727004919 
1875	 0.132774275121469 
1876	 0.118681943309019 
1877	 0.114638231177094 
1878	 9.54228737025249E-02 
1879	 9.05683650898571E-02 
1880	 7.89431689787722E-02 
1881	 7.35636281135662E-02 
1882	 6.92201560552561E-02 
1883	 6.75137015550447E-02 
1884	 6.97574994382776E-02 
1885	 6.72461150928663E-02 
1886	 6.42876191818645E-02 
1887	 5.91796448073208E-02 
1888	 5.58499789851462E-02 
1889	 4.90915220091121E-02 
1890	 4.17761805410702E-02 
1891	 0.030748286201436 
1892	 2.81169322815813E-02 
1893	 2.40065564063762E-02 
1894	 2.74417956145126E-02 
1895	 5.31140091413226E-02 
1896	 6.03724047133472E-02 
1897	 5.71909603938038E-02 
1898	 5.78569190419612E-02 
1899	 0.053822467839771 
1900	 4.70812143282202E-02 
1901	 5.13435837008193E-02 
1902	 8.20024266489819E-02 
1903	 9.12186386147272E-02 
1904	 9.42898080857391E-02 
1905	 8.91016047444041E-02 
1906	 7.34587902069323E-02 
1907	 0.048475405088666 
1908	 1.12523420239612E-02 
1909	 1.30366801888149E-02 
1910	 2.28692704680347E-02 
1911	 2.44814489842336E-02 
1912	 2.27126736167135E-02 
1913	 2.49468273497078E-02 
1914	 2.49674949911622E-02 
1915	 1.72854081710686E-02 
1916	 1.54803927141967E-02 
1917	 1.91394915509809E-02 
1918	 1.83707528185177E-02 
1919	 1.40191095129255E-02 
1920	 2.20719786667217E-02 
1921	 2.48357495246737E-02 
1922	 2.44634573903948E-02 
1923	 2.34627042391019E-02 
1924	 1.92133852936431E-02 
1925	 1.72921089451448E-02 
1926	 1.46254864275591E-02 
1927	 0.013799985529589 
1928	 1.39575309835383E-02 
1929	 1.60803815875669E-02 
1930	 1.70094065815604E-02 
1931	 0.018665216918904 
1932	 1.96150114955942E-02 
1933	 1.97184208944086E-02 
1934	 1.88773629014943E-02 
1935	 1.64120366395277E-02 
1936	 1.53377673972621E-02 
1937	 1.43571838016266E-02 
1938	 1.37503605383845E-02 
1939	 1.28125290169658E-02 
1940	 0.013812014254971 
1941	 1.51054951158847E-02 
1942	 1.50433907148581E-02 
1943	 1.58104434404349E-02 
1944	 1.64720613430134E-02 
1945	 1.60323079131455E-02 
1946	 1.40037244624789E-02 
1947	 1.32560319461513E-02 
1948	 1.20715962505748E-02 
1949	 1.19744912710297E-02 
1950	 1.22905956228672E-02 
1951	 1.44049177859093E-02 
1952	 1.57056530668296E-02 
1953	 0.015843520605365 
1954	 1.56934898020851E-02 
1955	 1.58658145213899E-02 
1956	 1.57773266809127E-02 
1957	 1.47196842280443E-02 
1958	 1.46142490793573E-02 
1959	 1.48243568623556E-02 
1960	 1.48146492700433E-02 
1961	 1.47187717086043E-02 
1962	 1.55606052244501E-02 
1963	 1.57701240587896E-02 
1964	 1.61428038804155E-02 
1965	 1.61956087709987E-02 
1966	 1.57526235972693E-02 
1967	 1.58975774203174E-02 
1968	 1.60386661566735E-02 
1969	 1.61789205610655E-02 
1970	 1.68283501753736E-02 
1971	 1.69984281004342E-02 
1972	 1.71608893000303E-02 
1973	 1.64282144989353E-02 
1974	 1.58278097922985E-02 
1975	 1.58861071788292E-02 
1976	 0.015995349182032 
1977	 1.66322492222875E-02 
1978	 1.76062657727548E-02 
1979	 1.80655577642312E-02 
1980	 1.84131821459568E-02 
1981	 1.85071643543334E-02 
1982	 1.85724888066957E-02 
1983	 1.83993952134567E-02 
1984	 1.85027931022717E-02 
1985	 1.85429026232084E-02 
1986	 1.87160504605518E-02 
1987	 1.90789321539455E-02 
1988	 1.94003383193555E-02 
1989	 1.97884436101956E-02 
1990	 1.99768353093746E-02 
1991	 2.03007256243275E-02 
1992	 2.06654528968367E-02 
1993	 2.07672334774265E-02 
1994	 2.13443858264933E-02 
1995	 2.16808769338051E-02 
1996	 2.19219846602655E-02 
1997	 2.20106687926403E-02 
1998	 2.23538596605956E-02 
1999	 2.20892652892932E-02 
2000	 0.022486338331695 
2001	 2.29730672082427E-02 
2002	 0.023318509525957 
2003	 2.40797753649071E-02 
2004	 2.39584759414504E-02 
2005	 2.40726642061166E-02 
2006	 2.41729401162077E-02 
2007	 2.39699001449687E-02 
2008	 2.37903698065312E-02 
2009	 2.49433521469576E-02 
2010	 2.51748381976151E-02 
2011	 2.55419039223226E-02 
2012	 2.67299399793002E-02 
2013	 2.70058960082168E-02 
2014	 2.75925207114086E-02 
2015	 2.76167360769361E-02 
2016	 2.74030097539808E-02 
2017	 2.74457828123063E-02 
2018	 0.02696145514234 
2019	 2.69677485638544E-02 
2020	 2.73381275905648E-02 
2021	 2.76191959083216E-02 
2022	 2.80104543562511E-02 
2023	 2.85916113219655E-02 
2024	 2.87650984729434E-02 
2025	 2.91320449325652E-02 
2026	 2.94951632858738E-02 
2027	 2.97467740479499E-02 
2028	 3.00754121290883E-02 
2029	 3.01509989085986E-02 
2030	 2.97027201017799E-02 
2031	 0.029568713672987 
2032	 2.95954811031124E-02 
2033	 2.97595687456117E-02 
2034	 2.97617753069554E-02 
2035	 3.03121685299929E-02 
2036	 3.08354544098764E-02 
2037	 3.12937586667937E-02 
2038	 3.20645502706069E-02 
2039	 3.24688185920907E-02 
2040	 3.25084110603833E-02 
2041	 3.25895603685948E-02 
2042	 3.27932785435098E-02 
2043	 3.31793899814687E-02 
2044	 3.36717962336342E-02 
2045	 3.40939373168326E-02 
2046	 3.44946618373973E-02 
2047	 3.48907539419557E-02 
2048	 3.53519379860755E-02 
2049	 0.035658740864696 
2050	 3.59504573539909E-02 
2051	 3.63112197867295E-02 
2052	 3.65108843132726E-02 
2053	 3.67807468450015E-02 
2054	 3.70493193530879E-02 
2055	 3.72310136983056E-02 
2056	 3.73301093657824E-02 
2057	 3.74461813935718E-02 
2058	 3.74345730462265E-02 
2059	 3.77392711875714E-02 
2060	 3.82075080515892E-02 
2061	 3.88378457010994E-02 
2062	 3.89367247538787E-02 
2063	 0.039357586025209 
2064	 3.92672283452371E-02 
2065	 3.89001311992696E-02 
2066	 3.95418537470466E-02 
2067	 3.99611061252164E-02 
2068	 4.07739751698621E-02 
2069	 4.17104782080049E-02 
2070	 0.041815293101083 
2071	 4.21860992389738E-02 
2072	 4.23130387768825E-02 
2073	 4.21490284233439E-02 
2074	 4.17300827820442E-02 
2075	 4.18650451095577E-02 
2076	 4.23546618934255E-02 
2077	 4.30314296360076E-02 
2078	 4.39715728133595E-02 
2079	 4.47299842644348E-02 
2080	 4.47993494219269E-02 
2081	 4.48025779331648E-02 
2082	 0.044613880829279 
2083	 4.42871712154294E-02 
2084	 4.44502661336193E-02 
2085	 4.46463220122914E-02 
2086	 4.50082731153281E-02 
2087	 4.54126412548852E-02 
2088	 4.61068487155066E-02 
2089	 4.64342795457031E-02 
2090	 4.67657399092957E-02 
2091	 4.68604135330129E-02 
2092	 4.70160247123223E-02 
2093	 0.047435244988425 
2094	 4.77747990104393E-02 
2095	 4.86149218133864E-02 
2096	 4.92089958678299E-02 
2097	 4.94621749966479E-02 
2098	 4.96242740618732E-02 
2099	 4.95651526915706E-02 
2100	 4.93171294792154E-02 
2101	 4.93721263077986E-02 
2102	 4.97665056358814E-02 
2103	 5.05104832302638E-02 
2104	 5.10281721737217E-02 
2105	 5.20939504931578E-02 
2106	 5.29462493227902E-02 
2107	 5.31059058545893E-02 
2108	 5.31781997200439E-02 
2109	 5.27995930903206E-02 
2110	 5.25091848374653E-02 
2111	 5.26933965637837E-02 
2112	 5.31630518716707E-02 
2113	 5.39380994645116E-02 
2114	 5.44687891873391E-02 
2115	 5.45349659674285E-02 
2116	 5.46975717349101E-02 
2117	 5.50387281916631E-02 
2118	 0.055282359396945 
2119	 5.58401212202997E-02 
2120	 5.68662026684847E-02 
2121	 5.75780141445076E-02 
2122	 5.78893530739147E-02 
2123	 5.81869192117051E-02 
2124	 5.81591322362391E-02 
2125	 5.81164902518935E-02 
2126	 5.83385064183605E-02 
2127	 0.058634573804656 
2128	 5.88718967873448E-02 
2129	 5.87477390863968E-02 
2130	 5.85251916496831E-02 
2131	 5.84936962155001E-02 
2132	 5.86420965152282E-02 
2133	 5.92343940057633E-02 
2134	 5.98144903094816E-02 
2135	 6.07938063980491E-02 
2136	 6.13139012073443E-02 
2137	 6.17103240585672E-02 
2138	 6.20737531538002E-02 
2139	 6.21882549032887E-02 
2140	 6.27113602946358E-02 
2141	 6.32829437720222E-02 
2142	 6.31982188208075E-02 
2143	 6.31518510942368E-02 
2144	 6.31470984934373E-02 
2145	 6.27384027895815E-02 
2146	 6.27186232229018E-02 
2147	 6.33317239350641E-02 
2148	 6.35437610071822E-02 
2149	 6.38624368863369E-02 
2150	 6.45276707959854E-02 
2151	 6.47556619304154E-02 
2152	 6.44233523884409E-02 
2153	 6.46266803561987E-02 
2154	 6.48835710553288E-02 
2155	 6.51526742291076E-02 
2156	 6.57911030808674E-02 
2157	 6.61540017253225E-02 
2158	 6.64115942185132E-02 
2159	 6.64202681097783E-02 
2160	 6.61693711147684E-02 
2161	 6.61749222427477E-02 
2162	 6.64440847391024E-02 
2163	 0.066996259460247 
2164	 6.73680339268397E-02 
2165	 6.78210477839725E-02 
2166	 6.82295549968616E-02 
2167	 6.76913389012267E-02 
2168	 6.75673217253015E-02 
2169	 6.77612691760609E-02 
2170	 0.067704771893626 
2171	 6.74552309621123E-02 
2172	 0.067467483771975 
2173	 6.72615728284258E-02 
2174	 6.71246747797601E-02 
2175	 6.73053115858486E-02 
2176	 6.77759644517052E-02 
2177	 6.86711821703814E-02 
2178	 6.95838899360495E-02 
2179	 0.069808013174388 
2180	 6.95979618626643E-02 
2181	 6.95858593221241E-02 
2182	 6.91169572646058E-02 
2183	 6.89872789110502E-02 
2184	 6.92819651521233E-02 
2185	 6.90727426107165E-02 
2186	 0.0694528667899 
2187	 0.069758279667457 
2188	 7.01685483068793E-02 
2189	 7.04235053845006E-02 
2190	 7.09716707006566E-02 
2191	 7.05610825482937E-02 
2192	 7.01848225214556E-02 
2193	 6.99880243095686E-02 
2194	 6.98114787339128E-02 
2195	 6.98323151386704E-02 
2196	 7.00308113012921E-02 
2197	 7.02429258002553E-02 
2198	 7.00440829465993E-02 
2199	 7.04167881155323E-02 
2200	 7.06618607600925E-02 
2201	 0.070991237277098 
2202	 7.20206316087881E-02 
2203	 7.23699526350436E-02 
2204	 7.24305053463628E-02 
2205	 7.22520005301058E-02 
2206	 0.071745754788204 
2207	 7.12776360360359E-02 
2208	 7.08575504263539E-02 
2209	 7.04245650534079E-02 
2210	 7.02034534491204E-02 
2211	 6.99807815349795E-02 
2212	 7.01006182841046E-02 
2213	 7.02494004108363E-02 
2214	 7.05828143482341E-02 
2215	 7.08525733458778E-02 
2216	 7.05284876094774E-02 
2217	 7.03017760858438E-02 
2218	 0.070389894758635 
2219	 0.070129758204111 
2220	 7.00227814062398E-02 
2221	 7.03405636710003E-02 
2222	 7.04937510572318E-02 
2223	 7.08958173659303E-02 
2224	 7.11139709322635E-02 
2225	 0.071393892916266 
2226	 7.14177286276357E-02 
2227	 7.06497953382308E-02 
2228	 7.05343407038105E-02 
2229	 7.02577191569496E-02 
2230	 6.97155753968227E-02 
2231	 6.95118862353157E-02 
2232	 6.97129222891477E-02 
2233	 6.96712552206964E-02 
2234	 6.96008239546909E-02 
2235	 6.96499095650853E-02 
2236	 7.00121624490396E-02 
2237	 6.95841041437063E-02 
2238	 6.88734671013103E-02 
2239	 6.88922744849442E-02 
2240	 6.82360176169305E-02 
2241	 6.82452883608899E-02 
2242	 6.85609641926567E-02 
2243	 6.79487995192509E-02 
2244	 0.06800203090405 
2245	 0.067950206102677 
2246	 6.82601592732315E-02 
2247	 6.89598989871925E-02 
2248	 6.89296503016746E-02 
2249	 6.89325244952319E-02 
2250	 6.83225369817513E-02 
2251	 0.067609692485909 
2252	 6.69855292330588E-02 
2253	 6.60439029504772E-02 
2254	 6.57875184352684E-02 
2255	 6.55315079238727E-02 
2256	 6.54060958842521E-02 
2257	 6.55333558455394E-02 
2258	 6.59898765161648E-02 
2259	 6.53383086532564E-02 
2260	 0.064810335310637 
2261	 6.44911817725998E-02 
2262	 6.38206564068301E-02 
2263	 6.42662533991113E-02 
2264	 6.40092844691339E-02 
2265	 6.30054907602922E-02 
2266	 6.21019685783114E-02 
2267	 6.07008337392238E-02 
2268	 6.04053589810574E-02 
2269	 6.06812808738872E-02 
2270	 6.11509346553393E-02 
2271	 6.17608186907557E-02 
2272	 6.19442896872433E-02 
2273	 6.19555720604271E-02 
2274	 6.14691522278174E-02 
2275	 6.12048408283649E-02 
2276	 6.13149906817327E-02 
2277	 0.06185180884042 
2278	 6.24150922730982E-02 
2279	 6.21821058023449E-02 
2280	 0.061604082464732 
2281	 6.04090108299757E-02 
2282	 5.98711539439098E-02 
2283	 6.01582671283182E-02 
2284	 0.060600245536714 
2285	 6.12155220203197E-02 
2286	 6.10722513477142E-02 
2287	 6.02801206887186E-02 
2288	 5.94033080042596E-02 
2289	 5.82814071266105E-02 
2290	 5.76545257243796E-02 
2291	 5.80810839638781E-02 
2292	 5.80270094152867E-02 
2293	 5.79326206454639E-02 
2294	 5.71481907119767E-02 
2295	 5.60909533160966E-02 
2296	 5.51866873036122E-02 
2297	 5.44199697390432E-02 
2298	 5.44585905798679E-02 
2299	 5.50479455289011E-02 
2300	 5.53862738763626E-02 
2301	 5.54964862494025E-02 
2302	 0.05624155013188 
2303	 5.55037129883014E-02 
2304	 0.053857889617857 
2305	 5.35728073777434E-02 
2306	 5.30585090428709E-02 
2307	 5.26948030090187E-02 
2308	 0.053374793870872 
2309	 5.34125278418551E-02 
2310	 5.27403610075617E-02 
2311	 5.24565412969691E-02 
2312	 5.16390860512016E-02 
2313	 5.14611967383098E-02 
2314	 5.22764853159525E-02 
2315	 5.18807897572565E-02 
2316	 5.24125416728448E-02 
2317	 5.24775335161719E-02 
2318	 5.08643516008269E-02 
2319	 5.04023691370221E-02 
2320	 4.98209354522332E-02 
2321	 4.95043987743856E-02 
2322	 4.96297154365255E-02 
2323	 4.95167385134221E-02 
2324	 4.94019923240355E-02 
2325	 5.00338969636649E-02 
2326	 4.85039613224637E-02 
2327	 4.79883532646367E-02 
2328	 4.78498231710527E-02 
2329	 4.51598074871034E-02 
2330	 4.45116866785293E-02 
2331	 4.43327038343226E-02 
2332	 4.35823505479556E-02 
2333	 0.04427437549257 
2334	 4.40071791340823E-02 
2335	 4.36521461604643E-02 
2336	 4.39677478987395E-02 
2337	 0.044210427159884 
2338	 4.56329623769998E-02 
2339	 4.65316222799686E-02 
2340	 4.58269870032581E-02 
2341	 4.52529111075828E-02 
2342	 4.46405020252638E-02 
2343	 4.35695148020956E-02 
2344	 4.32497849757659E-02 
2345	 0.043014322962661 
2346	 0.042897506165894 
2347	 4.47378159637979E-02 
2348	 4.53650592608345E-02 
2349	 4.52526632062351E-02 
2350	 4.57768254280607E-02 
2351	 4.26452527590566E-02 
2352	 4.05682499608693E-02 
2353	 4.08805782056813E-02 
2354	 3.95304296799036E-02 
2355	 4.00607195856884E-02 
2356	 4.08694302131043E-02 
2357	 4.04204936474881E-02 
2358	 4.09990875070303E-02 
2359	 4.07932951480822E-02 
2360	 3.99303482005291E-02 
2361	 4.03555032465306E-02 
2362	 3.98327278670705E-02 
2363	 0.038545681633256 
2364	 3.80080799608929E-02 
2365	 3.61410189661025E-02 
2366	 3.57559946738532E-02 
2367	 3.64583729390375E-02 
2368	 3.63114149381874E-02 
2369	 3.71541009350837E-02 
2370	 0.036111399232572 
2371	 3.56105744009666E-02 
2372	 0.035934003999376 
2373	 0.037759083732019 
2374	 3.71903439591355E-02 
2375	 3.60579513594286E-02 
2376	 3.53006255849375E-02 
2377	 3.30071374810443E-02 
2378	 3.33304432549941E-02 
2379	 3.55895819246485E-02 
2380	 0.036014395304843 
2381	 3.60850739270915E-02 
2382	 0.036895267694924 
2383	 3.85971077477212E-02 
2384	 3.91512507310005E-02 
2385	 4.01717686429378E-02 
2386	 3.94113806000068E-02 
2387	 3.52818232817566E-02 
2388	 0.033614459305322 
2389	 3.28485339306799E-02 
2390	 3.22584658022841E-02 
2391	 3.37433732684528E-02 
2392	 3.27126558864498E-02 
2393	 2.87552060040348E-02 
2394	 2.83734955424798E-02 
2395	 2.80984967531044E-02 
2396	 2.86236313985072E-02 
2397	 3.37473155360155E-02 
2398	 3.51469492982971E-02 
2399	 3.42304386056076E-02 
2400	 0.03395590592304 
2401	 3.31567169825657E-02 
2402	 3.15659809567453E-02 
2403	 2.79686804067596E-02 
2404	 2.70761412202583E-02 
2405	 2.69098231730907E-02 
2406	 0.02473266790463 
2407	 2.64994242698157E-02 
2408	 2.72745219551731E-02 
2409	 0.024940003601949 
2410	 2.50332279711487E-02 
2411	 2.17242671851201E-02 
2412	 1.98893477581296E-02 
2413	 2.29344345031834E-02 
2414	 2.08771211167191E-02 
2415	 1.91579255755631E-02 
2416	 2.31533245865218E-02 
2417	 2.82507885337382E-02 
2418	 3.22775865931029E-02 
2419	 3.64975551058402E-02 
2420	 3.57952786526541E-02 
2421	 2.89806973286937E-02 
2422	 2.48357362059909E-02 
2423	 0.025150029640424 
2424	 2.50091641926167E-02 
2425	 2.30643174010289E-02 
2426	 2.19641018572953E-02 
2427	 2.17800461624022E-02 
2428	 2.27635202991931E-02 
2429	 2.64591392028972E-02 
2430	 3.06098126015074E-02 
2431	 3.33747457637968E-02 
2432	 3.53550278532181E-02 
2433	 2.90741986014955E-02 
2434	 0.02569903825917 
2435	 1.99672317428495E-02 
2436	 1.67622324730459E-02 
2437	 1.68901349564669E-02 
2438	 1.84620856226948E-02 
2439	 2.23213096857379E-02 
2440	 2.19143464886001E-02 
2441	 2.06137242277476E-02 
2442	 2.20759832807418E-02 
2443	 2.21805299784239E-02 
2444	 2.23961022163613E-02 
2445	 2.71137981084062E-02 
2446	 2.90419907999411E-02 
2447	 2.40345947064734E-02 
2448	 2.47912937995425E-02 
2449	 3.31581491421385E-02 
2450	 3.42337724061264E-02 
2451	 3.41665843663375E-02 
2452	 3.17061648185365E-02 
2453	 1.89115134683227E-02 
2454	 1.62593188752286E-02 
2455	 1.90171669940824E-02 
2456	 2.15984504445783E-02 
2457	 2.97808880794532E-02 
2458	 3.20987974511861E-02 
2459	 3.25217362351378E-02 
2460	 0.032979768695544 
2461	 2.99051526326562E-02 
2462	 3.11719407963091E-02 
2463	 3.56264253779114E-02 
2464	 3.55334653098633E-02 
2465	 3.77050606123282E-02 
2466	 3.57063663772126E-02 
2467	 2.40427690270732E-02 
2468	 1.59477485939239E-02 
2469	 3.92234792471605E-03 
2470	 1.61743539380688E-03 
2471	 1.12208683587202E-02 
2472	 1.53696873616599E-02 
2473	 3.03918842052124E-02 
2474	 2.76448392169095E-02 
2475	-7.92564323113669E-04 
2476	-8.14558800273454E-03 
2477	-1.92295147470581E-02 
2478	-1.20985572412252E-02 
2479	 3.49031441996164E-02 
2480	 4.78955288987793E-02 
2481	 4.68583046178097E-02 
2482	 5.68845898723948E-02 
2483	 4.54020484108393E-02 
2484	 6.39539462616817E-02 
2485	 0.142226782621629 
2486	 0.175794430376763 
2487	 0.1433494080105 
2488	 0.102515466316458 
2489	 5.08683009181388E-02 
2490	 1.17449960700759E-02 
2491	-5.40060808676814E-03 
2492	 6.33322740955752E-03 
2493	 9.03710692967228E-03 
2494	-1.18940947587188E-02 
2495	 1.83266489978347E-02 
2496	 5.00957023481634E-02 
2497	 7.51714618189805E-02 
2498	 0.146860685748156 
2499	 0.183948318689685 
2500	 0.154495707087655 
