Wavelength	ref00008.asd
350	 2.65577128348946E-02 
351	 2.65579292159824E-02 
352	 2.66442413786459E-02 
353	 2.68255816526724E-02 
354	 2.64007759549315E-02 
355	 2.58677800835295E-02 
356	 0.025770503996022 
357	 2.63498296369325E-02 
358	 2.64594665096962E-02 
359	 2.63173508220849E-02 
360	 2.63946871942047E-02 
361	 2.61819211062824E-02 
362	 2.58702964403443E-02 
363	 2.57335507191908E-02 
364	 2.59809542592966E-02 
365	 2.59293394430922E-02 
366	 2.55732639607488E-02 
367	 2.52459631503375E-02 
368	 2.56054847004637E-02 
369	 2.57551495404171E-02 
370	 2.56691632558404E-02 
371	 2.55277635814282E-02 
372	 2.54111719178655E-02 
373	 2.53558725540616E-02 
374	 2.52650079816219E-02 
375	 2.50390889522135E-02 
376	 2.50798523378283E-02 
377	 2.52667945882913E-02 
378	 2.54449131697532E-02 
379	 2.54863377594867E-02 
380	 2.52109361893094E-02 
381	 2.51271900651715E-02 
382	 2.54609182794295E-02 
383	 2.52478922630269E-02 
384	 2.53916067952519E-02 
385	 2.56564585594629E-02 
386	 2.54638743347512E-02 
387	 2.55366726771127E-02 
388	 2.57582114125604E-02 
389	 2.59306364430646E-02 
390	 0.025863722683312 
391	 2.58692315616157E-02 
392	 2.58116936964621E-02 
393	 2.56665257680914E-02 
394	 2.58423213303101E-02 
395	 2.61825194980677E-02 
396	 2.63236246972424E-02 
397	 2.60603152664161E-02 
398	 2.63593763419553E-02 
399	 0.026303700210148 
400	 2.60056264436216E-02 
401	 2.64027654910023E-02 
402	 2.66342597123432E-02 
403	 2.66414942474287E-02 
404	 0.026566587816115 
405	 2.66939453979058E-02 
406	 2.68674590891661E-02 
407	 2.69298167277425E-02 
408	 2.68179670524862E-02 
409	 2.69311729998902E-02 
410	 2.72284247327765E-02 
411	 2.75372373942535E-02 
412	 2.76234386890089E-02 
413	 0.02776294188877 
414	 2.78625298190767E-02 
415	 2.79081200419128E-02 
416	 2.81949100579069E-02 
417	 2.82864199831433E-02 
418	 2.83025824949171E-02 
419	 2.84776255611959E-02 
420	 2.85595490676437E-02 
421	 2.87100374559738E-02 
422	 2.88667901333916E-02 
423	 0.028795263072952 
424	 2.90044990257769E-02 
425	 2.92332755420775E-02 
426	 2.92741070307044E-02 
427	 2.93070402091854E-02 
428	 2.94744820881463E-02 
429	 2.96327966992337E-02 
430	 2.96225275468995E-02 
431	 2.98015703460001E-02 
432	 2.99759355168414E-02 
433	 3.00637945094018E-02 
434	 3.01083404690503E-02 
435	 3.00810301430777E-02 
436	 3.01019626134147E-02 
437	 3.02097632715475E-02 
438	 3.02300748046723E-02 
439	 3.03049925838768E-02 
440	 3.04021018865571E-02 
441	 3.04477339842571E-02 
442	 3.04939077147674E-02 
443	 3.05602444856651E-02 
444	 3.06389735879138E-02 
445	 0.030700660508131 
446	 3.07655035045829E-02 
447	 3.08629949952185E-02 
448	 3.09791614350269E-02 
449	 3.09881231019363E-02 
450	 3.09903617655604E-02 
451	 3.10577377997896E-02 
452	 3.12149938224574E-02 
453	 3.12831446499836E-02 
454	 3.13285116809136E-02 
455	 3.13808464673145E-02 
456	 3.14045339880566E-02 
457	 3.15148230220886E-02 
458	 3.15993929546397E-02 
459	 3.15853591232626E-02 
460	 3.16761761393402E-02 
461	 0.031746852910885 
462	 3.17648721141034E-02 
463	 3.17619963784644E-02 
464	 3.18462266702542E-02 
465	 3.19382578100582E-02 
466	 3.19865384574442E-02 
467	 3.20119584384281E-02 
468	 3.20344551544594E-02 
469	 0.03209353347203 
470	 3.22019701162041E-02 
471	 3.22629951817552E-02 
472	 3.23256177234291E-02 
473	 3.23865252431629E-02 
474	 3.24097125312407E-02 
475	 3.24464265611267E-02 
476	 3.24972064281705E-02 
477	 3.25549713690621E-02 
478	 3.26107249791728E-02 
479	 3.27033981162563E-02 
480	 0.032808721759937 
481	 3.28783093506094E-02 
482	 3.28617195143502E-02 
483	 3.28587194070841E-02 
484	 3.29442088791112E-02 
485	 3.31452341325562E-02 
486	 3.32045054676188E-02 
487	 3.32242958518227E-02 
488	 3.33239540696773E-02 
489	 3.34682651981259E-02 
490	 3.36020310801592E-02 
491	 3.36943394801265E-02 
492	 3.37435439389902E-02 
493	 3.38181176944277E-02 
494	 3.39403337230913E-02 
495	 3.41100350426642E-02 
496	 3.43049267695472E-02 
497	 3.44668240425981E-02 
498	 3.46352599344553E-02 
499	 3.48453574332459E-02 
500	 3.50249075721217E-02 
501	 3.52341548757006E-02 
502	 3.55187991185453E-02 
503	 3.58886572357537E-02 
504	 3.61425208209371E-02 
505	 3.63518039275913E-02 
506	 3.66292155511895E-02 
507	 0.037101815107173 
508	 3.75034521686269E-02 
509	 3.79019921684137E-02 
510	 3.84083720285782E-02 
511	 3.88107732060338E-02 
512	 3.93590492410353E-02 
513	 4.00123475711004E-02 
514	 4.04900016683214E-02 
515	 4.10344950572548E-02 
516	 4.17369909552707E-02 
517	 4.25644927945886E-02 
518	 0.043259935078245 
519	 4.40465625425093E-02 
520	 4.48817573231329E-02 
521	 4.56492024714122E-02 
522	 4.64506035095914E-02 
523	 4.72001315860116E-02 
524	 4.79144567055044E-02 
525	 4.87252509505677E-02 
526	 4.96591593833642E-02 
527	 5.05745955538546E-02 
528	 5.13621076673977E-02 
529	 5.21258207327638E-02 
530	 5.28818048668606E-02 
531	 5.35942786114005E-02 
532	 5.42208154775057E-02 
533	 5.49243937914593E-02 
534	 5.56330297162133E-02 
535	 5.62742220603739E-02 
536	 5.68258165545526E-02 
537	 5.73674728693822E-02 
538	 5.78908141123027E-02 
539	 5.83652996894108E-02 
540	 5.87939747966798E-02 
541	 5.92747148122416E-02 
542	 5.97685446482712E-02 
543	 0.060135155461394 
544	 6.06402785979003E-02 
545	 6.11039033247491E-02 
546	 6.14285043880456E-02 
547	 0.06187424015098 
548	 6.23134584526198E-02 
549	 0.062696633115265 
550	 0.063017995308252 
551	 6.33603967014559E-02 
552	 6.36524178929194E-02 
553	 6.38651465768383E-02 
554	 6.40333059715359E-02 
555	 6.41201316239176E-02 
556	 0.064173347906882 
557	 6.42301596005201E-02 
558	 6.42290380297972E-02 
559	 6.41621156537083E-02 
560	 0.064025015660505 
561	 6.38246153916401E-02 
562	 6.36399615798582E-02 
563	 6.33765269604143E-02 
564	 6.30183311576982E-02 
565	 6.27347524405386E-02 
566	 0.062354378992274 
567	 6.19225663144335E-02 
568	 6.15308991021777E-02 
569	 6.11247531494769E-02 
570	 6.06893607689003E-02 
571	 0.060265688910774 
572	 5.99337571646709E-02 
573	 5.95507321136781E-02 
574	 5.92250262604321E-02 
575	 5.89953308618098E-02 
576	 0.058608330433222 
577	 5.82265124246727E-02 
578	 5.78800885880714E-02 
579	 5.75371829888051E-02 
580	 5.71873169186458E-02 
581	 5.68890735294254E-02 
582	 5.66536990131539E-02 
583	 5.64233450076042E-02 
584	 5.62064072851997E-02 
585	 5.59970765340613E-02 
586	 5.58044357889342E-02 
587	 5.56998975546616E-02 
588	 5.55803393652238E-02 
589	 5.54711619355696E-02 
590	 5.54795258296499E-02 
591	 5.54434321605102E-02 
592	 5.53786179808113E-02 
593	 5.53025828301757E-02 
594	 5.51799471802225E-02 
595	 5.51245758430307E-02 
596	 5.51192584789588E-02 
597	 5.51072012424082E-02 
598	 5.51037519379232E-02 
599	 5.50526164294204E-02 
600	 5.49888717233673E-02 
601	 5.50296822581879E-02 
602	 5.49443515317968E-02 
603	 5.48205486418778E-02 
604	 0.054740184004794 
605	 5.45905359396117E-02 
606	 5.44044260586434E-02 
607	 5.42247486955975E-02 
608	 5.40823278181202E-02 
609	 5.38526655215418E-02 
610	 5.35831177748549E-02 
611	 5.33543840826501E-02 
612	 5.32667165209737E-02 
613	 5.30162111711841E-02 
614	 5.27116841018135E-02 
615	 0.052510148390506 
616	 5.22851235511879E-02 
617	 5.20562957277564E-02 
618	 5.18674172662303E-02 
619	 5.17639072263646E-02 
620	 5.16852720415997E-02 
621	 5.15997890444593E-02 
622	 5.15052649474401E-02 
623	 5.14462839890374E-02 
624	 5.13982014633034E-02 
625	 5.13728896883217E-02 
626	 5.13857075956104E-02 
627	 5.14034265634355E-02 
628	 5.14677373503688E-02 
629	 5.15595153100454E-02 
630	 5.16016235897343E-02 
631	 0.051661864107187 
632	 5.16916510385512E-02 
633	 5.16493475348654E-02 
634	 5.15564091107701E-02 
635	 0.051503246298763 
636	 5.14343148695825E-02 
637	 5.12542028680049E-02 
638	 5.11188450025783E-02 
639	 5.09030676279513E-02 
640	 5.05933782324116E-02 
641	 0.050351832703417 
642	 5.01281146400557E-02 
643	 4.98204276849941E-02 
644	 4.94048049136858E-02 
645	 4.91651322396889E-02 
646	 4.88801652121849E-02 
647	 4.85625625622164E-02 
648	 4.83516985620506E-02 
649	 4.81021447418314E-02 
650	 4.79205078791067E-02 
651	 4.78182557425384E-02 
652	 4.76008761837205E-02 
653	 4.74462932856247E-02 
654	 4.73355973431062E-02 
655	 4.72103383039275E-02 
656	 4.71367370153402E-02 
657	 4.69405830069864E-02 
658	 4.66381883713898E-02 
659	 4.63574704694142E-02 
660	 4.60534271864423E-02 
661	 4.57580597052784E-02 
662	 4.54882786670915E-02 
663	 4.51898855240726E-02 
664	 4.49649387529184E-02 
665	 4.47476806842639E-02 
666	 4.44568381102312E-02 
667	 4.42552671153243E-02 
668	 4.40715637126624E-02 
669	 0.043916477982469 
670	 4.38710919318585E-02 
671	 4.37892479527937E-02 
672	 4.37550777179276E-02 
673	 4.38048237461693E-02 
674	 4.37548076377631E-02 
675	 4.37787284884092E-02 
676	 4.38950826967641E-02 
677	 0.044053830849803 
678	 4.41918121200977E-02 
679	 4.43951535829409E-02 
680	 4.46463774523638E-02 
681	 4.48229877033902E-02 
682	 4.51832769255603E-02 
683	 4.56900154737613E-02 
684	 4.62814906374754E-02 
685	 4.70007851060588E-02 
686	 4.78273678523889E-02 
687	 0.0488813784467 
688	 5.02009162876993E-02 
689	 5.14924219760263E-02 
690	 5.29109240291038E-02 
691	 5.46010086992897E-02 
692	 5.65407960735374E-02 
693	 0.058899585761426 
694	 6.15980517236466E-02 
695	 6.45174707694759E-02 
696	 6.76353062745538E-02 
697	 0.071068525944509 
698	 7.47958302298202E-02 
699	 7.87100862648439E-02 
700	 8.27886546483064E-02 
701	 0.087084185040152 
702	 9.15143427154729E-02 
703	 9.58238677142224E-02 
704	 0.100099745202201 
705	 0.104372977633859 
706	 0.108720516297673 
707	 0.113269448265707 
708	 0.117674470156759 
709	 0.121984824304302 
710	 0.126380259051795 
711	 0.130744865062593 
712	 0.135213170479564 
713	 0.139766362521162 
714	 0.144198161290669 
715	 0.148670730683696 
716	 0.153145326190692 
717	 0.157698425697911 
718	 0.162417718941875 
719	 0.167181846313925 
720	 0.171863382194855 
721	 0.176388185422693 
722	 0.180468670721672 
723	 0.184597746775473 
724	 0.189037775915412 
725	 0.193246103087338 
726	 0.197305809782497 
727	 0.201202043250606 
728	 0.205019951893397 
729	 0.208752479891304 
730	 0.212417964982324 
731	 0.215902487384964 
732	 0.219107144711244 
733	 0.222125719189908 
734	 0.224937441671217 
735	 0.22766282637506 
736	 0.23045182525386 
737	 0.232941951599249 
738	 0.235252404392908 
739	 0.237525569951486 
740	 0.239661697304567 
741	 0.241665919584179 
742	 0.243521859086701 
743	 0.245222972932207 
744	 0.246898830430974 
745	 0.248436229274436 
746	 0.249789573116923 
747	 0.250984702110865 
748	 0.252173940072815 
749	 0.25331160414332 
750	 0.25434392318782 
751	 0.255253416800009 
752	 0.256169541527878 
753	 0.257015661970659 
754	 0.257710383151523 
755	 0.258370565314291 
756	 0.258987180866025 
757	 0.25952036951682 
758	 0.259955585072588 
759	 0.260509305143848 
760	 0.261900358406667 
761	 0.26413503571097 
762	 0.264591287539974 
763	 0.264748192485363 
764	 0.264870050697602 
765	 0.264894118600383 
766	 0.264851704285803 
767	 0.264880557736431 
768	 0.264993415797274 
769	 0.265174169746283 
770	 0.265450625081796 
771	 0.265777755452125 
772	 0.266103456228888 
773	 0.266382681268441 
774	 0.266684586176614 
775	 0.266966806696417 
776	 0.267221157971293 
777	 0.267527082061153 
778	 0.267847551692536 
779	 0.268132529534456 
780	 0.268373007000841 
781	 0.268729252105827 
782	 0.268993666284247 
783	 0.269246106134365 
784	 0.269658588864028 
785	 0.269876337299064 
786	 0.270076945462807 
787	 0.270327892417394 
788	 0.270537762402104 
789	 0.270907778211695 
790	 0.271233967777768 
791	 0.271432446008827 
792	 0.271835456430553 
793	 0.272179862312405 
794	 0.272439092399975 
795	 0.27267569449484 
796	 0.272972379088468 
797	 0.273299572263236 
798	 0.273620833336283 
799	 0.273900920917056 
800	 0.274146495810451 
801	 0.274322389930899 
802	 0.274524228669776 
803	 0.274970630070063 
804	 0.275232765698688 
805	 0.275528565542621 
806	 0.275947248589013 
807	 0.276042469199797 
808	 0.276301572943561 
809	 0.276658361764573 
810	 0.276910017609512 
811	 0.277064581158362 
812	 0.277275080995153 
813	 0.277591074671454 
814	 0.277962035170133 
815	 0.278155785051608 
816	 0.278405436486567 
817	 0.278799327507743 
818	 0.27919547898876 
819	 0.279239308905234 
820	 0.279354490949846 
821	 0.279777590551029 
822	 0.280220576673201 
823	 0.280576396551257 
824	 0.28077948771069 
825	 0.280873039040906 
826	 0.281129468318013 
827	 0.281399813697597 
828	 0.281694676687228 
829	 0.282030064977146 
830	 0.282128800456209 
831	 0.282404275270106 
832	 0.282850274678662 
833	 0.283154469158719 
834	 0.28352149653349 
835	 0.283755064816871 
836	 0.283869925541583 
837	 0.284159364974337 
838	 0.284451107144929 
839	 0.284771935602221 
840	 0.285078981312481 
841	 0.285112821449119 
842	 0.285476865867815 
843	 0.285851412569115 
844	 0.285918080416338 
845	 0.286322778875981 
846	 0.28665602905985 
847	 0.286858809415697 
848	 0.287062552578038 
849	 0.287473616432257 
850	 0.287814523489612 
851	 0.287954286755501 
852	 0.287991492532619 
853	 0.288688374325532 
854	 0.289234695900116 
855	 0.289315203737896 
856	 0.289383578885434 
857	 0.289427932183792 
858	 0.289729952693236 
859	 0.290223700194798 
860	 0.290267041692828 
861	 0.290514392701714 
862	 0.290782916781928 
863	 0.290871081210916 
864	 0.291043782623734 
865	 0.29149390575557 
866	 0.292080504993592 
867	 0.292504124971496 
868	 0.292437124395701 
869	 0.292542878013298 
870	 0.292841105310469 
871	 0.293071877042609 
872	 0.293359408853348 
873	 0.293695203580866 
874	 0.293965298890439 
875	 0.294042755610886 
876	 0.294225874449923 
877	 0.294424152285323 
878	 0.294640682470978 
879	 0.294977853306391 
880	 0.295138065635103 
881	 0.295298530923417 
882	 0.295541003458483 
883	 0.29572666180922 
884	 0.296005944413385 
885	 0.29628744879489 
886	 0.296454249809198 
887	 0.296435378702303 
888	 0.296705459418951 
889	 0.296997923848224 
890	 0.297060806204814 
891	 0.297193165322431 
892	 0.297325399803205 
893	 0.297462287335447 
894	 0.297581144135977 
895	 0.297456402337807 
896	 0.29777464539866 
897	 0.298347886629267 
898	 0.298689168324477 
899	 0.29901967334863 
900	 0.299299281890068 
901	 0.29931086249694 
902	 0.298956299573188 
903	 0.299076735567072 
904	 0.29932855605814 
905	 0.29962013143393 
906	 0.299988632388911 
907	 0.299957457686296 
908	 0.300034244149454 
909	 0.300298969510876 
910	 0.300405715023699 
911	 0.30027411629007 
912	 0.300240196915056 
913	 0.300571065277544 
914	 0.301321280746193 
915	 0.301909911516661 
916	 0.302135811182879 
917	 0.302089295114024 
918	 0.302078487982876 
919	 0.301810788938892 
920	 0.301695930177549 
921	 0.301883692192536 
922	 0.302078740894087 
923	 0.302443776340477 
924	 0.302558245155779 
925	 0.302322496550805 
926	 0.302259062523679 
927	 0.301937443352838 
928	 0.301653488017421 
929	 0.301670603924283 
930	 0.301879823601516 
931	 0.302977189119853 
932	 0.3035916023948 
933	 0.302935791399473 
934	 0.30297832430571 
935	 0.302528129167335 
936	 0.301976764918227 
937	 0.301666187303493 
938	 0.301059647383026 
939	 0.30118090753026 
940	 0.30125980752367 
941	 0.300976044227583 
942	 0.301578436536174 
943	 0.301759152243108 
944	 0.301819713169821 
945	 0.301931455216499 
946	 0.301121245750199 
947	 0.300831537182267 
948	 0.300810235466098 
949	 0.300603442347464 
950	 0.300375683713091 
951	 0.299997139723986 
952	 0.29945699839143 
953	 0.298994790277833 
954	 0.299234252296117 
955	 0.299372950954911 
956	 0.299058161502203 
957	 0.298568976337519 
958	 0.299061989458641 
959	 0.298541697225113 
960	 0.298197893630038 
961	 0.298712445752723 
962	 0.298499868204218 
963	 0.298987786245398 
964	 0.299097336077754 
965	 0.298335179973562 
966	 0.29802166535161 
967	 0.297587513841297 
968	 0.297790793589545 
969	 0.29839955570866 
970	 0.297493991140061 
971	 0.297788991628563 
972	 0.298406913491572 
973	 0.298440616904666 
974	 0.298112258255711 
975	 0.298918993689111 
976	 0.299807522561799 
977	 0.299830015831712 
978	 0.299049804488851 
979	 0.299196658324547 
980	 0.29913423255234 
981	 0.298994332945587 
982	 0.300346200165316 
983	 0.300098159528318 
984	 0.300068680727462 
985	 0.300298854374309 
986	 0.299198525732709 
987	 0.300479367836993 
988	 0.300952305625095 
989	 0.300470945089487 
990	 0.30132265019839 
991	 0.301542790542539 
992	 0.302461853702368 
993	 0.303271061123269 
994	 0.302365616699373 
995	 0.301769108899775 
996	 0.302591797362059 
997	 0.303332148743558 
998	 0.302455417302397 
999	 0.303831051576043 
1000	 0.304931858537592 
1001	 0.30063676970647 
1002	 0.300887759209711 
1003	 0.301181428231488 
1004	 0.301563730697032 
1005	 0.301861226927424 
1006	 0.302090747073994 
1007	 0.302406335586181 
1008	 0.302760823859522 
1009	 0.303129675371591 
1010	 0.303563744546039 
1011	 0.303973936821651 
1012	 0.304326738082062 
1013	 0.304482619801977 
1014	 0.304590867094803 
1015	 0.304915719940321 
1016	 0.305311292825587 
1017	 0.305546761099731 
1018	 0.305849667164091 
1019	 0.306173194138836 
1020	 0.306479205305627 
1021	 0.306848284366817 
1022	 0.307158972916904 
1023	 0.30743723784944 
1024	 0.307669881504794 
1025	 0.307990776072894 
1026	 0.308220668471765 
1027	 0.308489886162714 
1028	 0.308773545226488 
1029	 0.308990768310114 
1030	 0.309253269401331 
1031	 0.309545737924104 
1032	 0.30981358341631 
1033	 0.310051990250487 
1034	 0.310212466737136 
1035	 0.310431311144384 
1036	 0.310642403016454 
1037	 0.310932739315337 
1038	 0.311298213241644 
1039	 0.311610142076181 
1040	 0.311993946190453 
1041	 0.312289326084039 
1042	 0.312340491392915 
1043	 0.312470535189215 
1044	 0.312571144391333 
1045	 0.312641112303992 
1046	 0.312884079706598 
1047	 0.313136404962409 
1048	 0.313348185077489 
1049	 0.313523413072183 
1050	 0.313743516579587 
1051	 0.313960897852374 
1052	 0.314205786065005 
1053	 0.31452138320257 
1054	 0.314937050457154 
1055	 0.315208524798017 
1056	 0.315328586922876 
1057	 0.315390594429048 
1058	 0.315453877598564 
1059	 0.315560453625386 
1060	 0.315725520064087 
1061	 0.316017531456968 
1062	 0.31625139798359 
1063	 0.316340523845815 
1064	 0.316479941989373 
1065	 0.316704062255324 
1066	 0.316954862867479 
1067	 0.317166488968951 
1068	 0.317401770624231 
1069	 0.317589043419616 
1070	 0.317630114588616 
1071	 0.317691974385168 
1072	 0.317809779817595 
1073	 0.318069229183279 
1074	 0.318441255057122 
1075	 0.318588306649523 
1076	 0.318643511628805 
1077	 0.318733916538342 
1078	 0.31869458754267 
1079	 0.318729362498395 
1080	 0.318898529922787 
1081	 0.319058289459828 
1082	 0.319238077117109 
1083	 0.319437850731579 
1084	 0.319592807538885 
1085	 0.319696147519122 
1086	 0.319749321816453 
1087	 0.319824225903533 
1088	 0.320012617157693 
1089	 0.320179681319457 
1090	 0.32033937393648 
1091	 0.320459578884802 
1092	 0.320414255194735 
1093	 0.320363902432133 
1094	 0.320374818452269 
1095	 0.320332862361119 
1096	 0.320332557711083 
1097	 0.320397224505305 
1098	 0.320409864369494 
1099	 0.320359773376646 
1100	 0.320456814044184 
1101	 0.320560831565471 
1102	 0.320590312448284 
1103	 0.32069526707367 
1104	 0.32073145768099 
1105	 0.320607190410417 
1106	 0.320544481353263 
1107	 0.320468001886157 
1108	 0.320292936517937 
1109	 0.320204207724073 
1110	 0.32009492696592 
1111	 0.319987392896316 
1112	 0.319927770861797 
1113	 0.319830482055257 
1114	 0.319630887531763 
1115	 0.319532254213603 
1116	 0.319479328056044 
1117	 0.319413235849593 
1118	 0.31949171940613 
1119	 0.319563938686521 
1120	 0.319564449851635 
1121	 0.319357338286838 
1122	 0.319049675100058 
1123	 0.318943980815034 
1124	 0.318724425126796 
1125	 0.318387061607555 
1126	 0.317987519483265 
1127	 0.317423306485565 
1128	 0.316933345890293 
1129	 0.316536494480176 
1130	 0.316029967353571 
1131	 0.315566665908231 
1132	 0.3149536750393 
1133	 0.314260880682326 
1134	 0.313454469026322 
1135	 0.312565383356847 
1136	 0.311741452996523 
1137	 0.310974763948875 
1138	 0.310069382186966 
1139	 0.309191604544543 
1140	 0.308286048951514 
1141	 0.30723241877431 
1142	 0.306264018018473 
1143	 0.305279250222714 
1144	 0.304319790468346 
1145	 0.303250607465861 
1146	 0.302064235767607 
1147	 0.30103965920786 
1148	 0.300110418734056 
1149	 0.299167746741091 
1150	 0.298300901421163 
1151	 0.297473626887077 
1152	 0.296693141684883 
1153	 0.295875219656037 
1154	 0.295178246375075 
1155	 0.294685402595035 
1156	 0.294136454956908 
1157	 0.293572804054402 
1158	 0.293118419530487 
1159	 0.292720863287605 
1160	 0.292341117590854 
1161	 0.291988789804379 
1162	 0.291704360047707 
1163	 0.291432658849998 
1164	 0.29122068871927 
1165	 0.2911248554739 
1166	 0.290946925025474 
1167	 0.290736003006191 
1168	 0.290550381095389 
1169	 0.290351096604399 
1170	 0.290152017637689 
1171	 0.289944355799786 
1172	 0.289782341577067 
1173	 0.289615552864719 
1174	 0.289470931032315 
1175	 0.289426846683325 
1176	 0.289348367858961 
1177	 0.289253802703484 
1178	 0.289172520744493 
1179	 0.289054046363332 
1180	 0.28886649053837 
1181	 0.288753935882022 
1182	 0.288646594718444 
1183	 0.288560563930625 
1184	 0.288539935395135 
1185	 0.288488584377238 
1186	 0.288465541545094 
1187	 0.288382870227478 
1188	 0.288251184796533 
1189	 0.288119502088418 
1190	 0.288038446527974 
1191	 0.287929743919667 
1192	 0.287855860796657 
1193	 0.287819815302391 
1194	 0.287734723651204 
1195	 0.287565991809997 
1196	 0.287532929913573 
1197	 0.287535315506742 
1198	 0.28757250629991 
1199	 0.287741273436291 
1200	 0.287800527458237 
1201	 0.287805831249184 
1202	 0.287864814991986 
1203	 0.287845268698873 
1204	 0.287952887076255 
1205	 0.288190748336428 
1206	 0.288376098914454 
1207	 0.288587512090132 
1208	 0.288822167190192 
1209	 0.289081087839114 
1210	 0.289281440409328 
1211	 0.289523181056413 
1212	 0.289797606320918 
1213	 0.29004878152721 
1214	 0.290265840263903 
1215	 0.290537697067736 
1216	 0.290810773599277 
1217	 0.291144485134225 
1218	 0.291555289920221 
1219	 0.291904133882115 
1220	 0.292299618489451 
1221	 0.292622678337478 
1222	 0.292859521484147 
1223	 0.293137719648729 
1224	 0.293368998205777 
1225	 0.293681415537224 
1226	 0.294088691383301 
1227	 0.294424626865133 
1228	 0.294760948773202 
1229	 0.295115936190912 
1230	 0.295391732921153 
1231	 0.295629845421029 
1232	 0.295905854371411 
1233	 0.296189335367717 
1234	 0.296476929184131 
1235	 0.296771857014343 
1236	 0.297066116335144 
1237	 0.297383870130342 
1238	 0.297663811949942 
1239	 0.297934441898284 
1240	 0.298183354027898 
1241	 0.298397349452461 
1242	 0.298624932541676 
1243	 0.298825343755764 
1244	 0.299064728526433 
1245	 0.29934501779332 
1246	 0.299586081676028 
1247	 0.299849654141332 
1248	 0.300080144120011 
1249	 0.300255201837952 
1250	 0.30044738544367 
1251	 0.30064108805017 
1252	 0.300818966727712 
1253	 0.301011904008046 
1254	 0.301218290724363 
1255	 0.301406441897726 
1256	 0.301606627018024 
1257	 0.301766723077886 
1258	 0.301902747188458 
1259	 0.302034480297319 
1260	 0.302136090140205 
1261	 0.302243956328108 
1262	 0.302323891310321 
1263	 0.30245095273957 
1264	 0.302612981897953 
1265	 0.30274638279682 
1266	 0.302879899216544 
1267	 0.303032540504922 
1268	 0.303216873925704 
1269	 0.303324089377504 
1270	 0.303425829142069 
1271	 0.303496320902679 
1272	 0.303477971116568 
1273	 0.303443770191642 
1274	 0.303460827327926 
1275	 0.303522295659799 
1276	 0.303509705953468 
1277	 0.303470129362831 
1278	 0.303460602408766 
1279	 0.303437243324776 
1280	 0.303395244555399 
1281	 0.303382269805148 
1282	 0.303330352802001 
1283	 0.303218063694325 
1284	 0.303131192747797 
1285	 0.303083734563961 
1286	 0.30297158676654 
1287	 0.302793105206167 
1288	 0.302662881593104 
1289	 0.302532534159421 
1290	 0.302389456765095 
1291	 0.302310533297677 
1292	 0.302150106948706 
1293	 0.30189704260187 
1294	 0.30167655847668 
1295	 0.301453789762888 
1296	 0.301194963915965 
1297	 0.300929379396881 
1298	 0.30068215941806 
1299	 0.300374802911307 
1300	 0.29998366073947 
1301	 0.29968486712629 
1302	 0.299422281048245 
1303	 0.299107521339498 
1304	 0.298864148301164 
1305	 0.298465846166878 
1306	 0.297916372001511 
1307	 0.297448671523022 
1308	 0.296972350069735 
1309	 0.296445197224087 
1310	 0.295934111611572 
1311	 0.295373345340692 
1312	 0.294690464159055 
1313	 0.294071203734411 
1314	 0.293500561687405 
1315	 0.292886218863828 
1316	 0.292323907901586 
1317	 0.291650480531673 
1318	 0.290886869633482 
1319	 0.290111754784162 
1320	 0.289199435118161 
1321	 0.288359047042167 
1322	 0.287509021792166 
1323	 0.286634288732092 
1324	 0.285812178373559 
1325	 0.285032544512697 
1326	 0.284173873633708 
1327	 0.283314371585844 
1328	 0.282394088705142 
1329	 0.281403373917647 
1330	 0.280371877805909 
1331	 0.27926666456664 
1332	 0.278227233265104 
1333	 0.27715669248599 
1334	 0.276138454699346 
1335	 0.275217727996106 
1336	 0.274255819662161 
1337	 0.273186928626992 
1338	 0.272274931315522 
1339	 0.271376379508271 
1340	 0.270555794200909 
1341	 0.269868753193745 
1342	 0.269112168909176 
1343	 0.268202637050391 
1344	 0.267410718414818 
1345	 0.266635571523056 
1346	 0.265774348484625 
1347	 0.264976779261681 
1348	 0.264245775109719 
1349	 0.263570633615975 
1350	 0.263082757536949 
1351	 0.262245433515968 
1352	 0.261542800043024 
1353	 0.260551215870034 
1354	 0.258799755523466 
1355	 0.257012272946289 
1356	 0.256391277900005 
1357	 0.254448600170333 
1358	 0.251873164786398 
1359	 0.248608185538225 
1360	 0.247647909562998 
1361	 0.243020438405192 
1362	 0.238645076033664 
1363	 0.232939745613621 
1364	 0.223076340289295 
1365	 0.22327649139785 
1366	 0.243551122839861 
1367	 0.246077531554205 
1368	 0.245698120762455 
1369	 0.244269692705565 
1370	 0.235501383011615 
1371	 0.231550495086222 
1372	 0.232192849798745 
1373	 0.229905475802366 
1374	 0.227237575666143 
1375	 0.220758607722234 
1376	 0.220635584764965 
1377	 0.22054133942879 
1378	 0.219716861456359 
1379	 0.222145761397914 
1380	 0.220345013134233 
1381	 0.216309278132013 
1382	 0.210487719796688 
1383	 0.202763665394792 
1384	 0.196884454125654 
1385	 0.189148788684437 
1386	 0.185000971055228 
1387	 0.184700257622153 
1388	 0.182339011421433 
1389	 0.180124297233998 
1390	 0.177651994126426 
1391	 0.174809582420249 
1392	 0.172004133886865 
1393	 0.169957411847837 
1394	 0.166496762609706 
1395	 0.16132876438029 
1396	 0.158151562509385 
1397	 0.155712662671886 
1398	 0.152455507771366 
1399	 0.150085447987445 
1400	 0.147002181807996 
1401	 0.142262660540363 
1402	 0.138906975496015 
1403	 0.136699087976151 
1404	 0.134196980086364 
1405	 0.132118572320292 
1406	 0.130088679259803 
1407	 0.127652159125646 
1408	 0.125932887392348 
1409	 0.124127862785485 
1410	 0.121991927927808 
1411	 0.120295303086189 
1412	 0.118683771441305 
1413	 0.117253855454769 
1414	 0.115946827448516 
1415	 0.114957342009676 
1416	 0.114077378679328 
1417	 0.113277962246068 
1418	 0.112844707833214 
1419	 0.111948416145673 
1420	 0.110822754192406 
1421	 0.110007187987871 
1422	 0.109105391527427 
1423	 0.108403997283544 
1424	 0.107904732520922 
1425	 0.107340964692593 
1426	 0.106747908632286 
1427	 0.106196731532188 
1428	 0.105692552027831 
1429	 0.105170959590632 
1430	 0.104545769597583 
1431	 0.104065891936004 
1432	 0.103641165416452 
1433	 0.103227815208675 
1434	 0.102880286309255 
1435	 0.102570383953248 
1436	 0.102237137532516 
1437	 0.101999348330679 
1438	 0.101877789780715 
1439	 0.101739339507141 
1440	 0.101685147059787 
1441	 0.101563597962951 
1442	 0.10131904722875 
1443	 0.101252464687119 
1444	 0.101190202357763 
1445	 0.101067489442633 
1446	 0.101047786680666 
1447	 0.101036409245965 
1448	 0.101133207312395 
1449	 0.101323713467995 
1450	 0.101350025673507 
1451	 0.101405987234031 
1452	 0.101387247639662 
1453	 0.101183428602005 
1454	 0.101203558195209 
1455	 0.101354699735215 
1456	 0.101411652874169 
1457	 0.101484155971595 
1458	 0.101548823387628 
1459	 0.101557152146312 
1460	 0.101632682261558 
1461	 0.101752609378646 
1462	 0.101906689392607 
1463	 0.102132637976931 
1464	 0.102304099926993 
1465	 0.102409355907134 
1466	 0.102702428662884 
1467	 0.103041955297736 
1468	 0.103454878685986 
1469	 0.104067775137136 
1470	 0.104622417204477 
1471	 0.105131984005384 
1472	 0.105669206521845 
1473	 0.106281330629575 
1474	 0.10677433781744 
1475	 0.107052792130885 
1476	 0.107562153494212 
1477	 0.108119677869727 
1478	 0.108681699663377 
1479	 0.109340046063658 
1480	 0.110037392489674 
1481	 0.110787609633371 
1482	 0.111423063505228 
1483	 0.112024272808413 
1484	 0.112680273661061 
1485	 0.113236526386884 
1486	 0.113845971125767 
1487	 0.114504463330118 
1488	 0.115217723374867 
1489	 0.11592297464169 
1490	 0.11655524984929 
1491	 0.117315549507859 
1492	 0.11803201856612 
1493	 0.118675093741829 
1494	 0.119379681500592 
1495	 0.120010084463122 
1496	 0.120594724692 
1497	 0.121225264890533 
1498	 0.121842319119756 
1499	 0.122528423231084 
1500	 0.123266073442861 
1501	 0.124019299641525 
1502	 0.12482775849057 
1503	 0.125625152839887 
1504	 0.12646068349751 
1505	 0.12722636371002 
1506	 0.127976288111584 
1507	 0.128701854478149 
1508	 0.129354839615738 
1509	 0.13007460019855 
1510	 0.130823362489771 
1511	 0.131544464810693 
1512	 0.132251354300029 
1513	 0.133015922332543 
1514	 0.133823273680247 
1515	 0.13457415936441 
1516	 0.135357843143233 
1517	 0.136114746993506 
1518	 0.136785811878334 
1519	 0.137544291211075 
1520	 0.138387170544799 
1521	 0.13916323208933 
1522	 0.139932052878322 
1523	 0.140699771999984 
1524	 0.141454017336879 
1525	 0.14218854930225 
1526	 0.142934404322639 
1527	 0.14365322845417 
1528	 0.144293069840438 
1529	 0.145017251876326 
1530	 0.145811923856286 
1531	 0.146543000407481 
1532	 0.147297345273157 
1533	 0.148021426832186 
1534	 0.148661852145852 
1535	 0.149354672634272 
1536	 0.150106853143549 
1537	 0.150796760145494 
1538	 0.151439114224033 
1539	 0.15212979614884 
1540	 0.152806482020094 
1541	 0.153500147615054 
1542	 0.154261627742271 
1543	 0.154980316281971 
1544	 0.155702203906651 
1545	 0.156368368016058 
1546	 0.156972892548357 
1547	 0.157606245351943 
1548	 0.15820574244362 
1549	 0.158819786006455 
1550	 0.15944077624404 
1551	 0.160101780256869 
1552	 0.160843279030926 
1553	 0.161488914362144 
1554	 0.162114848037945 
1555	 0.162730956537981 
1556	 0.163206554518844 
1557	 0.163777784997691 
1558	 0.164476942337076 
1559	 0.165093002333199 
1560	 0.165744605812863 
1561	 0.166315599876986 
1562	 0.16669356610081 
1563	 0.167206133197913 
1564	 0.167806144782575 
1565	 0.168341896319036 
1566	 0.168933560503986 
1567	 0.169594194523497 
1568	 0.170200693239246 
1569	 0.170760733209277 
1570	 0.17132505484758 
1571	 0.171900506269046 
1572	 0.172486022592354 
1573	 0.173055130591663 
1574	 0.173573934220731 
1575	 0.174088349155455 
1576	 0.174621524706746 
1577	 0.17507941681772 
1578	 0.175608905057941 
1579	 0.17622719842152 
1580	 0.176742282090638 
1581	 0.177201342218001 
1582	 0.177686645224896 
1583	 0.178128343738769 
1584	 0.178675680070927 
1585	 0.179286671287139 
1586	 0.179835523065169 
1587	 0.180453450506151 
1588	 0.18093846902522 
1589	 0.181306786884333 
1590	 0.181764749558006 
1591	 0.182209109474692 
1592	 0.182674348939757 
1593	 0.183177460327104 
1594	 0.183669898407745 
1595	 0.184186200034368 
1596	 0.184613667325031 
1597	 0.184986192318512 
1598	 0.185447311917298 
1599	 0.185876069802439 
1600	 0.186349322360334 
1601	 0.186944454315428 
1602	 0.187428063259998 
1603	 0.187849515644903 
1604	 0.188273843899936 
1605	 0.188654513506715 
1606	 0.189111425617631 
1607	 0.189570141859681 
1608	 0.190044852149099 
1609	 0.190611560555204 
1610	 0.191050966389606 
1611	 0.191416658855767 
1612	 0.191813902626776 
1613	 0.192162638230061 
1614	 0.192567753963466 
1615	 0.192998775734431 
1616	 0.193425570603602 
1617	 0.193890519808342 
1618	 0.19427191870095 
1619	 0.194634865500559 
1620	 0.194976266640311 
1621	 0.195238600904111 
1622	 0.195581813355184 
1623	 0.195969662042721 
1624	 0.196290927156957 
1625	 0.196622201415563 
1626	 0.196905609668743 
1627	 0.197106906088595 
1628	 0.197393823515224 
1629	 0.197691879655029 
1630	 0.198043617746078 
1631	 0.198477164732526 
1632	 0.198818139048258 
1633	 0.199164122097707 
1634	 0.199473157041723 
1635	 0.199699493967715 
1636	 0.200009098114471 
1637	 0.200366506021831 
1638	 0.200657670982073 
1639	 0.200947929616963 
1640	 0.201219439149269 
1641	 0.201463060947663 
1642	 0.201669239546062 
1643	 0.201876321777486 
1644	 0.202014358041161 
1645	 0.202049949036517 
1646	 0.202170734501227 
1647	 0.202291526532627 
1648	 0.20240339187928 
1649	 0.202547539789235 
1650	 0.202675819789453 
1651	 0.202771520618179 
1652	 0.202902185038206 
1653	 0.203097395797028 
1654	 0.203160480139059 
1655	 0.203158729869081 
1656	 0.20318879801712 
1657	 0.203142481776984 
1658	 0.203158884790728 
1659	 0.203323509870717 
1660	 0.203333664363896 
1661	 0.203229089811586 
1662	 0.203194774036551 
1663	 0.203081984856998 
1664	 0.203031857862212 
1665	 0.203085362147777 
1666	 0.203077777064243 
1667	 0.203067620595424 
1668	 0.203151934818642 
1669	 0.203234576175154 
1670	 0.203176240548761 
1671	 0.203202581284333 
1672	 0.203231050694987 
1673	 0.203088456427746 
1674	 0.203104432936159 
1675	 0.203103555033669 
1676	 0.20288971578722 
1677	 0.202711269032339 
1678	 0.202454711434048 
1679	 0.202063113141814 
1680	 0.201753923087026 
1681	 0.201534316683801 
1682	 0.201266765197833 
1683	 0.201004754470662 
1684	 0.200783551852956 
1685	 0.200431630178331 
1686	 0.20017310904146 
1687	 0.200015799809147 
1688	 0.199549164281216 
1689	 0.199115042723192 
1690	 0.198743215044898 
1691	 0.198298133792561 
1692	 0.197906609829705 
1693	 0.197577054444451 
1694	 0.19717439623783 
1695	 0.196789613593977 
1696	 0.196599380555407 
1697	 0.196267514506247 
1698	 0.195753537015138 
1699	 0.195324912178436 
1700	 0.194869470572671 
1701	 0.194459591627768 
1702	 0.194159706400231 
1703	 0.193811728757637 
1704	 0.19342680687683 
1705	 0.193077645618288 
1706	 0.19276098829212 
1707	 0.192348247389174 
1708	 0.191909931472259 
1709	 0.191495631474731 
1710	 0.19103038672804 
1711	 0.190542775396971 
1712	 0.19007135808925 
1713	 0.189587871194851 
1714	 0.188926038764442 
1715	 0.188564135534229 
1716	 0.188470068396688 
1717	 0.188207742166787 
1718	 0.188055515680598 
1719	 0.187752340285215 
1720	 0.187172387287523 
1721	 0.186849556392556 
1722	 0.186676159758195 
1723	 0.186450065685281 
1724	 0.18632732304339 
1725	 0.186085736061586 
1726	 0.185674073181142 
1727	 0.18544570704573 
1728	 0.185288594835735 
1729	 0.185205727734591 
1730	 0.185282399969495 
1731	 0.185243210035181 
1732	 0.185054106745744 
1733	 0.184811900746876 
1734	 0.184664494184485 
1735	 0.184576081207079 
1736	 0.18443947065032 
1737	 0.184219200715463 
1738	 0.184068149041664 
1739	 0.183875850490173 
1740	 0.183621862511712 
1741	 0.183311252524592 
1742	 0.182997366686554 
1743	 0.182755880105942 
1744	 0.182513759761701 
1745	 0.182381530252463 
1746	 0.182154656400086 
1747	 0.181799139105104 
1748	 0.181414308511707 
1749	 0.180945935728284 
1750	 0.180630364715868 
1751	 0.180372999451523 
1752	 0.180057145889784 
1753	 0.179772371052132 
1754	 0.179349078505577 
1755	 0.178800098711355 
1756	 0.178296435161956 
1757	 0.178060850962429 
1758	 0.177742060146062 
1759	 0.177501413316944 
1760	 0.177250778169555 
1761	 0.176892057022072 
1762	 0.176582880191297 
1763	 0.176343451409056 
1764	 0.176030794438138 
1765	 0.175639539024811 
1766	 0.175389587677054 
1767	 0.175230963677355 
1768	 0.175094528174089 
1769	 0.175022225293167 
1770	 0.174909276631724 
1771	 0.174787551979883 
1772	 0.174660253330518 
1773	 0.174573018515846 
1774	 0.174418908820223 
1775	 0.174273668380198 
1776	 0.174262507163893 
1777	 0.174264000533073 
1778	 0.174322992987023 
1779	 0.17418570970377 
1780	 0.173868811257526 
1781	 0.173746837746636 
1782	 0.173749400522281 
1783	 0.17378938274156 
1784	 0.173931625372547 
1785	 0.173918414987005 
1786	 0.173763880270592 
1787	 0.173900586052942 
1788	 0.174207019585478 
1789	 0.174511979535443 
1790	 0.174820088986428 
1791	 0.175034623197132 
1792	 0.174987073885386 
1793	 0.174942180532357 
1794	 0.175079166603326 
1795	 0.175014623584162 
1796	 0.17510937993304 
1797	 0.17546735816189 
1798	 0.175651761751917 
1799	 0.175767536546566 
1800	 0.17565065917058 
1801	 0.175114997106924 
1802	 0.174522991696553 
1803	 0.174959051547639 
1804	 0.176664270727084 
1805	 0.177287460763598 
1806	 0.177840280866088 
1807	 0.178651999942375 
1808	 0.179512307999928 
1809	 0.179273369705868 
1810	 0.179250175829196 
1811	 0.179570562389144 
1812	 0.179777052845015 
1813	 0.179184147893921 
1814	 0.178764797709782 
1815	 0.179067623604358 
1816	 0.178896612409541 
1817	 0.176625047417038 
1818	 0.175999946077163 
1819	 0.176201069627091 
1820	 0.17788394722481 
1821	 0.17928097298563 
1822	 0.184145956072053 
1823	 0.184558929410678 
1824	 0.179330443242864 
1825	 0.179128612946461 
1826	 0.179484266449207 
1827	 0.17903901895769 
1828	 0.179976996073793 
1829	 0.188974232567944 
1830	 0.194948903588101 
1831	 0.198949843332376 
1832	 0.201797471569885 
1833	 0.206912096512281 
1834	 0.212428382336055 
1835	 0.193391286610658 
1836	 0.191142627708196 
1837	 0.22057564958214 
1838	 0.235686586597044 
1839	 0.247350204120096 
1840	 0.25986570463695 
1841	 0.257214734496573 
1842	 0.220626853894159 
1843	 0.222504258000889 
1844	 0.240514145669903 
1845	 0.245565305100193 
1846	 0.271438456294772 
1847	 0.278316805740456 
1848	 0.275038533541315 
1849	 0.248489162277799 
1850	 0.236123563564001 
1851	 0.221706286984526 
1852	 0.209744196207343 
1853	 0.199468850555425 
1854	 0.194071961668612 
1855	 0.184808641414914 
1856	 0.18659656126803 
1857	 0.210480785813969 
1858	 0.208118419320736 
1859	 0.211914896812452 
1860	 0.228598289263476 
1861	 0.216522997408844 
1862	 0.180381128305872 
1863	 0.167039091051704 
1864	 0.139493627301543 
1865	 0.131216013948643 
1866	 0.147438167836827 
1867	 0.159349439961673 
1868	 0.1602689594923 
1869	 0.154087654250901 
1870	 0.152640335758263 
1871	 0.134412589750824 
1872	 0.135273458458078 
1873	 0.162485940546609 
1874	 0.164069385965035 
1875	 0.159109541706257 
1876	 0.154377625453607 
1877	 0.146978953760821 
1878	 0.134832478918983 
1879	 0.133264815678949 
1880	 0.134618677351853 
1881	 0.130435414762121 
1882	 0.125764898379804 
1883	 0.120964900931631 
1884	 0.113484925338978 
1885	 0.106428198407124 
1886	 9.82641120711248E-02 
1887	 9.31559395868365E-02 
1888	 8.71841974156344E-02 
1889	 8.15896394688396E-02 
1890	 8.07021653482146E-02 
1891	 8.70478350524306E-02 
1892	 8.62110169157448E-02 
1893	 8.64240243948524E-02 
1894	 8.45373976482184E-02 
1895	 7.20280980655884E-02 
1896	 6.70776937683018E-02 
1897	 6.12918480524823E-02 
1898	 6.45764268545048E-02 
1899	 7.82901372974317E-02 
1900	 9.42405502499856E-02 
1901	 0.102469516596807 
1902	 0.109515583644604 
1903	 0.108261429464796 
1904	 9.18497854759228E-02 
1905	 8.48475986248787E-02 
1906	 8.01825727811604E-02 
1907	 6.88551048357665E-02 
1908	 8.14467849501925E-02 
1909	 0.062546323923054 
1910	 4.17092807529342E-02 
1911	 5.22692051397759E-02 
1912	 5.57594616842636E-02 
1913	 5.74112961968987E-02 
1914	 6.11023329578134E-02 
1915	 7.02688099592502E-02 
1916	 6.99777521701427E-02 
1917	 6.63770229798215E-02 
1918	 6.43264777617614E-02 
1919	 0.061506709871472 
1920	 0.058957888387521 
1921	 5.59732998067264E-02 
1922	 5.64386962100344E-02 
1923	 5.66214329548033E-02 
1924	 5.72222625680305E-02 
1925	 5.71367130837613E-02 
1926	 5.71512833688997E-02 
1927	 5.72028521774323E-02 
1928	 5.63422773734135E-02 
1929	 5.77851431644493E-02 
1930	 5.77387868191572E-02 
1931	 5.70631247220032E-02 
1932	 0.054412121702443 
1933	 5.17584509790724E-02 
1934	 5.12706812673336E-02 
1935	 5.15447827462632E-02 
1936	 5.20341338183765E-02 
1937	 5.40401434942555E-02 
1938	 0.054894345175187 
1939	 5.58832720200757E-02 
1940	 5.59822648170943E-02 
1941	 5.45629777572345E-02 
1942	 5.32582661390159E-02 
1943	 5.15071597813423E-02 
1944	 5.08659991592187E-02 
1945	 0.051817233724817 
1946	 5.33449746129298E-02 
1947	 5.42787101862085E-02 
1948	 5.51702304350517E-02 
1949	 5.58737654333502E-02 
1950	 0.05661162334518 
1951	 5.69135042421381E-02 
1952	 5.68022807165891E-02 
1953	 5.71656712537279E-02 
1954	 5.67037897894353E-02 
1955	 5.60854092470033E-02 
1956	 0.056058480671919 
1957	 5.68560578754381E-02 
1958	 5.74484287301961E-02 
1959	 0.05847081773293 
1960	 0.058914312443792 
1961	 5.93111594710875E-02 
1962	 5.90979058307377E-02 
1963	 5.87315065758716E-02 
1964	 0.059229533760889 
1965	 6.02158526756429E-02 
1966	 6.10571840640497E-02 
1967	 0.061758289816276 
1968	 6.19778537472208E-02 
1969	 6.20548293686998E-02 
1970	 0.061470772577218 
1971	 6.15260824004814E-02 
1972	 6.17837338522105E-02 
1973	 0.062061361959965 
1974	 6.22961160602705E-02 
1975	 6.23183615749461E-02 
1976	 6.20482779330705E-02 
1977	 6.19290301151209E-02 
1978	 6.23669403276257E-02 
1979	 6.27143288753447E-02 
1980	 6.33698168609316E-02 
1981	 6.42008357995768E-02 
1982	 6.44530690982364E-02 
1983	 6.41681931414316E-02 
1984	 6.42736554817899E-02 
1985	 6.45999981869681E-02 
1986	 6.47518479806252E-02 
1987	 6.53206624359816E-02 
1988	 6.57458801355074E-02 
1989	 6.59745422263037E-02 
1990	 6.60825900475869E-02 
1991	 6.61058025431495E-02 
1992	 6.65746056009353E-02 
1993	 6.69742185989452E-02 
1994	 0.067023809088405 
1995	 0.067167663540377 
1996	 6.74440105791414E-02 
1997	 6.75517736211002E-02 
1998	 6.73942175201275E-02 
1999	 6.75729563007605E-02 
2000	 6.83525671409803E-02 
2001	 6.91497459638468E-02 
2002	 6.99721193625067E-02 
2003	 7.09704937523298E-02 
2004	 7.15043774430327E-02 
2005	 0.07152418038404 
2006	 7.18964172837459E-02 
2007	 7.22205953545148E-02 
2008	 7.27627553406225E-02 
2009	 7.35114537909304E-02 
2010	 7.43026766524441E-02 
2011	 7.42794230883694E-02 
2012	 7.44384017540097E-02 
2013	 7.47314253944422E-02 
2014	 0.074795873208897 
2015	 7.56470526928036E-02 
2016	 7.67960137256554E-02 
2017	 7.73150600927737E-02 
2018	 7.74119083420875E-02 
2019	 0.077486907775273 
2020	 7.74126102364357E-02 
2021	 7.69312748341366E-02 
2022	 0.0767710123854 
2023	 7.72196460000146E-02 
2024	 7.77106942039473E-02 
2025	 7.81837322087726E-02 
2026	 7.86743157570619E-02 
2027	 7.88824311583192E-02 
2028	 0.07882170319688 
2029	 7.87996944112314E-02 
2030	 7.88636035844976E-02 
2031	 7.91782978780122E-02 
2032	 7.93546074574597E-02 
2033	 7.96441304347903E-02 
2034	 7.97341831935289E-02 
2035	 7.96879075604025E-02 
2036	 7.96462205639456E-02 
2037	 7.96181343067558E-02 
2038	 7.96398689282024E-02 
2039	 8.00289789036825E-02 
2040	 8.03621144164217E-02 
2041	 8.06565591320453E-02 
2042	 8.11746491771843E-02 
2043	 8.14944126772731E-02 
2044	 8.14807540419932E-02 
2045	 0.0814198428304 
2046	 8.11351226854856E-02 
2047	 8.10682207517084E-02 
2048	 8.10315160065201E-02 
2049	 8.11472923053205E-02 
2050	 8.17424767629878E-02 
2051	 8.19800232221456E-02 
2052	 8.21742239398168E-02 
2053	 8.26428692083354E-02 
2054	 8.27570279175355E-02 
2055	 8.28844014514401E-02 
2056	 8.32555087875903E-02 
2057	 8.33606794414681E-02 
2058	 0.083594974678282 
2059	 0.083986327803148 
2060	 8.47368121359233E-02 
2061	 0.084897233363947 
2062	 8.49224977125533E-02 
2063	 8.51029383967322E-02 
2064	 8.49873493042926E-02 
2065	 0.085431167797773 
2066	 8.60268337006304E-02 
2067	 8.62574451981189E-02 
2068	 8.67638341265768E-02 
2069	 8.69557912173936E-02 
2070	 8.70144649432214E-02 
2071	 8.76838123171229E-02 
2072	 8.81141967577539E-02 
2073	 8.84203458996266E-02 
2074	 8.86871690083992E-02 
2075	 8.90713085869241E-02 
2076	 8.90453646995934E-02 
2077	 8.91033466475336E-02 
2078	 0.088951484783377 
2079	 8.86866099604864E-02 
2080	 8.86085798753615E-02 
2081	 8.85094363876941E-02 
2082	 8.88728710810937E-02 
2083	 8.92793201026748E-02 
2084	 8.96468581792787E-02 
2085	 9.01180545545604E-02 
2086	 9.03329613656885E-02 
2087	 9.06702037883225E-02 
2088	 9.10944635257047E-02 
2089	 9.16279636987139E-02 
2090	 9.20684292403228E-02 
2091	 9.24129520438758E-02 
2092	 9.27095503025621E-02 
2093	 9.30836040324199E-02 
2094	 9.31781104247777E-02 
2095	 9.32923263827952E-02 
2096	 9.33897095342183E-02 
2097	 0.09325835431094 
2098	 9.31808998300766E-02 
2099	 9.30628401604017E-02 
2100	 9.32900254234036E-02 
2101	 9.36135034483899E-02 
2102	 9.39789149432317E-02 
2103	 9.45339375098773E-02 
2104	 9.51266197872382E-02 
2105	 9.52588788021843E-02 
2106	 9.56111095771128E-02 
2107	 9.58162143568246E-02 
2108	 9.59738220403288E-02 
2109	 9.63701182231826E-02 
2110	 9.62444914413256E-02 
2111	 9.61302319824914E-02 
2112	 9.61964500337818E-02 
2113	 9.62461967008112E-02 
2114	 9.67163721578782E-02 
2115	 9.72911983768893E-02 
2116	 9.79234158821513E-02 
2117	 9.84477709435421E-02 
2118	 9.89904039758671E-02 
2119	 9.93990052940276E-02 
2120	 9.97906196079585E-02 
2121	 0.099884014888222 
2122	 9.97890178937989E-02 
2123	 9.98278081239712E-02 
2124	 9.97597157121611E-02 
2125	 0.099726503065267 
2126	 0.100274787443481 
2127	 0.10066726782151 
2128	 0.100830329240231 
2129	 0.101244854566072 
2130	 0.101151748530493 
2131	 0.101189976881556 
2132	 0.101616207750148 
2133	 0.101802298662515 
2134	 0.102099774745963 
2135	 0.102583314508203 
2136	 0.102948217825748 
2137	 0.10298224602409 
2138	 0.10309605821562 
2139	 0.103265213292403 
2140	 0.103340138754133 
2141	 0.103761029091908 
2142	 0.104157167307524 
2143	 0.104136003250376 
2144	 0.104496026387119 
2145	 0.10441194279243 
2146	 0.104228965656244 
2147	 0.104479212925059 
2148	 0.104383922339165 
2149	 0.104716870432514 
2150	 0.105376679409451 
2151	 0.105548298063486 
2152	 0.105368328809064 
2153	 0.105396715975444 
2154	 0.105346769333299 
2155	 0.104942668933693 
2156	 0.104791534721383 
2157	 0.105206635150052 
2158	 0.105000073153766 
2159	 0.105050806283569 
2160	 0.105789832449504 
2161	 0.106130347950392 
2162	 0.106505467730628 
2163	 0.107035265530407 
2164	 0.107277074114148 
2165	 0.107541705502366 
2166	 0.107614151546234 
2167	 0.107647426456627 
2168	 0.107754939630939 
2169	 0.1075398281832 
2170	 0.107676933780441 
2171	 0.108158245163413 
2172	 0.108429917955308 
2173	 0.108995288432953 
2174	 0.109442597978654 
2175	 0.109379530626069 
2176	 0.109662093305723 
2177	 0.109181663001037 
2178	 0.109065419685057 
2179	 0.10965744084752 
2180	 0.109735369160299 
2181	 0.110358721121468 
2182	 0.110850659493064 
2183	 0.110775056259204 
2184	 0.111079415521268 
2185	 0.111167133469746 
2186	 0.111216890821434 
2187	 0.111406451641426 
2188	 0.111715336145734 
2189	 0.111831007568924 
2190	 0.112028232205467 
2191	 0.112009332400797 
2192	 0.111847150735195 
2193	 0.111797496985099 
2194	 0.111821945254325 
2195	 0.112284449207487 
2196	 0.112098462864759 
2197	 0.112151949460964 
2198	 0.112671551474628 
2199	 0.112252353911486 
2200	 0.11237545630341 
2201	 0.113085122988322 
2202	 0.113325556085646 
2203	 0.113488094705356 
2204	 0.113888138454568 
2205	 0.113925926902745 
2206	 0.113594410227394 
2207	 0.113889145647505 
2208	 0.114090392587431 
2209	 0.114385178194313 
2210	 0.114477314135928 
2211	 0.114693872671319 
2212	 0.114302579269433 
2213	 0.113971515800061 
2214	 0.11387309082337 
2215	 0.113564229221963 
2216	 0.113569623620396 
2217	 0.113780832820958 
2218	 0.113992257332271 
2219	 0.114596645885149 
2220	 0.11510548808434 
2221	 0.115237590409083 
2222	 0.11513315791727 
2223	 0.114873361259095 
2224	 0.114778977919663 
2225	 0.115010255767877 
2226	 0.115271128254502 
2227	 0.115352568446678 
2228	 0.115425119086086 
2229	 0.115308923667814 
2230	 0.115181703009181 
2231	 0.114863282756714 
2232	 0.114214508616659 
2233	 0.113825182554461 
2234	 0.113493635545267 
2235	 0.11300074421273 
2236	 0.112587404148081 
2237	 0.111964644816842 
2238	 0.111499775162038 
2239	 0.11110631883689 
2240	 0.110483142258052 
2241	 0.110549478405525 
2242	 0.110760995160323 
2243	 0.110616251211655 
2244	 0.11072136707143 
2245	 0.110966269090273 
2246	 0.110593563089762 
2247	 0.109909263712042 
2248	 0.109642110001107 
2249	 0.108995713479079 
2250	 0.107917176712005 
2251	 0.107446148230448 
2252	 0.107047319567776 
2253	 0.106570427037009 
2254	 0.106309259687986 
2255	 0.105613274243251 
2256	 0.104980362172916 
2257	 0.104118938037276 
2258	 0.103247077527561 
2259	 0.102656309107861 
2260	 0.103004360200342 
2261	 0.102886272329787 
2262	 0.102402521082873 
2263	 0.102215143745109 
2264	 0.101072746363029 
2265	 0.100055569358008 
2266	 9.96163986237997E-02 
2267	 9.88290650853666E-02 
2268	 9.83355180184685E-02 
2269	 9.78956123749752E-02 
2270	 9.78801195257357E-02 
2271	 9.80775745657754E-02 
2272	 9.74517886617713E-02 
2273	 9.70418596713193E-02 
2274	 0.096381475250087 
2275	 9.51605521040533E-02 
2276	 9.50822867206689E-02 
2277	 9.55001113112241E-02 
2278	 9.56205223403168E-02 
2279	 9.60735808162153E-02 
2280	 9.62535984575233E-02 
2281	 9.54919437926229E-02 
2282	 9.45899029131616E-02 
2283	 9.39993765129346E-02 
2284	 9.37458925240167E-02 
2285	 9.33871309333832E-02 
2286	 9.30934227585242E-02 
2287	 9.30046155254844E-02 
2288	 0.0929390205157 
2289	 9.22204474470638E-02 
2290	 9.21689173121956E-02 
2291	 9.25081666903513E-02 
2292	 9.22893861327008E-02 
2293	 9.18483283152376E-02 
2294	 9.15242666215211E-02 
2295	 9.10589921827091E-02 
2296	 0.090447521685975 
2297	 9.03134955394956E-02 
2298	 9.00443375722837E-02 
2299	 8.96288733019966E-02 
2300	 8.87791551633594E-02 
2301	 0.088105699350473 
2302	 8.77630420732661E-02 
2303	 8.67075506255649E-02 
2304	 0.086021466627451 
2305	 8.57243431186604E-02 
2306	 8.56429855328038E-02 
2307	 8.55310869259309E-02 
2308	 8.61697729160216E-02 
2309	 8.70952779528609E-02 
2310	 8.64401976660766E-02 
2311	 8.66411894950582E-02 
2312	 8.67617716523007E-02 
2313	 0.085165444627901 
2314	 8.46610463443019E-02 
2315	 8.50264222476222E-02 
2316	 8.48470469292052E-02 
2317	 8.47850799231898E-02 
2318	 8.51687714738496E-02 
2319	 8.58243239858409E-02 
2320	 8.53322423163664E-02 
2321	 8.49588040112333E-02 
2322	 8.53052764735333E-02 
2323	 8.53714789800834E-02 
2324	 8.43960489786656E-02 
2325	 8.47916704251788E-02 
2326	 0.086170870719704 
2327	 8.64564684939715E-02 
2328	 8.69456095023196E-02 
2329	 8.67483798115241E-02 
2330	 8.58839323013647E-02 
2331	 8.47590233270844E-02 
2332	 8.37158839927938E-02 
2333	 8.30548702914768E-02 
2334	 8.32283338444947E-02 
2335	 8.43525645087491E-02 
2336	 8.42590283999962E-02 
2337	 8.39849935611234E-02 
2338	 8.46778900842836E-02 
2339	 8.44072351603899E-02 
2340	 8.44250892958314E-02 
2341	 8.48638677458202E-02 
2342	 8.37257213582505E-02 
2343	 8.23071022884297E-02 
2344	 8.19149088908363E-02 
2345	 8.17097544956605E-02 
2346	 8.16143399635697E-02 
2347	 8.09191405335972E-02 
2348	 7.99566448847572E-02 
2349	 8.00398537012239E-02 
2350	 7.91621324583205E-02 
2351	 7.89020250675749E-02 
2352	 7.98320845969585E-02 
2353	 7.91844501337495E-02 
2354	 7.96958272499859E-02 
2355	 8.08655924336608E-02 
2356	 7.98959214224454E-02 
2357	 7.97043879079065E-02 
2358	 7.96276438228056E-02 
2359	 7.79446399578427E-02 
2360	 7.79035187997783E-02 
2361	 7.89683237975986E-02 
2362	 7.84052785038147E-02 
2363	 7.80914753945949E-02 
2364	 7.86224814329257E-02 
2365	 7.75766286568754E-02 
2366	 7.74734697186205E-02 
2367	 7.99878494296701E-02 
2368	 0.080844824865065 
2369	 8.11161821186128E-02 
2370	 8.12621121864909E-02 
2371	 7.87712613147189E-02 
2372	 7.76919376243313E-02 
2373	 7.66917627827122E-02 
2374	 7.62520075966812E-02 
2375	 7.70893183436956E-02 
2376	 7.74676742776478E-02 
2377	 7.81499753359813E-02 
2378	 7.82122878429983E-02 
2379	 7.78670344418389E-02 
2380	 7.71656500463743E-02 
2381	 7.50556095303423E-02 
2382	 7.44046700837136E-02 
2383	 7.44878088420566E-02 
2384	 7.43939820723559E-02 
2385	 7.57323488571772E-02 
2386	 7.53047896038985E-02 
2387	 7.37168941333163E-02 
2388	 7.25759743267603E-02 
2389	 7.10406514448388E-02 
2390	 6.96619620413973E-02 
2391	 6.69812051508784E-02 
2392	 6.67813643123047E-02 
2393	 6.76851199845255E-02 
2394	 6.83396115714954E-02 
2395	 7.18130717873246E-02 
2396	 0.073203222971772 
2397	 7.32687377626175E-02 
2398	 7.39967767586009E-02 
2399	 7.45281874158392E-02 
2400	 7.42380116170894E-02 
2401	 7.35825291459892E-02 
2402	 7.27832222013415E-02 
2403	 7.03295468487426E-02 
2404	 6.87254606431614E-02 
2405	 6.99564245479218E-02 
2406	 6.97460119732362E-02 
2407	 6.94079243581833E-02 
2408	 7.06567552768878E-02 
2409	 0.071439747179475 
2410	 7.05999054961909E-02 
2411	 6.99335818908206E-02 
2412	 7.11165544022496E-02 
2413	 7.07149953496905E-02 
2414	 6.99345238283141E-02 
2415	 7.16981469014797E-02 
2416	 7.22678497227551E-02 
2417	 6.90687066124469E-02 
2418	 6.64276976612502E-02 
2419	 6.58205374947289E-02 
2420	 6.28920762037058E-02 
2421	 6.41843951314101E-02 
2422	 7.02872413048964E-02 
2423	 7.15528236166253E-02 
2424	 7.21197998439219E-02 
2425	 7.12916750507139E-02 
2426	 6.55437779662675E-02 
2427	 6.28439030000201E-02 
2428	 6.36674739110578E-02 
2429	 6.66362848766803E-02 
2430	 6.96866675823716E-02 
2431	 6.81000821031076E-02 
2432	 6.49328459482487E-02 
2433	 6.39265793739393E-02 
2434	 6.25908632402595E-02 
2435	 6.48403718710754E-02 
2436	 0.065666407563895 
2437	 6.31549725515858E-02 
2438	 0.061559797249851 
2439	 5.91158823201671E-02 
2440	 5.91520291931435E-02 
2441	 6.09332001176635E-02 
2442	 0.062495254037277 
2443	 7.03312315598145E-02 
2444	 7.25309373834534E-02 
2445	 6.80229119413273E-02 
2446	 6.76197387940398E-02 
2447	 6.43091817013188E-02 
2448	 6.18545964300073E-02 
2449	 6.52760939855243E-02 
2450	 6.57651175269945E-02 
2451	 6.51020523509961E-02 
2452	 6.37480327168227E-02 
2453	 6.00263176709189E-02 
2454	 5.79433133475856E-02 
2455	 5.21881076622018E-02 
2456	 0.054351018045197 
2457	 6.55550764828018E-02 
2458	 6.90261660133128E-02 
2459	 7.46584377924195E-02 
2460	 7.47719819056822E-02 
2461	 6.58908496301421E-02 
2462	 6.20750524439295E-02 
2463	 5.76542861698563E-02 
2464	 0.056839739028165 
2465	 6.09440452155438E-02 
2466	 5.87372952846516E-02 
2467	 5.12946774169879E-02 
2468	 5.25677637849541E-02 
2469	 5.65513491331322E-02 
2470	 5.85672318169898E-02 
2471	 7.02582240742379E-02 
2472	 7.52269759982663E-02 
2473	 7.18289077152368E-02 
2474	 0.070820688413934 
2475	 6.81719942848067E-02 
2476	 6.75607918573605E-02 
2477	 6.79392037852768E-02 
2478	 6.12638416120055E-02 
2479	 5.42475974195454E-02 
2480	 5.08319434104326E-02 
2481	 3.61619016576928E-02 
2482	 0.027665873412172 
2483	 0.031486461229846 
2484	 3.66273406801008E-02 
2485	 4.03871641881345E-02 
2486	 4.45748732141258E-02 
2487	 6.77605251121702E-02 
2488	 7.14546542375371E-02 
2489	 5.93128311910226E-02 
2490	 6.45438167011833E-02 
2491	 5.64524989511595E-02 
2492	 7.55895943250713E-02 
2493	 8.89109191634082E-02 
2494	 5.13813191255425E-02 
2495	 1.63449360677613E-02 
2496	-6.8205412094356E-04 
2497	-2.59290679070343E-03 
2498	 3.58119724307239E-02 
2499	 0.103850966225158 
2500	 0.124570150219245 
