Wavelength	ref00038.asd
350	 0.015864819584821 
351	 1.56357648581428E-02 
352	 1.59663771549145E-02 
353	 1.63213808917215E-02 
354	 1.59859578313499E-02 
355	 1.54455374515307E-02 
356	 0.015164814486871 
357	 1.50481757819969E-02 
358	 1.51950840036568E-02 
359	 1.56866065690262E-02 
360	 1.63920692853844E-02 
361	 1.64372833026577E-02 
362	 1.63123959984778E-02 
363	 1.61999431188143E-02 
364	 1.60707884360909E-02 
365	 1.64024972615833E-02 
366	 1.62687183306388E-02 
367	 1.56551808337926E-02 
368	 1.60068396020131E-02 
369	 1.60879968961995E-02 
370	 1.60533709343681E-02 
371	 1.61240267091961E-02 
372	 1.56009565975523E-02 
373	 1.54807530037234E-02 
374	 1.57479051951211E-02 
375	 1.58644373269207E-02 
376	 1.57325154839242E-02 
377	 1.58678761712906E-02 
378	 1.63450447438059E-02 
379	 1.66540258604009E-02 
380	 1.65125471829057E-02 
381	 1.66888872633984E-02 
382	 0.017446465620575 
383	 0.017038950780745 
384	 1.68273659997993E-02 
385	 1.69560748834108E-02 
386	 1.71015141046224E-02 
387	 0.017674562420599 
388	 0.018249362807946 
389	 1.84446536987639E-02 
390	 1.80709769806542E-02 
391	 1.84700901367891E-02 
392	 1.90088706388917E-02 
393	 1.90933213782427E-02 
394	 1.89963118703285E-02 
395	 1.94712316926273E-02 
396	 0.020136394836448 
397	 2.03706330473795E-02 
398	 2.07064736426181E-02 
399	 2.08459364206103E-02 
400	 2.09156593966822E-02 
401	 2.13598748604155E-02 
402	 2.15542585031841E-02 
403	 2.18188338814519E-02 
404	 2.23643544120326E-02 
405	 2.29532669391347E-02 
406	 2.31605201529337E-02 
407	 2.31980593255204E-02 
408	 2.34434433017339E-02 
409	 2.37624073241726E-02 
410	 2.41967902395065E-02 
411	 2.46593898683527E-02 
412	 2.49625636697244E-02 
413	 2.51610005966382E-02 
414	 2.53623895909325E-02 
415	 2.56075278169723E-02 
416	 2.57526982844963E-02 
417	 2.62361116578703E-02 
418	 2.67088640988037E-02 
419	 2.67369229291193E-02 
420	 2.68880538467919E-02 
421	 2.72591232084367E-02 
422	 2.76768616653014E-02 
423	 2.77867071108579E-02 
424	 2.79253507433239E-02 
425	 2.81175916232763E-02 
426	 2.83029189546817E-02 
427	 2.83264525898719E-02 
428	 2.86153468999572E-02 
429	 2.89443894748218E-02 
430	 2.89852418572734E-02 
431	 2.91938795246359E-02 
432	 2.93433335185645E-02 
433	 2.94114542642306E-02 
434	 2.95715019342114E-02 
435	 2.97376810392028E-02 
436	 0.029855150947785 
437	 2.99208116791095E-02 
438	 3.00225161384666E-02 
439	 3.01281290991025E-02 
440	 3.02094759159698E-02 
441	 3.02677160299087E-02 
442	 3.04660810078736E-02 
443	 3.05927453728747E-02 
444	 3.06729797058553E-02 
445	 3.09566224453856E-02 
446	 3.11572620256976E-02 
447	 0.031239223843237 
448	 3.12862132326167E-02 
449	 0.031560399406741 
450	 0.031770851627592 
451	 3.18883094005329E-02 
452	 3.20030438164033E-02 
453	 0.032176559457087 
454	 0.032356513688242 
455	 3.25050353831635E-02 
456	 3.26146654943722E-02 
457	 3.27027733509625E-02 
458	 3.28008264746828E-02 
459	 3.29322765028438E-02 
460	 3.31007685149609E-02 
461	 3.32150396323499E-02 
462	 3.32490552204299E-02 
463	 3.32281400749148E-02 
464	 3.32298417237034E-02 
465	 3.33638077980292E-02 
466	 3.35725591762833E-02 
467	 3.35524474735147E-02 
468	 3.35887094332553E-02 
469	 3.36350955212613E-02 
470	 3.36229337233243E-02 
471	 3.37615864830175E-02 
472	 3.39282196283765E-02 
473	 3.40459403886256E-02 
474	 3.40925545739593E-02 
475	 3.42135742251219E-02 
476	 3.43256931929393E-02 
477	 3.43915726827277E-02 
478	 3.45223799149274E-02 
479	 3.46505896656681E-02 
480	 0.034771329397819 
481	 3.48938671574945E-02 
482	 3.49900727837658E-02 
483	 3.51012814000699E-02 
484	 3.52347572493087E-02 
485	 3.53592646884553E-02 
486	 0.035423112380929 
487	 3.56013290041437E-02 
488	 0.035956749161902 
489	 3.61606485836975E-02 
490	 3.63344101475149E-02 
491	 3.65261534880301E-02 
492	 3.67420569105346E-02 
493	 3.68535667010345E-02 
494	 3.71202977285818E-02 
495	 3.75647807787512E-02 
496	 3.78879941222138E-02 
497	 3.81568798949059E-02 
498	 3.85445612218948E-02 
499	 3.91375650375969E-02 
500	 3.96391898706918E-02 
501	 4.01839467149501E-02 
502	 4.07873443102438E-02 
503	 4.13938763225354E-02 
504	 0.042007648428227 
505	 4.26731843479928E-02 
506	 4.34441390913525E-02 
507	 0.044387989078208 
508	 4.52803869562593E-02 
509	 4.62162750042544E-02 
510	 4.73311827404844E-02 
511	 0.048456428342039 
512	 4.97176602276389E-02 
513	 5.10763239192375E-02 
514	 5.23664333773414E-02 
515	 5.38138297894649E-02 
516	 5.54524952165386E-02 
517	 0.057224308111734 
518	 5.89581453724889E-02 
519	 6.08413465585787E-02 
520	 6.27230801217066E-02 
521	 6.44134287192288E-02 
522	 6.62888459396192E-02 
523	 0.068156617244908 
524	 6.99496387908761E-02 
525	 7.17616249372326E-02 
526	 7.36433382187495E-02 
527	 7.55533499570437E-02 
528	 7.74026694251142E-02 
529	 7.90317296450228E-02 
530	 8.05411160172972E-02 
531	 8.19548858201968E-02 
532	 0.083263389966272 
533	 0.084505422944469 
534	 8.57372877492648E-02 
535	 8.69070549595149E-02 
536	 8.77924665960462E-02 
537	 8.86422743826571E-02 
538	 8.94501198937106E-02 
539	 9.01688127716919E-02 
540	 9.09516996976968E-02 
541	 9.16967458832533E-02 
542	 9.23518526982487E-02 
543	 9.29228317352163E-02 
544	 9.35031315277809E-02 
545	 9.40675142436633E-02 
546	 9.46024845749098E-02 
547	 0.095179323502806 
548	 9.56659481144987E-02 
549	 9.61034580647242E-02 
550	 9.65680329432178E-02 
551	 9.68572807699477E-02 
552	 9.70854278530649E-02 
553	 9.72752416925013E-02 
554	 9.73121656493426E-02 
555	 9.72818241366876E-02 
556	 9.71903862047397E-02 
557	 9.69865519147243E-02 
558	 9.64669878049716E-02 
559	 9.60536479271609E-02 
560	 9.56572195989716E-02 
561	 9.48972769745546E-02 
562	 9.41799646093205E-02 
563	 9.33447291764681E-02 
564	 0.092360039388806 
565	 0.09156440021453 
566	 9.06895899917907E-02 
567	 8.96873013718767E-02 
568	 8.85989682798985E-02 
569	 8.75257833168447E-02 
570	 0.086374167154114 
571	 8.51825416000932E-02 
572	 8.41050845069658E-02 
573	 8.29811264393974E-02 
574	 8.19505938232947E-02 
575	 8.10826204510419E-02 
576	 8.01528312554402E-02 
577	 7.93089561179108E-02 
578	 7.85234678114823E-02 
579	 0.07772198814548 
580	 7.71439462979416E-02 
581	 7.66384636114212E-02 
582	 7.60881391277543E-02 
583	 7.54683225673929E-02 
584	 7.49031647254751E-02 
585	 7.43962633979046E-02 
586	 7.39325853706767E-02 
587	 7.35527398748088E-02 
588	 0.073244060517649 
589	 7.29268778817673E-02 
590	 7.24996310866025E-02 
591	 7.21214520299652E-02 
592	 7.18361435992578E-02 
593	 7.16274224065635E-02 
594	 7.14269687086579E-02 
595	 7.13487227030822E-02 
596	 7.12412540871275E-02 
597	 7.09428566729218E-02 
598	 7.07017716524413E-02 
599	 0.070570727704022 
600	 7.05061926124762E-02 
601	 0.0703801945005 
602	 7.01727779825412E-02 
603	 6.99052484252668E-02 
604	 6.95971642029492E-02 
605	 6.92250939230351E-02 
606	 6.87837293268869E-02 
607	 6.83191561511152E-02 
608	 6.78894461903439E-02 
609	 6.74063445206653E-02 
610	 6.68958655286586E-02 
611	 6.63973566728824E-02 
612	 6.59477893466476E-02 
613	 0.06551377899885 
614	 6.49907294695277E-02 
615	 6.43455868800207E-02 
616	 6.38653919602551E-02 
617	 6.33702253434846E-02 
618	 6.28772047589136E-02 
619	 6.25248670058261E-02 
620	 6.22281061503745E-02 
621	 6.19658658017929E-02 
622	 6.17346684675508E-02 
623	 6.15483200499414E-02 
624	 6.13906222446002E-02 
625	 6.12509375199747E-02 
626	 6.11279241356092E-02 
627	 6.10456589630843E-02 
628	 6.10499797581141E-02 
629	 6.10898828903848E-02 
630	 6.10306939779474E-02 
631	 6.10212658702303E-02 
632	 6.10256646963225E-02 
633	 6.09579099229956E-02 
634	 6.06753304261766E-02 
635	 6.04980703603517E-02 
636	 6.03424818813002E-02 
637	 5.99782043543007E-02 
638	 5.95661028148696E-02 
639	 5.91756656084144E-02 
640	 5.87525307880932E-02 
641	 5.81105326082383E-02 
642	 5.74974478297955E-02 
643	 5.69245339583394E-02 
644	 5.63535517749321E-02 
645	 5.58376786522759E-02 
646	 5.51749368917146E-02 
647	 5.45100477580214E-02 
648	 5.41543593584705E-02 
649	 5.37824143954703E-02 
650	 5.33823465629197E-02 
651	 5.30208197342765E-02 
652	 5.28082198028599E-02 
653	 5.25534943716915E-02 
654	 5.22628055706579E-02 
655	 5.19672796400731E-02 
656	 5.15705937038319E-02 
657	 5.11282138005028E-02 
658	 5.06909957139992E-02 
659	 5.02196665534671E-02 
660	 4.97469302559522E-02 
661	 4.92433868647078E-02 
662	 0.048714042207189 
663	 0.048203427514637 
664	 4.77818364042423E-02 
665	 4.73550191554221E-02 
666	 4.68502587930691E-02 
667	 4.66423158140846E-02 
668	 4.63837780598446E-02 
669	 4.60415748257468E-02 
670	 4.58774874947356E-02 
671	 4.56543626850013E-02 
672	 0.045499626570734 
673	 4.55047548670586E-02 
674	 4.55347009119975E-02 
675	 4.55466385052484E-02 
676	 4.55673592383361E-02 
677	 4.56543823912495E-02 
678	 4.58236634381957E-02 
679	 4.60001178623369E-02 
680	 4.62064382059343E-02 
681	 4.65695276153748E-02 
682	 4.71301381018566E-02 
683	 4.77172224908516E-02 
684	 4.82942445727208E-02 
685	 4.93007915298102E-02 
686	 5.03841329440492E-02 
687	 5.16674272317676E-02 
688	 5.33361640653812E-02 
689	 5.51738160537137E-02 
690	 0.057209380521298 
691	 5.95163991336101E-02 
692	 6.20390965933034E-02 
693	 6.51595552540471E-02 
694	 6.87211973423617E-02 
695	 0.072516808383789 
696	 7.66312247037002E-02 
697	 8.10407007212996E-02 
698	 8.58117817460242E-02 
699	 9.09685590426178E-02 
700	 9.61527843826076E-02 
701	 0.101543225604315 
702	 0.107169902226513 
703	 0.112807252529607 
704	 0.118298604972106 
705	 0.123783961649468 
706	 0.129446881912854 
707	 0.135221631455776 
708	 0.140997340504552 
709	 0.146831273288107 
710	 0.15279625123194 
711	 0.158752975299592 
712	 0.164763755558744 
713	 0.170943080985513 
714	 0.177437704379811 
715	 0.183799624579917 
716	 0.190205590564654 
717	 0.197030701186573 
718	 0.204093605568184 
719	 0.211504471751912 
720	 0.218801647974309 
721	 0.225518021122082 
722	 0.23193519946009 
723	 0.238503122706166 
724	 0.245603110093799 
725	 0.252674610543921 
726	 0.259464257420093 
727	 0.265975760702661 
728	 0.272416007351173 
729	 0.278704977812786 
730	 0.284789176878117 
731	 0.290690507566815 
732	 0.296423002457045 
733	 0.301537554378895 
734	 0.306544280007837 
735	 0.311587909127314 
736	 0.316322855160414 
737	 0.320814714112066 
738	 0.324962041954753 
739	 0.32884179857867 
740	 0.332772436918284 
741	 0.336240348399306 
742	 0.339360741791727 
743	 0.342384988604905 
744	 0.345233195107456 
745	 0.347929789978098 
746	 0.350390645424703 
747	 0.35248718708885 
748	 0.354610621134198 
749	 0.356648803802922 
750	 0.358467061163195 
751	 0.360011965644879 
752	 0.361470789106585 
753	 0.362791318854567 
754	 0.363930001811674 
755	 0.365125575298558 
756	 0.366219408070937 
757	 0.367230303178896 
758	 0.368300003761775 
759	 0.369441595987426 
760	 0.370981365175462 
761	 0.372906458240301 
762	 0.373920634322211 
763	 0.37381301436351 
764	 0.373615699570418 
765	 0.373787500117326 
766	 0.373623705249941 
767	 0.373657424237065 
768	 0.373850960238261 
769	 0.374050683690414 
770	 0.374313923871795 
771	 0.374585884283263 
772	 0.374870869237238 
773	 0.375212828149135 
774	 0.375443169257479 
775	 0.375688289089721 
776	 0.376006673787463 
777	 0.376271331301678 
778	 0.376376657418837 
779	 0.376548497308272 
780	 0.376949443001859 
781	 0.377188676992449 
782	 0.377461477052032 
783	 0.377778458581474 
784	 0.378053873959017 
785	 0.378275325978598 
786	 0.378562709005435 
787	 0.378887636041689 
788	 0.379069988481958 
789	 0.379424986198855 
790	 0.379717588765568 
791	 0.379840196794848 
792	 0.380169357739561 
793	 0.380488908625704 
794	 0.380730407890146 
795	 0.38091595278391 
796	 0.381232537850836 
797	 0.381517447728578 
798	 0.381754995758892 
799	 0.382013506309669 
800	 0.382237109624808 
801	 0.382503814105291 
802	 0.382789202199186 
803	 0.382963347124014 
804	 0.383404873845355 
805	 0.383784063269933 
806	 0.38386987749593 
807	 0.38389968360766 
808	 0.384235470734367 
809	 0.384624684475664 
810	 0.384781044784706 
811	 0.385187100104953 
812	 0.385481811071636 
813	 0.385670623665919 
814	 0.385966592319243 
815	 0.386317283150175 
816	 0.386638029302956 
817	 0.386901167784485 
818	 0.387154024613744 
819	 0.387418858029233 
820	 0.387542180326776 
821	 0.387593088324074 
822	 0.388051251108873 
823	 0.388303495268383 
824	 0.388524544050415 
825	 0.388892907099333 
826	 0.388941313602222 
827	 0.389089197167154 
828	 0.389332373819613 
829	 0.38949818204383 
830	 0.389582105056784 
831	 0.389762013496179 
832	 0.390030164548093 
833	 0.390247737216807 
834	 0.390497829091681 
835	 0.390803063266024 
836	 0.391144312579748 
837	 0.391461389643286 
838	 0.391614731864783 
839	 0.391769678442023 
840	 0.392054931897339 
841	 0.39241263985187 
842	 0.392637977120333 
843	 0.392704189125138 
844	 0.392724835891265 
845	 0.393027964979727 
846	 0.393500411661069 
847	 0.393811999749795 
848	 0.393718942414051 
849	 0.393895126565585 
850	 0.394290072949126 
851	 0.394680522434204 
852	 0.394798101804261 
853	 0.394903426563983 
854	 0.395079175761936 
855	 0.395448951348121 
856	 0.396121853970272 
857	 0.396235806763249 
858	 0.396368104199874 
859	 0.396737998635587 
860	 0.396630781654297 
861	 0.397149323193511 
862	 0.397595765452782 
863	 0.397409628200282 
864	 0.397540930016172 
865	 0.397785743417718 
866	 0.397983541093512 
867	 0.3980917386902 
868	 0.39855692668875 
869	 0.398854686716026 
870	 0.398979895901855 
871	 0.399180270174593 
872	 0.399526222213114 
873	 0.399785199265839 
874	 0.399983670228112 
875	 0.400321445882556 
876	 0.400713616805704 
877	 0.401091143043885 
878	 0.401377305576799 
879	 0.401494905461965 
880	 0.401321321934198 
881	 0.40146730775159 
882	 0.401997023297685 
883	 0.402135288271627 
884	 0.402200213311037 
885	 0.402447636092417 
886	 0.402810716232851 
887	 0.40266660098244 
888	 0.403064903659986 
889	 0.40376077452963 
890	 0.404230869129475 
891	 0.404163274251047 
892	 0.404221469826612 
893	 0.404492983904287 
894	 0.404776958381214 
895	 0.404582629929755 
896	 0.404930030161983 
897	 0.40543339772789 
898	 0.405411927374275 
899	 0.406025987444578 
900	 0.406440894274292 
901	 0.406657130477009 
902	 0.407004957864318 
903	 0.406789347885642 
904	 0.407028971823779 
905	 0.407597335123697 
906	 0.407698292096533 
907	 0.407541192750933 
908	 0.407818914307735 
909	 0.408373075012597 
910	 0.408410994361279 
911	 0.408657273292549 
912	 0.408543628592308 
913	 0.408289072251413 
914	 0.408846394634807 
915	 0.409632450977944 
916	 0.409753727969924 
917	 0.409492816113101 
918	 0.410244889429575 
919	 0.410164485160657 
920	 0.410217549298542 
921	 0.410747891499735 
922	 0.410810885254697 
923	 0.410470926029856 
924	 0.4104372983038 
925	 0.410778355512042 
926	 0.410428098739846 
927	 0.410017201522783 
928	 0.40988421445643 
929	 0.410160120807111 
930	 0.410649400009404 
931	 0.410385658239949 
932	 0.409199912976072 
933	 0.407868389992976 
934	 0.408372669245447 
935	 0.408312553838673 
936	 0.408734843842576 
937	 0.409887261095443 
938	 0.408932717888674 
939	 0.409126048906692 
940	 0.409487031427574 
941	 0.409190133709496 
942	 0.409526440772621 
943	 0.408105588226278 
944	 0.40675633163023 
945	 0.406884382930375 
946	 0.406597335757955 
947	 0.406719410516072 
948	 0.406322126891541 
949	 0.405455083809579 
950	 0.406925948503008 
951	 0.405225743142568 
952	 0.404130961910948 
953	 0.405889659359133 
954	 0.404937454112963 
955	 0.403299929144581 
956	 0.402776684471734 
957	 0.40339627008678 
958	 0.401971157502141 
959	 0.401237478805769 
960	 0.401229004231934 
961	 0.401557710298453 
962	 0.402288242507903 
963	 0.401469327761523 
964	 0.401059665582325 
965	 0.401919790192949 
966	 0.401721894425087 
967	 0.401781762508846 
968	 0.401611132122292 
969	 0.401383977876135 
970	 0.40261582872537 
971	 0.401725122401021 
972	 0.400653389467488 
973	 0.401181595098953 
974	 0.402949490315555 
975	 0.402204987423518 
976	 0.401964317900836 
977	 0.403238596567215 
978	 0.403024635496229 
979	 0.403110151089203 
980	 0.402947385714135 
981	 0.402901759888674 
982	 0.404289218439631 
983	 0.40463012923429 
984	 0.404816126516016 
985	 0.405227780562191 
986	 0.405353502036015 
987	 0.404925840491533 
988	 0.405217584137421 
989	 0.405788325177118 
990	 0.405284029122741 
991	 0.406052461031883 
992	 0.406967792240405 
993	 0.407517805748227 
994	 0.407800191625399 
995	 0.407834603355929 
996	 0.408143701338566 
997	 0.408580686446868 
998	 0.408607050811579 
999	 0.407710051447892 
1000	 0.406720412137123 
1001	 0.412747463620671 
1002	 0.413177194469411 
1003	 0.413612523194691 
1004	 0.413999969019854 
1005	 0.414387077791356 
1006	 0.414646340705885 
1007	 0.415091892481543 
1008	 0.415692865932484 
1009	 0.416124156687335 
1010	 0.416528136360402 
1011	 0.417029766071556 
1012	 0.417236380273492 
1013	 0.417603896736996 
1014	 0.418079011056842 
1015	 0.418326522844028 
1016	 0.41886388953067 
1017	 0.419455823494226 
1018	 0.419876146806979 
1019	 0.420255675090885 
1020	 0.420727335868511 
1021	 0.421111705636248 
1022	 0.42145996531268 
1023	 0.421861985870725 
1024	 0.422313306013798 
1025	 0.422543821667031 
1026	 0.422854151569171 
1027	 0.423300890750391 
1028	 0.423698352055814 
1029	 0.424226837050652 
1030	 0.424649328081534 
1031	 0.425016170556243 
1032	 0.425555910095177 
1033	 0.42592705023684 
1034	 0.426100988608874 
1035	 0.426486596775387 
1036	 0.426907538115815 
1037	 0.427255487393993 
1038	 0.427680662988456 
1039	 0.42809621373739 
1040	 0.428305012522186 
1041	 0.428681527934559 
1042	 0.428933133984777 
1043	 0.429167926945908 
1044	 0.429587661774866 
1045	 0.42982218380813 
1046	 0.430079662419325 
1047	 0.430409872090649 
1048	 0.430536724879033 
1049	 0.430712206392121 
1050	 0.430985861416907 
1051	 0.431330350269736 
1052	 0.431639415991157 
1053	 0.431962921524914 
1054	 0.432359283223483 
1055	 0.432611908758543 
1056	 0.432729349483042 
1057	 0.432972982709837 
1058	 0.433058849821256 
1059	 0.433077234585678 
1060	 0.433240599687862 
1061	 0.433332289144997 
1062	 0.433471841215698 
1063	 0.433732334702868 
1064	 0.433975532311497 
1065	 0.434140784414358 
1066	 0.434307643391151 
1067	 0.434412463228112 
1068	 0.434480163119099 
1069	 0.434582200089039 
1070	 0.434770617139213 
1071	 0.435033636579967 
1072	 0.435124651373693 
1073	 0.435180255616308 
1074	 0.435292614028807 
1075	 0.435210066975983 
1076	 0.435251825676858 
1077	 0.435273695883341 
1078	 0.435192211907568 
1079	 0.435310110519551 
1080	 0.435412810780614 
1081	 0.435454945291959 
1082	 0.435489263142866 
1083	 0.435527022920254 
1084	 0.43547463129756 
1085	 0.435384204466826 
1086	 0.43539977173106 
1087	 0.435429673252361 
1088	 0.435376368201916 
1089	 0.435382790166293 
1090	 0.435492358571423 
1091	 0.435547096640045 
1092	 0.43558694952087 
1093	 0.435734476784528 
1094	 0.435838521565268 
1095	 0.435920347009355 
1096	 0.435941080766602 
1097	 0.43591730520282 
1098	 0.43592961830772 
1099	 0.435905645855523 
1100	 0.435850156685369 
1101	 0.435865650821186 
1102	 0.4359665418735 
1103	 0.435808627976136 
1104	 0.435694428463412 
1105	 0.43582694804678 
1106	 0.435763516018806 
1107	 0.435706671108849 
1108	 0.435757012735205 
1109	 0.435688671603374 
1110	 0.435609908165655 
1111	 0.435617839661241 
1112	 0.435882651245635 
1113	 0.435930307589423 
1114	 0.435838153173524 
1115	 0.435746899537801 
1116	 0.435584555688449 
1117	 0.435330938016639 
1118	 0.435164555341393 
1119	 0.435254906409413 
1120	 0.435357381262937 
1121	 0.435353026262211 
1122	 0.435230901565667 
1123	 0.435044110710831 
1124	 0.434820979081228 
1125	 0.43450184554023 
1126	 0.434051597656732 
1127	 0.433473176943121 
1128	 0.432886164899032 
1129	 0.432296502128118 
1130	 0.431518261987028 
1131	 0.430792898038547 
1132	 0.429831014908335 
1133	 0.428632114367469 
1134	 0.427484832149405 
1135	 0.426246893825935 
1136	 0.425087324699119 
1137	 0.424212174783089 
1138	 0.423141092071615 
1139	 0.422044564696588 
1140	 0.420887235550851 
1141	 0.419408729631105 
1142	 0.418066421457941 
1143	 0.416851701107337 
1144	 0.415767328948439 
1145	 0.414576752372539 
1146	 0.413461255026916 
1147	 0.412237269704319 
1148	 0.41093035691256 
1149	 0.40969138235427 
1150	 0.408476601372195 
1151	 0.407417705530542 
1152	 0.406470633305389 
1153	 0.4055312083 
1154	 0.404785250605198 
1155	 0.404212209637648 
1156	 0.403761838152154 
1157	 0.4033869058486 
1158	 0.40294448467102 
1159	 0.402549502833185 
1160	 0.402237853459959 
1161	 0.401914509418236 
1162	 0.401695995592928 
1163	 0.401563961501666 
1164	 0.401460042333725 
1165	 0.401421928237142 
1166	 0.401345619824709 
1167	 0.4012709081446 
1168	 0.401274841039472 
1169	 0.401298277225832 
1170	 0.401302049174447 
1171	 0.401444516451408 
1172	 0.401592816301812 
1173	 0.401636539243953 
1174	 0.401670284772867 
1175	 0.401713929727793 
1176	 0.401766088708432 
1177	 0.401831226083416 
1178	 0.401940774655217 
1179	 0.402022597424323 
1180	 0.402117901399489 
1181	 0.402155108963091 
1182	 0.402133889446465 
1183	 0.402175109996464 
1184	 0.40221906209291 
1185	 0.4022525487837 
1186	 0.402347916876018 
1187	 0.402399608432804 
1188	 0.402464591274896 
1189	 0.402353219176533 
1190	 0.402343434386154 
1191	 0.402409465331724 
1192	 0.402432242669302 
1193	 0.402581709258997 
1194	 0.402671236941487 
1195	 0.402719591596572 
1196	 0.402860603888991 
1197	 0.403057217689094 
1198	 0.40322373655679 
1199	 0.403485448853441 
1200	 0.403658947753842 
1201	 0.403707033127696 
1202	 0.403871139329933 
1203	 0.404069963985478 
1204	 0.404267005663772 
1205	 0.404557571065014 
1206	 0.404783482666286 
1207	 0.404920899741969 
1208	 0.405119408120017 
1209	 0.40538077764172 
1210	 0.405525113387431 
1211	 0.405740045598374 
1212	 0.406104519379838 
1213	 0.406359148723747 
1214	 0.406615768554945 
1215	 0.406837995652694 
1216	 0.406988353247124 
1217	 0.407214057640257 
1218	 0.407443797580513 
1219	 0.407704538593226 
1220	 0.408062626948195 
1221	 0.408317131242042 
1222	 0.408524837392138 
1223	 0.408753313283459 
1224	 0.408921489141263 
1225	 0.409133072377557 
1226	 0.409355993775083 
1227	 0.409626962030302 
1228	 0.409918053860513 
1229	 0.410266414997417 
1230	 0.410633749667983 
1231	 0.410893184392071 
1232	 0.411124634912826 
1233	 0.411265396478709 
1234	 0.411486177207776 
1235	 0.41167798527128 
1236	 0.4119431689403 
1237	 0.412291121744836 
1238	 0.41257030347461 
1239	 0.412840157045355 
1240	 0.413143493028726 
1241	 0.413463521197575 
1242	 0.413734151468276 
1243	 0.414037221767806 
1244	 0.414282117735876 
1245	 0.414394871150757 
1246	 0.414607864130422 
1247	 0.414865617551433 
1248	 0.415116032192277 
1249	 0.415468086109352 
1250	 0.415717917659287 
1251	 0.415922415132152 
1252	 0.416057190663863 
1253	 0.416244882017052 
1254	 0.41638686616664 
1255	 0.416572506166384 
1256	 0.416801413477701 
1257	 0.417035322437991 
1258	 0.417298557708419 
1259	 0.417492818418287 
1260	 0.417676344012049 
1261	 0.417870687436259 
1262	 0.418021245273358 
1263	 0.418166632531071 
1264	 0.418343095814176 
1265	 0.418494935000586 
1266	 0.41861561398025 
1267	 0.418692972537189 
1268	 0.418767402801741 
1269	 0.418806980416189 
1270	 0.418735312507686 
1271	 0.418721353329407 
1272	 0.418717329446255 
1273	 0.41874686981475 
1274	 0.418743097995435 
1275	 0.418750713400901 
1276	 0.418735734887169 
1277	 0.418731805230552 
1278	 0.41863085036319 
1279	 0.418488351625426 
1280	 0.418330421605316 
1281	 0.418061953415784 
1282	 0.417884734672441 
1283	 0.417774871428848 
1284	 0.417593526218874 
1285	 0.417420588744118 
1286	 0.417197674057581 
1287	 0.416894893518946 
1288	 0.416631160047866 
1289	 0.416409957365531 
1290	 0.416102898012392 
1291	 0.415747584741491 
1292	 0.415398016082822 
1293	 0.415007404843459 
1294	 0.414584041608729 
1295	 0.414179644507468 
1296	 0.413727643504425 
1297	 0.413191689288875 
1298	 0.412536431664619 
1299	 0.411976540413806 
1300	 0.41140877565973 
1301	 0.410811902937875 
1302	 0.41024127949289 
1303	 0.409625086546401 
1304	 0.408969673993631 
1305	 0.40826164890222 
1306	 0.407505758832511 
1307	 0.406776207345899 
1308	 0.406021843026862 
1309	 0.405217925942131 
1310	 0.404406649828141 
1311	 0.403590469177277 
1312	 0.402743308335064 
1313	 0.401831174509884 
1314	 0.400931849300567 
1315	 0.399977945107986 
1316	 0.398912947834067 
1317	 0.397846229442058 
1318	 0.396746387738355 
1319	 0.395661399310025 
1320	 0.39451129244581 
1321	 0.393417313981634 
1322	 0.392299329855479 
1323	 0.391211458785741 
1324	 0.390019938723756 
1325	 0.388739000107464 
1326	 0.387488466088348 
1327	 0.386149136008993 
1328	 0.384865670188627 
1329	 0.383649779680095 
1330	 0.382306652975268 
1331	 0.380925481430992 
1332	 0.379520994678365 
1333	 0.378035224105443 
1334	 0.376611338116847 
1335	 0.375171561719323 
1336	 0.373816902741928 
1337	 0.372392897709813 
1338	 0.37116550517136 
1339	 0.370023584588942 
1340	 0.368961569140497 
1341	 0.368040949969789 
1342	 0.367100037704494 
1343	 0.366079384472068 
1344	 0.365137126928628 
1345	 0.364251281275642 
1346	 0.363169974079671 
1347	 0.36237370638025 
1348	 0.361571425495104 
1349	 0.360792330286234 
1350	 0.36028515415098 
1351	 0.359568066925877 
1352	 0.358985852144433 
1353	 0.358270705856501 
1354	 0.357886385352074 
1355	 0.356861232231331 
1356	 0.355371703427556 
1357	 0.354431808655487 
1358	 0.355357028114032 
1359	 0.354420060719882 
1360	 0.354176601455287 
1361	 0.356135656298386 
1362	 0.358779583276152 
1363	 0.35976642386971 
1364	 0.368671132964418 
1365	 0.369740948287165 
1366	 0.359464687021549 
1367	 0.349292233752827 
1368	 0.339409237693237 
1369	 0.334361889681585 
1370	 0.33000693712676 
1371	 0.325524925909285 
1372	 0.321156558629714 
1373	 0.320009502322082 
1374	 0.320366496671536 
1375	 0.31914736290455 
1376	 0.316942335172074 
1377	 0.319032674889238 
1378	 0.316261122765595 
1379	 0.310678729838394 
1380	 0.302512802431546 
1381	 0.290305905358268 
1382	 0.28389368445936 
1383	 0.278013291352394 
1384	 0.271958609125326 
1385	 0.272647153591321 
1386	 0.265452157591615 
1387	 0.253984893339231 
1388	 0.246299187709243 
1389	 0.237727196451062 
1390	 0.232719762457817 
1391	 0.230566923806979 
1392	 0.226071816158384 
1393	 0.223277881642469 
1394	 0.217580975887063 
1395	 0.207868557198464 
1396	 0.202063704132053 
1397	 0.196646588616061 
1398	 0.192118975033221 
1399	 0.190486610052945 
1400	 0.187108763087876 
1401	 0.182780236899473 
1402	 0.179054985453321 
1403	 0.175958081599048 
1404	 0.172102690772963 
1405	 0.167982519858845 
1406	 0.164834018505317 
1407	 0.161225301396851 
1408	 0.15794883807737 
1409	 0.155555502972047 
1410	 0.153797956319793 
1411	 0.15226345331558 
1412	 0.15137500197732 
1413	 0.149503777956798 
1414	 0.147507616774961 
1415	 0.145876011659548 
1416	 0.143921265679903 
1417	 0.142622271889616 
1418	 0.141862146830467 
1419	 0.140784216376302 
1420	 0.139519845639298 
1421	 0.138658320071835 
1422	 0.138109654901769 
1423	 0.13722538466401 
1424	 0.136302531995171 
1425	 0.135499170299024 
1426	 0.134242838003726 
1427	 0.133631079150003 
1428	 0.133536605026912 
1429	 0.133199127889295 
1430	 0.133081376092014 
1431	 0.132743246331383 
1432	 0.1319610244422 
1433	 0.131642340906218 
1434	 0.131744757336191 
1435	 0.131391729639749 
1436	 0.130904884797958 
1437	 0.130636334833715 
1438	 0.130061990151741 
1439	 0.129782468392055 
1440	 0.130058904881877 
1441	 0.130058372196415 
1442	 0.130135876666397 
1443	 0.129770191356486 
1444	 0.129550986356578 
1445	 0.129344389989691 
1446	 0.12914998671476 
1447	 0.129295948437626 
1448	 0.129315513929161 
1449	 0.129380922063368 
1450	 0.129490564074587 
1451	 0.129592380798731 
1452	 0.129741324838535 
1453	 0.129951271521609 
1454	 0.130150043618885 
1455	 0.13038512999113 
1456	 0.130545793511004 
1457	 0.130641297305849 
1458	 0.130884585666932 
1459	 0.131205047297453 
1460	 0.131454832009972 
1461	 0.131791960670261 
1462	 0.13210825371492 
1463	 0.132263255968086 
1464	 0.132649617051565 
1465	 0.133217943444708 
1466	 0.13383964748793 
1467	 0.134641649943125 
1468	 0.135373975380143 
1469	 0.136059526034212 
1470	 0.136883001729601 
1471	 0.137646636147394 
1472	 0.138532401791592 
1473	 0.139586550437882 
1474	 0.140513791498402 
1475	 0.141337986523447 
1476	 0.142256179113766 
1477	 0.143069735669827 
1478	 0.144066503413791 
1479	 0.145242251401111 
1480	 0.14632652636732 
1481	 0.147383077713689 
1482	 0.148508423562142 
1483	 0.14963035199053 
1484	 0.150737626869196 
1485	 0.151881880743883 
1486	 0.153021997393786 
1487	 0.154086071182001 
1488	 0.155180102167995 
1489	 0.156299459011266 
1490	 0.157395687217792 
1491	 0.158492596538364 
1492	 0.159576975575368 
1493	 0.160648819781655 
1494	 0.161743355045545 
1495	 0.162898674859441 
1496	 0.164114439868476 
1497	 0.165267079588096 
1498	 0.166485298679595 
1499	 0.167640997685656 
1500	 0.168711979860408 
1501	 0.169943002235526 
1502	 0.171260560818281 
1503	 0.172566204587226 
1504	 0.173942696793731 
1505	 0.175277682492485 
1506	 0.176614943280056 
1507	 0.177880879820737 
1508	 0.179117016312322 
1509	 0.180364719460787 
1510	 0.181525549471237 
1511	 0.182807068642334 
1512	 0.184169250579208 
1513	 0.185500604486657 
1514	 0.186927601390825 
1515	 0.18820581859107 
1516	 0.189393792328693 
1517	 0.190659611723788 
1518	 0.191870395463245 
1519	 0.193161381006023 
1520	 0.1945837091758 
1521	 0.195898569275095 
1522	 0.197171392703687 
1523	 0.198463810736825 
1524	 0.199754214832757 
1525	 0.201016684821144 
1526	 0.202243633598668 
1527	 0.203538209584915 
1528	 0.204899420740509 
1529	 0.206152599442944 
1530	 0.207393678690231 
1531	 0.208646173950877 
1532	 0.209795548169793 
1533	 0.211003055294401 
1534	 0.212308553518661 
1535	 0.213558516021001 
1536	 0.214750585199833 
1537	 0.215988982943152 
1538	 0.217305342912232 
1539	 0.218516252780818 
1540	 0.219685560932168 
1541	 0.220839719222614 
1542	 0.221825311849398 
1543	 0.222979231002446 
1544	 0.22429082085402 
1545	 0.225513782030415 
1546	 0.22685243554571 
1547	 0.228038574900249 
1548	 0.228992670642181 
1549	 0.230087708004521 
1550	 0.2311917849963 
1551	 0.232315614147161 
1552	 0.233618897925905 
1553	 0.234767088914673 
1554	 0.235790706789307 
1555	 0.236842590841063 
1556	 0.237775376343351 
1557	 0.238800847116714 
1558	 0.239966967450391 
1559	 0.241028903713962 
1560	 0.242029059579276 
1561	 0.243086645519961 
1562	 0.244132181985343 
1563	 0.245162195094802 
1564	 0.246201573655309 
1565	 0.247352672511713 
1566	 0.248382244888593 
1567	 0.249282176310004 
1568	 0.250331301613014 
1569	 0.251441476854414 
1570	 0.252425936736931 
1571	 0.253427106424399 
1572	 0.254366092880526 
1573	 0.255125795121392 
1574	 0.256133659299381 
1575	 0.25728027872938 
1576	 0.25824767523725 
1577	 0.259228032872969 
1578	 0.260151034389817 
1579	 0.260921126997983 
1580	 0.261807418804446 
1581	 0.262790284182754 
1582	 0.263605248115285 
1583	 0.264321157512996 
1584	 0.265140965717214 
1585	 0.265920651328016 
1586	 0.266756114525535 
1587	 0.267702319746467 
1588	 0.268540570083821 
1589	 0.2693229923047 
1590	 0.27014029899646 
1591	 0.270966226966006 
1592	 0.271758762027053 
1593	 0.272545723909877 
1594	 0.273321572426509 
1595	 0.274069118280778 
1596	 0.274829988094488 
1597	 0.275577174374523 
1598	 0.276386231951495 
1599	 0.27725983972065 
1600	 0.278013158657251 
1601	 0.27878296059929 
1602	 0.27947208826543 
1603	 0.279995724779823 
1604	 0.280680972502201 
1605	 0.281421136967565 
1606	 0.282126374048524 
1607	 0.282873307179557 
1608	 0.283566970339542 
1609	 0.284202196598163 
1610	 0.284898024606319 
1611	 0.285641394171299 
1612	 0.286278347664266 
1613	 0.286913819014741 
1614	 0.28746335242289 
1615	 0.287871021081017 
1616	 0.288402527831854 
1617	 0.288906461923375 
1618	 0.289515004707388 
1619	 0.290237025521783 
1620	 0.290888519563358 
1621	 0.291612712081249 
1622	 0.292200391461482 
1623	 0.292723043686185 
1624	 0.293182844948836 
1625	 0.293513411578913 
1626	 0.293973730860773 
1627	 0.294443722490105 
1628	 0.294904211221212 
1629	 0.295418389614433 
1630	 0.295926019473582 
1631	 0.296423020237035 
1632	 0.296907949610568 
1633	 0.297444583045735 
1634	 0.29789152812885 
1635	 0.298238509291808 
1636	 0.298661959565479 
1637	 0.299124546489222 
1638	 0.299507023487255 
1639	 0.299869154079161 
1640	 0.300242950078043 
1641	 0.300521669460355 
1642	 0.300962497801578 
1643	 0.301532965626911 
1644	 0.301941086903306 
1645	 0.302329552110087 
1646	 0.302735115147968 
1647	 0.303076213254242 
1648	 0.303449935462061 
1649	 0.303875619061062 
1650	 0.304269908825525 
1651	 0.304627945122045 
1652	 0.304939805453935 
1653	 0.305301391799016 
1654	 0.305496459788318 
1655	 0.305559589020899 
1656	 0.305643361595485 
1657	 0.30561261330182 
1658	 0.305825651510237 
1659	 0.306048365978382 
1660	 0.306246567837022 
1661	 0.306360731287334 
1662	 0.306437933143863 
1663	 0.306455437205083 
1664	 0.306517054482561 
1665	 0.306683691814271 
1666	 0.306719366206385 
1667	 0.306741371398102 
1668	 0.306860682840177 
1669	 0.306904635300744 
1670	 0.307044537218155 
1671	 0.307218739591266 
1672	 0.30729244167171 
1673	 0.307423616572946 
1674	 0.307396704472704 
1675	 0.307153956879318 
1676	 0.307014676005627 
1677	 0.306947948556894 
1678	 0.306988736231125 
1679	 0.307129552277319 
1680	 0.307090607070437 
1681	 0.307072866304076 
1682	 0.307064224571911 
1683	 0.306953348851192 
1684	 0.306853408808954 
1685	 0.306628398898455 
1686	 0.306331848822124 
1687	 0.306058237864896 
1688	 0.305904487263756 
1689	 0.305904395142214 
1690	 0.305965418732403 
1691	 0.305863836593094 
1692	 0.305670022144226 
1693	 0.305424746568782 
1694	 0.304946618179112 
1695	 0.304686326885198 
1696	 0.304593955784915 
1697	 0.304357268875447 
1698	 0.304176057713847 
1699	 0.303917709211448 
1700	 0.303470753900833 
1701	 0.303173065430137 
1702	 0.302999599296767 
1703	 0.30270097385893 
1704	 0.302347315479367 
1705	 0.302004521858464 
1706	 0.30163044419805 
1707	 0.301207708559445 
1708	 0.300759450832988 
1709	 0.300396709828915 
1710	 0.299965421817437 
1711	 0.299644243784923 
1712	 0.299545630613216 
1713	 0.29923681734989 
1714	 0.298819420860207 
1715	 0.298424374876304 
1716	 0.298014842914946 
1717	 0.297556149688553 
1718	 0.297030994890359 
1719	 0.296551496230713 
1720	 0.295997375976677 
1721	 0.295505131384986 
1722	 0.295099515160956 
1723	 0.294704613068519 
1724	 0.294418217810486 
1725	 0.293903215202079 
1726	 0.293250126345704 
1727	 0.292701784973335 
1728	 0.291973129798668 
1729	 0.291483173203149 
1730	 0.291270303322482 
1731	 0.290876055574968 
1732	 0.290407642929619 
1733	 0.289834625990116 
1734	 0.289239024551404 
1735	 0.288708409031435 
1736	 0.288191484380742 
1737	 0.287626204687113 
1738	 0.286958692070111 
1739	 0.286249329877741 
1740	 0.285620634591336 
1741	 0.285119603520339 
1742	 0.28465722086749 
1743	 0.284064627264958 
1744	 0.283300495244416 
1745	 0.282328722497949 
1746	 0.281332101404867 
1747	 0.280435794041673 
1748	 0.279590845958754 
1749	 0.278882002882344 
1750	 0.278190490245342 
1751	 0.277423925549195 
1752	 0.276620421869184 
1753	 0.275876191920855 
1754	 0.275071918833094 
1755	 0.274266222467112 
1756	 0.273615533151699 
1757	 0.272771462797095 
1758	 0.271956045643738 
1759	 0.271027252648651 
1760	 0.270184877665229 
1761	 0.269458371902358 
1762	 0.268721162193036 
1763	 0.268070337670751 
1764	 0.267345384782945 
1765	 0.266422253798496 
1766	 0.265699545079163 
1767	 0.265102635009829 
1768	 0.264507068059043 
1769	 0.264123788405445 
1770	 0.263554248046251 
1771	 0.262832503941547 
1772	 0.2621222702563 
1773	 0.261274568878205 
1774	 0.261080754639073 
1775	 0.260610382739402 
1776	 0.260401231395238 
1777	 0.260096740737159 
1778	 0.259528764689083 
1779	 0.259186284645456 
1780	 0.258939427423065 
1781	 0.258740978664072 
1782	 0.258407901389822 
1783	 0.258106902851248 
1784	 0.257680249779067 
1785	 0.257134284139786 
1786	 0.256934287576716 
1787	 0.25689051213105 
1788	 0.256866632068154 
1789	 0.256881646594148 
1790	 0.257001806052033 
1791	 0.256932861154629 
1792	 0.257031208194656 
1793	 0.257540907653329 
1794	 0.257471890414661 
1795	 0.257192392853922 
1796	 0.257241738045647 
1797	 0.257144395620355 
1798	 0.25719906556883 
1799	 0.25755495155587 
1800	 0.258175366992352 
1801	 0.25818999789949 
1802	 0.257438805374198 
1803	 0.257418715220542 
1804	 0.25788092137792 
1805	 0.257477777064647 
1806	 0.256126138733695 
1807	 0.25583832986796 
1808	 0.25487238515326 
1809	 0.254934348492017 
1810	 0.256378496709978 
1811	 0.261709472893859 
1812	 0.262629289504255 
1813	 0.262270049767197 
1814	 0.262082674752074 
1815	 0.257020753676047 
1816	 0.255623331076758 
1817	 0.259307177325954 
1818	 0.259739608829529 
1819	 0.259382354382065 
1820	 0.258359841695786 
1821	 0.257870607528651 
1822	 0.2527603786757 
1823	 0.253415537746665 
1824	 0.262107861933858 
1825	 0.26599890972037 
1826	 0.269915942600083 
1827	 0.275891135149563 
1828	 0.282595370327806 
1829	 0.288454874195404 
1830	 0.291222935695093 
1831	 0.293834385298718 
1832	 0.297778587802533 
1833	 0.281378288218361 
1834	 0.279415982669677 
1835	 0.310190708303652 
1836	 0.32551008712055 
1837	 0.329924428710645 
1838	 0.336505744692181 
1839	 0.335987952388199 
1840	 0.331547991163055 
1841	 0.294672019487903 
1842	 0.222360516140068 
1843	 0.208396776781456 
1844	 0.175442060276253 
1845	 0.187103953407543 
1846	 0.302938163773649 
1847	 0.344964885812263 
1848	 0.367381406870466 
1849	 0.382355971986769 
1850	 0.362744469790708 
1851	 0.261829040873347 
1852	 0.233442276012573 
1853	 0.218667167977704 
1854	 0.217467710166001 
1855	 0.241370958697955 
1856	 0.258628565002815 
1857	 0.27635146437187 
1858	 0.308101279758151 
1859	 0.308329986061817 
1860	 0.310791212062076 
1861	 0.293629273164386 
1862	 0.241735524790528 
1863	 0.212345042864827 
1864	 0.156388227599924 
1865	 0.139628505908946 
1866	 0.151634913734513 
1867	 0.174667519886978 
1868	 0.199100266619521 
1869	 0.21455755951775 
1870	 0.215185533546421 
1871	 0.176433254523373 
1872	 0.162249468297459 
1873	 0.158843372007144 
1874	 0.150944717374911 
1875	 0.144179382888966 
1876	 0.144618150577957 
1877	 0.155814338824731 
1878	 0.148274858401599 
1879	 0.142827766308946 
1880	 0.136823300544923 
1881	 0.134107387352077 
1882	 0.127281306236174 
1883	 0.124989888728842 
1884	 0.131467554852962 
1885	 0.128177208275719 
1886	 0.118735494113678 
1887	 0.113771626346644 
1888	 0.106413210665601 
1889	 9.63966920199566E-02 
1890	 9.18651192342716E-02 
1891	 0.09204495767867 
1892	 9.07699885293211E-02 
1893	 8.94045324551342E-02 
1894	 8.86681868777335E-02 
1895	 8.35277552038324E-02 
1896	 8.55870650375646E-02 
1897	 9.32906860950083E-02 
1898	 0.112556596701829 
1899	 0.130893211870468 
1900	 0.135769757133083 
1901	 0.129870936250512 
1902	 9.07416398903378E-02 
1903	 6.83443388656002E-02 
1904	 1.87672117699255E-02 
1905	 1.82392630883504E-02 
1906	 5.53887973702013E-02 
1907	 9.20212377205065E-02 
1908	 0.118877870784468 
1909	 0.134004078985462 
1910	 0.121517536299341 
1911	 0.102950679692362 
1912	 9.41582547315693E-02 
1913	 9.19422579200596E-02 
1914	 0.083048168955172 
1915	 0.072000985112052 
1916	 6.57710600835343E-02 
1917	 5.69679860723866E-02 
1918	 0.055410633394476 
1919	 5.67412074658682E-02 
1920	 5.99716385150884E-02 
1921	 6.19203170468586E-02 
1922	 6.17220251596012E-02 
1923	 6.06297145922117E-02 
1924	 5.73475350181751E-02 
1925	 5.47666465865415E-02 
1926	 5.16054190589713E-02 
1927	 5.05518617686244E-02 
1928	 4.96875299879746E-02 
1929	 4.93882003526273E-02 
1930	 5.28873351169992E-02 
1931	 5.22103750831626E-02 
1932	 5.21734488858088E-02 
1933	 5.38505753690136E-02 
1934	 5.41658704374154E-02 
1935	 5.42538658739085E-02 
1936	 5.35323723504589E-02 
1937	 5.18947244824884E-02 
1938	 5.07768080993579E-02 
1939	 4.83181769595135E-02 
1940	 4.88438880119333E-02 
1941	 4.87995019885588E-02 
1942	 4.88807473560135E-02 
1943	 5.20143194142323E-02 
1944	 5.36382713029407E-02 
1945	 5.49710513888785E-02 
1946	 5.66422743690799E-02 
1947	 0.057318248136144 
1948	 5.64415352081177E-02 
1949	 0.056214518904309 
1950	 5.56793051089348E-02 
1951	 5.62469310727858E-02 
1952	 5.62671825071425E-02 
1953	 5.49546633926546E-02 
1954	 5.56738715883039E-02 
1955	 0.05695048265084 
1956	 5.76039726795016E-02 
1957	 0.059411424080427 
1958	 6.02983535008911E-02 
1959	 6.02557888527183E-02 
1960	 6.02451913198963E-02 
1961	 6.02540454975705E-02 
1962	 6.00834532866166E-02 
1963	 5.97240777122471E-02 
1964	 5.99818951945129E-02 
1965	 5.98247872821344E-02 
1966	 6.00438407944431E-02 
1967	 6.11036967894754E-02 
1968	 6.15726890352796E-02 
1969	 6.18869618263967E-02 
1970	 6.23600652775761E-02 
1971	 6.28342134028747E-02 
1972	 6.29605903292041E-02 
1973	 6.32638218583319E-02 
1974	 6.39400086453888E-02 
1975	 6.42668798392939E-02 
1976	 6.46548322159787E-02 
1977	 0.065095418413538 
1978	 6.54336633943904E-02 
1979	 6.61299400012164E-02 
1980	 6.69374286696646E-02 
1981	 6.75458095422414E-02 
1982	 6.80400178740822E-02 
1983	 6.86078419415055E-02 
1984	 0.069007334491519 
1985	 6.90962925032367E-02 
1986	 6.95802329571991E-02 
1987	 7.01321568380567E-02 
1988	 0.07033358317653 
1989	 7.07651601204719E-02 
1990	 7.10635694211437E-02 
1991	 7.11460385651451E-02 
1992	 7.15723022624004E-02 
1993	 7.22010839110444E-02 
1994	 7.27106404766762E-02 
1995	 7.31491234434756E-02 
1996	 7.35969475644169E-02 
1997	 0.074250590530766 
1998	 0.07477816141531 
1999	 7.52600363402207E-02 
2000	 7.68056622305893E-02 
2001	 7.81507778645243E-02 
2002	 7.86919032829466E-02 
2003	 7.94199835971713E-02 
2004	 7.95306587487642E-02 
2005	 7.98757531698591E-02 
2006	 0.080179647093093 
2007	 8.08134447366579E-02 
2008	 8.09727587666112E-02 
2009	 8.13615956151508E-02 
2010	 8.17061607757489E-02 
2011	 0.081667412041073 
2012	 8.27606790963302E-02 
2013	 8.33722365206475E-02 
2014	 8.35856454470132E-02 
2015	 8.51364788960226E-02 
2016	 8.63207888371678E-02 
2017	 8.78525940332585E-02 
2018	 8.90862659526245E-02 
2019	 8.98135316656111E-02 
2020	 9.01795974023753E-02 
2021	 9.05121057041808E-02 
2022	 9.03839066399941E-02 
2023	 0.090952219027684 
2024	 9.22899099404135E-02 
2025	 9.31678682292381E-02 
2026	 9.36428278895526E-02 
2027	 9.38901209827062E-02 
2028	 9.35770718378493E-02 
2029	 9.35838440270415E-02 
2030	 9.42520452334648E-02 
2031	 9.49794143310231E-02 
2032	 9.56280884656415E-02 
2033	 9.64049061094454E-02 
2034	 9.70283290055775E-02 
2035	 9.74563593062508E-02 
2036	 9.80292213172924E-02 
2037	 9.86081811625537E-02 
2038	 9.92419250888358E-02 
2039	 9.97574370944791E-02 
2040	 0.100020303808279 
2041	 0.100566662181276 
2042	 0.101158628043685 
2043	 0.101612177576525 
2044	 0.102091894121317 
2045	 0.102639938143287 
2046	 0.103100887014216 
2047	 0.103514121176498 
2048	 0.104194901828929 
2049	 0.105064725236777 
2050	 0.105608638944077 
2051	 0.105964634405458 
2052	 0.106586948900666 
2053	 0.107308083962341 
2054	 0.108203663855423 
2055	 0.109361305546266 
2056	 0.110033816576699 
2057	 0.110414493072552 
2058	 0.110842361182731 
2059	 0.111143153768262 
2060	 0.11122880014171 
2061	 0.111215905052789 
2062	 0.11119686435885 
2063	 0.111487543719192 
2064	 0.111869213313658 
2065	 0.112583680037441 
2066	 0.113795353598127 
2067	 0.114990843876692 
2068	 0.115832459783735 
2069	 0.116189133470608 
2070	 0.116627063212736 
2071	 0.117084012449192 
2072	 0.117611301801398 
2073	 0.118119098966041 
2074	 0.119101540351371 
2075	 0.119871444819562 
2076	 0.120202514434883 
2077	 0.120527766619734 
2078	 0.121128693972133 
2079	 0.121601031281342 
2080	 0.121774906343556 
2081	 0.122173726082246 
2082	 0.12235068348427 
2083	 0.122417210463203 
2084	 0.123277281857764 
2085	 0.124450086616019 
2086	 0.125394145336091 
2087	 0.126176006137389 
2088	 0.127017232797081 
2089	 0.127630644221455 
2090	 0.127955097900884 
2091	 0.128494946968262 
2092	 0.12935499988797 
2093	 0.129701500688957 
2094	 0.129986066051091 
2095	 0.130767615569776 
2096	 0.131215974789309 
2097	 0.131842631797282 
2098	 0.132819846243478 
2099	 0.1333090021454 
2100	 0.133758875328475 
2101	 0.134386891856647 
2102	 0.135090358955222 
2103	 0.135852799253006 
2104	 0.136632226194401 
2105	 0.137190454691213 
2106	 0.137687810782279 
2107	 0.138305322756231 
2108	 0.138816378259944 
2109	 0.139431053527585 
2110	 0.14040600389964 
2111	 0.141071593086833 
2112	 0.141576514441937 
2113	 0.141991160017732 
2114	 0.14203493599827 
2115	 0.14207896674903 
2116	 0.142404386203909 
2117	 0.142992054470919 
2118	 0.143997231037596 
2119	 0.144968826072229 
2120	 0.146354685468722 
2121	 0.147122586291053 
2122	 0.147610066801731 
2123	 0.148298718143803 
2124	 0.14837976610445 
2125	 0.148661816700937 
2126	 0.149206649691842 
2127	 0.149418141138783 
2128	 0.15013459151589 
2129	 0.150908893368163 
2130	 0.151362816366442 
2131	 0.152036594576766 
2132	 0.152605638823811 
2133	 0.153103725330953 
2134	 0.153590740636287 
2135	 0.154219507607548 
2136	 0.154553529060799 
2137	 0.154659241977976 
2138	 0.155065036288614 
2139	 0.155590456169787 
2140	 0.156151703389863 
2141	 0.156983783938996 
2142	 0.157068737493077 
2143	 0.156954051499321 
2144	 0.157271029305614 
2145	 0.157380364077619 
2146	 0.158255493348692 
2147	 0.159072313811012 
2148	 0.159450204022622 
2149	 0.159713798790922 
2150	 0.15967812472692 
2151	 0.159965150531792 
2152	 0.160369250097705 
2153	 0.160702058304796 
2154	 0.16133326893324 
2155	 0.161705555397418 
2156	 0.161426378335825 
2157	 0.161470607869254 
2158	 0.161689725977559 
2159	 0.161877357641837 
2160	 0.162254988944598 
2161	 0.162594018468357 
2162	 0.1626137090873 
2163	 0.162752748180502 
2164	 0.16313165096052 
2165	 0.163092424032945 
2166	 0.163054295774214 
2167	 0.163610207515514 
2168	 0.164040853054975 
2169	 0.164748860870578 
2170	 0.164968345524176 
2171	 0.165192590362769 
2172	 0.16478907848198 
2173	 0.164259254413154 
2174	 0.164063463757667 
2175	 0.164027431156704 
2176	 0.164063890151181 
2177	 0.16375258479985 
2178	 0.163759284327741 
2179	 0.164413307587969 
2180	 0.165172220745011 
2181	 0.166304335292404 
2182	 0.167063144292326 
2183	 0.167244882899204 
2184	 0.167286286319423 
2185	 0.167542590485189 
2186	 0.167978746033059 
2187	 0.168044213880461 
2188	 0.167862479330424 
2189	 0.168077472225714 
2190	 0.168232041892514 
2191	 0.168311707480833 
2192	 0.168587923182973 
2193	 0.168959021692613 
2194	 0.168498527132639 
2195	 0.167364913485873 
2196	 0.16725006021671 
2197	 0.167360800617041 
2198	 0.167638504471063 
2199	 0.168598967519716 
2200	 0.169136397998519 
2201	 0.169268552354968 
2202	 0.169100233381834 
2203	 0.168905398018171 
2204	 0.168444576313777 
2205	 0.168298456154586 
2206	 0.168530583126618 
2207	 0.168595725783601 
2208	 0.168965992029592 
2209	 0.170112776432863 
2210	 0.169976560909701 
2211	 0.1692936973108 
2212	 0.168899703354342 
2213	 0.168010835839771 
2214	 0.167655280688083 
2215	 0.167844430747975 
2216	 0.168109981278691 
2217	 0.168398740289306 
2218	 0.168595739243854 
2219	 0.168848432081711 
2220	 0.168955011083383 
2221	 0.168953623619974 
2222	 0.168913040124667 
2223	 0.168519357250632 
2224	 0.169096805512243 
2225	 0.170041790292089 
2226	 0.17023397020422 
2227	 0.170482862018107 
2228	 0.169862803123497 
2229	 0.168985750197536 
2230	 0.168176646471797 
2231	 0.167467503789107 
2232	 0.166971704626012 
2233	 0.166707653281591 
2234	 0.166275647292105 
2235	 0.166823173166773 
2236	 0.167503913415514 
2237	 0.167236470675108 
2238	 0.16697563632954 
2239	 0.166026191461316 
2240	 0.164695260875873 
2241	 0.164133247337366 
2242	 0.163807193444234 
2243	 0.163568516379366 
2244	 0.163392371828559 
2245	 0.163139574106445 
2246	 0.16223195123448 
2247	 0.160969766481604 
2248	 0.160417814793287 
2249	 0.159842743810619 
2250	 0.159729285604526 
2251	 0.159962168706462 
2252	 0.159748045333662 
2253	 0.159506351385487 
2254	 0.15905499382083 
2255	 0.158771258746082 
2256	 0.157962206227707 
2257	 0.156420854728682 
2258	 0.15517223126287 
2259	 0.155466707829286 
2260	 0.155035520070682 
2261	 0.154737503713356 
2262	 0.155278674101003 
2263	 0.154147382492231 
2264	 0.152584153699382 
2265	 0.152133961064122 
2266	 0.15093338125037 
2267	 0.149863409505807 
2268	 0.149937866298105 
2269	 0.150387556132622 
2270	 0.151176461637295 
2271	 0.151392181819673 
2272	 0.150813601779271 
2273	 0.149876218427462 
2274	 0.14865695502407 
2275	 0.148306703832782 
2276	 0.148283839272176 
2277	 0.147478439822734 
2278	 0.147007125287669 
2279	 0.146733414132102 
2280	 0.146113004323526 
2281	 0.14558233769257 
2282	 0.145400804400716 
2283	 0.145040251096407 
2284	 0.144339042673322 
2285	 0.144504326645409 
2286	 0.144200103805191 
2287	 0.143463128079751 
2288	 0.142741957314078 
2289	 0.143268466304448 
2290	 0.142795014084924 
2291	 0.143255943557872 
2292	 0.144047727411424 
2293	 0.142999763683462 
2294	 0.14279199343226 
2295	 0.142984100515735 
2296	 0.141741468622542 
2297	 0.140828064162763 
2298	 0.139440805776284 
2299	 0.138024194910896 
2300	 0.138002757160478 
2301	 0.137133986364932 
2302	 0.136502273435418 
2303	 0.135643278006763 
2304	 0.134315560225756 
2305	 0.134003380007885 
2306	 0.133343423635849 
2307	 0.133107452990329 
2308	 0.132612350718916 
2309	 0.13147975431603 
2310	 0.131759885575183 
2311	 0.131877312546997 
2312	 0.131001308170612 
2313	 0.130334841516084 
2314	 0.130017851610403 
2315	 0.129566846135253 
2316	 0.129027585835453 
2317	 0.129150331934259 
2318	 0.128508063910416 
2319	 0.127475683714106 
2320	 0.128336560823707 
2321	 0.129105340560009 
2322	 0.130872811791586 
2323	 0.130826741576226 
2324	 0.130591141509947 
2325	 0.129348698882318 
2326	 0.126597914491117 
2327	 0.125166618842925 
2328	 0.125081852218125 
2329	 0.123823424859232 
2330	 0.123411446979871 
2331	 0.124194720937089 
2332	 0.124500341892898 
2333	 0.12438168451203 
2334	 0.123764198054313 
2335	 0.121986910181547 
2336	 0.121047606402374 
2337	 0.121332607651682 
2338	 0.119554855915177 
2339	 0.11787403479364 
2340	 0.116643546565165 
2341	 0.114402702306436 
2342	 0.114749083255962 
2343	 0.116249688885544 
2344	 0.115318220263292 
2345	 0.114364436039584 
2346	 0.115194417094982 
2347	 0.116299549192697 
2348	 0.117081535562308 
2349	 0.118107538488121 
2350	 0.117536328346839 
2351	 0.114760811526157 
2352	 0.112821467854643 
2353	 0.112187538843043 
2354	 0.111795266708368 
2355	 0.111744375598788 
2356	 0.112778758319412 
2357	 0.113107897115728 
2358	 0.112450411206466 
2359	 0.112985456998437 
2360	 0.112202526970998 
2361	 0.110040153134312 
2362	 0.107889489974005 
2363	 0.105259507107303 
2364	 0.104143461938857 
2365	 0.104032779479846 
2366	 0.104435219723445 
2367	 0.105466077951169 
2368	 0.104536792140187 
2369	 0.103277050884087 
2370	 0.103353061250358 
2371	 0.102455056303144 
2372	 0.101472305396302 
2373	 0.100616605221949 
2374	 0.100747470065317 
2375	 0.101583954000383 
2376	 0.10079060072541 
2377	 9.85770549599925E-02 
2378	 0.098521900318977 
2379	 9.84202671472512E-02 
2380	 9.89119198926308E-02 
2381	 0.103969933716794 
2382	 0.10532752302444 
2383	 0.103308530872803 
2384	 0.101744049099707 
2385	 9.77565047897749E-02 
2386	 9.65696991538965E-02 
2387	 9.66341835010689E-02 
2388	 0.096317256606274 
2389	 9.87743759485954E-02 
2390	 9.87722951633006E-02 
2391	 9.67188959070846E-02 
2392	 9.60985738212799E-02 
2393	 9.57814335116167E-02 
2394	 0.0950510599194 
2395	 9.35404097737827E-02 
2396	 9.32665913969304E-02 
2397	 9.21190067744266E-02 
2398	 9.22908777491606E-02 
2399	 9.55449646052056E-02 
2400	 9.73288184054858E-02 
2401	 9.94301503059573E-02 
2402	 0.101162288117067 
2403	 9.88305349800164E-02 
2404	 9.67705356590369E-02 
2405	 9.30162496667651E-02 
2406	 8.73286397382373E-02 
2407	 8.36832495920365E-02 
2408	 7.99061498112073E-02 
2409	 7.76784384316691E-02 
2410	 0.078228271475252 
2411	 8.09549179735216E-02 
2412	 8.48998605282841E-02 
2413	 8.90125568483859E-02 
2414	 9.23158650613057E-02 
2415	 9.24504124652085E-02 
2416	 8.92983651560659E-02 
2417	 8.52849502691548E-02 
2418	 8.03482455678587E-02 
2419	 7.70226320169513E-02 
2420	 7.81395713352253E-02 
2421	 7.70299885275047E-02 
2422	 7.60745030731195E-02 
2423	 0.078719941449902 
2424	 7.94789180259271E-02 
2425	 7.88621463486849E-02 
2426	 7.81551563946274E-02 
2427	 7.55138887249655E-02 
2428	 7.18394187514937E-02 
2429	 7.30852184289117E-02 
2430	 7.75147617996624E-02 
2431	 8.19432848434169E-02 
2432	 0.087591315689414 
2433	 9.27516686422434E-02 
2434	 9.44580934817568E-02 
2435	 9.46070621062407E-02 
2436	 9.31958451783138E-02 
2437	 8.61671797654248E-02 
2438	 8.36043896045015E-02 
2439	 8.06093702680278E-02 
2440	 7.94264639282673E-02 
2441	 8.19775620882293E-02 
2442	 8.30658876240403E-02 
2443	 0.087303607729021 
2444	 8.78939018949222E-02 
2445	 8.56504643081789E-02 
2446	 8.61832639912389E-02 
2447	 0.082615200491965 
2448	 8.42403116468006E-02 
2449	 9.61080831260218E-02 
2450	 9.63100127423129E-02 
2451	 8.89656650297121E-02 
2452	 0.084929512399736 
2453	 7.64294558860667E-02 
2454	 7.26462781165513E-02 
2455	 7.63041584016279E-02 
2456	 7.60728829916869E-02 
2457	 7.09765328009334E-02 
2458	 6.92515557241142E-02 
2459	 6.97913418509524E-02 
2460	 7.03727882562148E-02 
2461	 7.40231993694569E-02 
2462	 7.49980247226131E-02 
2463	 7.16026639968221E-02 
2464	 7.14020216636183E-02 
2465	 7.24915278689897E-02 
2466	 0.074193398491481 
2467	 7.97699812223828E-02 
2468	 8.26022628492873E-02 
2469	 8.60362557176314E-02 
2470	 8.60192557161552E-02 
2471	 8.43583751699994E-02 
2472	 7.63737197170746E-02 
2473	 5.31063909651027E-02 
2474	 4.57979509894512E-02 
2475	 0.040854394441678 
2476	 4.48488758881596E-02 
2477	 7.57826793690938E-02 
2478	 8.13621521522214E-02 
2479	 7.73968486407903E-02 
2480	 7.98818889987279E-02 
2481	 6.79210356454501E-02 
2482	 6.84770712783099E-02 
2483	 0.07823091643742 
2484	 8.01177111587143E-02 
2485	 8.29317559818948E-02 
2486	 4.85537053307192E-02 
2487	 0.060974546021353 
2488	 6.84258696018137E-02 
2489	 4.76258931719854E-02 
2490	 4.83483555124323E-02 
2491	 3.91800046037592E-02 
2492	-2.81610816946346E-03 
2493	 1.53612489436601E-02 
2494	 0.127439187495761 
2495	 0.163349254469571 
2496	 0.183397074168434 
2497	 0.222811348527134 
2498	 0.173007913153856 
2499	 0.151256593305078 
2500	 0.171790085463229 
