Wavelength	ref00097.asd
350	 0.172147846315477 
351	 0.172794203067082 
352	 0.172750153043469 
353	 0.173519085783936 
354	 0.173799110743318 
355	 0.174221197342333 
356	 0.175125613883125 
357	 0.175567846690218 
358	 0.17613959958674 
359	 0.176837559533965 
360	 0.177603718501402 
361	 0.178997250820256 
362	 0.180136946356491 
363	 0.180908325113923 
364	 0.181741345283915 
365	 0.182681663683937 
366	 0.183557035013296 
367	 0.184377243852886 
368	 0.185447016216105 
369	 0.186412505686064 
370	 0.187172346096173 
371	 0.187808915657243 
372	 0.188703554192956 
373	 0.189892485341877 
374	 0.191174765211668 
375	 0.192280597426144 
376	 0.193527144792353 
377	 0.194429367742774 
378	 0.195143130426004 
379	 0.196614126534719 
380	 0.197477385520922 
381	 0.197895072356605 
382	 0.198341583705198 
383	 0.199147435840528 
384	 0.200071884295303 
385	 0.201114179482297 
386	 0.202335629762309 
387	 0.203540350962843 
388	 0.204811335668487 
389	 0.206005480382597 
390	 0.206753928480107 
391	 0.20740407055685 
392	 0.207954740127178 
393	 0.20845257352928 
394	 0.209163538959934 
395	 0.210185396018449 
396	 0.211273486656193 
397	 0.212181932503332 
398	 0.213352163996962 
399	 0.214453291398751 
400	 0.215465762811186 
401	 0.216617146923159 
402	 0.217345258973553 
403	 0.21787670584066 
404	 0.218416578177738 
405	 0.218869027350894 
406	 0.219400832547802 
407	 0.220087972120164 
408	 0.220913712321077 
409	 0.22161296799969 
410	 0.222419375937869 
411	 0.223366580551544 
412	 0.224298322600468 
413	 0.225263646768629 
414	 0.22609192187137 
415	 0.226777367810992 
416	 0.227714639801185 
417	 0.228648016615255 
418	 0.2294616574916 
419	 0.230146381786063 
420	 0.230959813309378 
421	 0.231812726096016 
422	 0.232610373318355 
423	 0.233297399955463 
424	 0.234256263102747 
425	 0.235092296850632 
426	 0.235599940646317 
427	 0.236237436298903 
428	 0.237042921685685 
429	 0.237813794168914 
430	 0.238382284204039 
431	 0.239263688792243 
432	 0.240285615795455 
433	 0.241264650789327 
434	 0.242076760841811 
435	 0.243109699755734 
436	 0.243947244506578 
437	 0.24442254441512 
438	 0.245129633314709 
439	 0.245783837355034 
440	 0.246445645556061 
441	 0.247228154278088 
442	 0.247899772669637 
443	 0.248586069167596 
444	 0.249314421452197 
445	 0.250003819436204 
446	 0.25064224731832 
447	 0.251274157449847 
448	 0.251932535002642 
449	 0.252610359384402 
450	 0.253155483335237 
451	 0.253629572597322 
452	 0.254174685279443 
453	 0.254770814919216 
454	 0.255375759854777 
455	 0.255953746324222 
456	 0.256482860241698 
457	 0.257096630472944 
458	 0.257681129838798 
459	 0.258159287130169 
460	 0.258724189076488 
461	 0.259363131576602 
462	 0.259989941626071 
463	 0.260492654694042 
464	 0.260948049638342 
465	 0.261430701159357 
466	 0.261953203217361 
467	 0.262437402138143 
468	 0.262910180808568 
469	 0.263385438895961 
470	 0.263891964439408 
471	 0.264533532086197 
472	 0.26512104318129 
473	 0.265626978751569 
474	 0.266144628950196 
475	 0.266688542643571 
476	 0.267205351061391 
477	 0.267677678746498 
478	 0.268169743434233 
479	 0.268703157427043 
480	 0.269294306747463 
481	 0.269922036353811 
482	 0.270426018353896 
483	 0.270828263735307 
484	 0.271170531237412 
485	 0.271506829319915 
486	 0.271872065965551 
487	 0.272430257884443 
488	 0.273196074065695 
489	 0.273772815277216 
490	 0.274353399936953 
491	 0.274843896125416 
492	 0.275122042043889 
493	 0.275618682196314 
494	 0.276117565759539 
495	 0.276581553332406 
496	 0.277250248993199 
497	 0.277777739031415 
498	 0.27819537444826 
499	 0.278596764872037 
500	 0.278932073344208 
501	 0.27937417814615 
502	 0.279890680049059 
503	 0.280340026631034 
504	 0.280907844705261 
505	 0.28140012462722 
506	 0.281760195430843 
507	 0.282222297360285 
508	 0.282667833295988 
509	 0.283102249490311 
510	 0.283567660916313 
511	 0.284110135180465 
512	 0.284669081984107 
513	 0.28518745617764 
514	 0.285619749428328 
515	 0.285991494702904 
516	 0.286316309616517 
517	 0.286647713270165 
518	 0.287141536735031 
519	 0.287675576720825 
520	 0.288249112487204 
521	 0.288864310531785 
522	 0.289242051750328 
523	 0.289707664607667 
524	 0.290232075153188 
525	 0.290355426820212 
526	 0.290666183931412 
527	 0.291126619498159 
528	 0.291608552171388 
529	 0.292213265533424 
530	 0.29267940150218 
531	 0.293002168844083 
532	 0.2933236405437 
533	 0.293617958927897 
534	 0.294007615957861 
535	 0.294516482424375 
536	 0.295002291364528 
537	 0.295309464930533 
538	 0.295533339409985 
539	 0.295841822928819 
540	 0.29631731980333 
541	 0.296703724523049 
542	 0.296940322307975 
543	 0.297158535489942 
544	 0.297565721440738 
545	 0.297913211359432 
546	 0.298079944516168 
547	 0.298418074520148 
548	 0.298737544657561 
549	 0.299013039449531 
550	 0.299288864636158 
551	 0.299630706225781 
552	 0.299893804766903 
553	 0.300064753349837 
554	 0.300301846955255 
555	 0.300561566324861 
556	 0.300807206315496 
557	 0.30102020351793 
558	 0.301247999704027 
559	 0.301450271294228 
560	 0.301616996972867 
561	 0.301762910662663 
562	 0.301904652640828 
563	 0.302068628374755 
564	 0.302236660843291 
565	 0.302302906717887 
566	 0.302430003882131 
567	 0.302657586835887 
568	 0.302925986963398 
569	 0.30295152631232 
570	 0.302892009432738 
571	 0.302847425399245 
572	 0.302839387280574 
573	 0.302838192825273 
574	 0.302905625511427 
575	 0.303051098103003 
576	 0.303086064706049 
577	 0.303326063788377 
578	 0.30370143377918 
579	 0.303980978403627 
580	 0.304274882497072 
581	 0.304544116600963 
582	 0.304735619098091 
583	 0.304794046306953 
584	 0.30474371172347 
585	 0.304744785925227 
586	 0.304898991301458 
587	 0.304986596999 
588	 0.30489500123015 
589	 0.304635957388106 
590	 0.304349476305452 
591	 0.304343925418695 
592	 0.304372596665782 
593	 0.304268265981614 
594	 0.304139252877212 
595	 0.30421693648182 
596	 0.30431236117809 
597	 0.304197145370255 
598	 0.30425193043941 
599	 0.304373553419861 
600	 0.304519811748915 
601	 0.304722771859124 
602	 0.304771874063288 
603	 0.304796808273589 
604	 0.30488350089579 
605	 0.304803562492091 
606	 0.30472548210257 
607	 0.304658454702425 
608	 0.304550948680736 
609	 0.30451429762983 
610	 0.304467815422572 
611	 0.304366517024245 
612	 0.304239648491324 
613	 0.304182963978293 
614	 0.304126811665316 
615	 0.303992930040157 
616	 0.303845297768112 
617	 0.303763147420037 
618	 0.303748320111843 
619	 0.303741424975711 
620	 0.303700968766026 
621	 0.303720103250146 
622	 0.303799645203923 
623	 0.30372410031816 
624	 0.303609147619241 
625	 0.303520612694971 
626	 0.303497394371699 
627	 0.303520464450475 
628	 0.303504108173559 
629	 0.303435942007437 
630	 0.303379754245063 
631	 0.303384422197866 
632	 0.303384868311385 
633	 0.303341346981565 
634	 0.303342315070357 
635	 0.303334754305287 
636	 0.303310249877396 
637	 0.303284749898919 
638	 0.303299306408198 
639	 0.303286183756624 
640	 0.303242695610614 
641	 0.303259250874013 
642	 0.303217893262632 
643	 0.303187824510413 
644	 0.303235638393508 
645	 0.303277430706095 
646	 0.303238798441329 
647	 0.30317855781468 
648	 0.303215183979262 
649	 0.303155407021387 
650	 0.303094805819759 
651	 0.303079270221526 
652	 0.303012779270885 
653	 0.303095813494354 
654	 0.303188311508641 
655	 0.303108477756227 
656	 0.302960261361191 
657	 0.302850480585067 
658	 0.302824189740848 
659	 0.302845132693752 
660	 0.302902297332679 
661	 0.302956791997901 
662	 0.302974548958038 
663	 0.302933642504413 
664	 0.302884767417699 
665	 0.302883494263088 
666	 0.302953046497788 
667	 0.302970895597776 
668	 0.302970343510204 
669	 0.302967864080978 
670	 0.30295945569623 
671	 0.302969938583795 
672	 0.302981243248009 
673	 0.30297238432105 
674	 0.302933013810244 
675	 0.302887708071952 
676	 0.30285816263945 
677	 0.302858069285723 
678	 0.302867319854248 
679	 0.302872248913213 
680	 0.302845310984961 
681	 0.302752036585401 
682	 0.302742980432131 
683	 0.302756964514149 
684	 0.302760490236122 
685	 0.302941415379986 
686	 0.302956633867201 
687	 0.302777687687133 
688	 0.302580429800014 
689	 0.302630679261437 
690	 0.302584182726219 
691	 0.302387973670462 
692	 0.302336737482028 
693	 0.302447535826054 
694	 0.302507722576635 
695	 0.302390895074684 
696	 0.302344874849227 
697	 0.302321256368731 
698	 0.302282947564711 
699	 0.302202680017047 
700	 0.302117512910044 
701	 0.302064842947914 
702	 0.302009699555766 
703	 0.301840289132555 
704	 0.30170199634788 
705	 0.301631624897147 
706	 0.301613437405354 
707	 0.301569377173384 
708	 0.301511517583973 
709	 0.301437106059615 
710	 0.301340205185405 
711	 0.301220741689889 
712	 0.301101684896554 
713	 0.301017626360932 
714	 0.301009363097782 
715	 0.3009529421652 
716	 0.300867410502847 
717	 0.300787920478387 
718	 0.300720181579148 
719	 0.300487121846375 
720	 0.300261110190042 
721	 0.300291013978981 
722	 0.30024587238139 
723	 0.300169296853393 
724	 0.300074110881871 
725	 0.299931624630199 
726	 0.299826435377021 
727	 0.299765425379021 
728	 0.299707239094279 
729	 0.299534878436522 
730	 0.299425919727237 
731	 0.299367122804271 
732	 0.299268321299623 
733	 0.299073964721263 
734	 0.298953439549342 
735	 0.298899740636687 
736	 0.298754532848284 
737	 0.298684570398029 
738	 0.298571780190043 
739	 0.298363083235827 
740	 0.298243031415992 
741	 0.298143019280756 
742	 0.298028699463075 
743	 0.297882728343688 
744	 0.297704780112703 
745	 0.297648412196823 
746	 0.297615097922042 
747	 0.297354140758445 
748	 0.297197908162836 
749	 0.297137832787158 
750	 0.297073496174365 
751	 0.296833828467838 
752	 0.296695799644849 
753	 0.296609980821056 
754	 0.296470221399997 
755	 0.296304603239531 
756	 0.296302414533933 
757	 0.296456281124822 
758	 0.296606085402758 
759	 0.296375608280671 
760	 0.295890376427945 
761	 0.295396325268222 
762	 0.295296431708432 
763	 0.295133615629014 
764	 0.294901389766465 
765	 0.294683326147567 
766	 0.294474477083661 
767	 0.294465709557853 
768	 0.294439362700403 
769	 0.294174305523591 
770	 0.293963360763055 
771	 0.293885132576985 
772	 0.29382317663975 
773	 0.293544230422181 
774	 0.293444147605619 
775	 0.293357946071073 
776	 0.293159727754468 
777	 0.292932911096776 
778	 0.292813987214578 
779	 0.292685541350039 
780	 0.292449247837129 
781	 0.292352438901855 
782	 0.292148583939726 
783	 0.291913247888763 
784	 0.291846261067612 
785	 0.291691153071778 
786	 0.291604690111941 
787	 0.291520339185841 
788	 0.291138756023038 
789	 0.291068397200784 
790	 0.290943111518655 
791	 0.290575707797724 
792	 0.29055268273506 
793	 0.290418666621814 
794	 0.290127997301805 
795	 0.2898025993933 
796	 0.289645647359158 
797	 0.289485175143286 
798	 0.289293396680702 
799	 0.289120578360543 
800	 0.288865906353612 
801	 0.288602048062172 
802	 0.288399258224709 
803	 0.288291589104062 
804	 0.288185587510783 
805	 0.287939855456178 
806	 0.287576249587903 
807	 0.287454663973699 
808	 0.287296150595393 
809	 0.287096629184328 
810	 0.286931405705042 
811	 0.286844790597059 
812	 0.286605733920394 
813	 0.286322923985661 
814	 0.28624479987329 
815	 0.28597927128163 
816	 0.28576334076685 
817	 0.285693343305637 
818	 0.285629924728419 
819	 0.285353401855668 
820	 0.285124088010366 
821	 0.284991708124589 
822	 0.284518803017567 
823	 0.284073897195249 
824	 0.283936544820736 
825	 0.284092025341539 
826	 0.28379851325261 
827	 0.283454614048817 
828	 0.283233254041921 
829	 0.283150496611251 
830	 0.282855666275545 
831	 0.282580191561033 
832	 0.282398959528173 
833	 0.282236397467938 
834	 0.282006855299286 
835	 0.28181667473179 
836	 0.281702956034975 
837	 0.281584262607567 
838	 0.28116026156962 
839	 0.280876897493771 
840	 0.280906913665146 
841	 0.280604396491182 
842	 0.280218179603842 
843	 0.279969681850981 
844	 0.279928367333999 
845	 0.27968100881826 
846	 0.279454814392855 
847	 0.27929685179158 
848	 0.279146654901119 
849	 0.278854568886402 
850	 0.278550239775104 
851	 0.278258423124996 
852	 0.277913991477426 
853	 0.277492102645028 
854	 0.277189526733279 
855	 0.277080118982877 
856	 0.277051707515458 
857	 0.276827226401548 
858	 0.276477401722514 
859	 0.276152620936374 
860	 0.276025444103511 
861	 0.27592995472969 
862	 0.275719684557368 
863	 0.275338696979493 
864	 0.274932468434312 
865	 0.274520279825932 
866	 0.274192454810171 
867	 0.274012498928458 
868	 0.273900927578896 
869	 0.273615541712768 
870	 0.273308564338917 
871	 0.273222229227896 
872	 0.273051987850793 
873	 0.272700973171175 
874	 0.27224199380165 
875	 0.271864690044162 
876	 0.271689944432471 
877	 0.271426367795731 
878	 0.271103123955482 
879	 0.271034058833907 
880	 0.270486483915429 
881	 0.270021564868215 
882	 0.269866100404804 
883	 0.269547938138616 
884	 0.269275887109352 
885	 0.268973367518301 
886	 0.268610029273514 
887	 0.268328740334567 
888	 0.268006236605702 
889	 0.267686735037061 
890	 0.267467309365588 
891	 0.267497281247834 
892	 0.267091142910902 
893	 0.266646960205463 
894	 0.266571600734814 
895	 0.265906413147713 
896	 0.265447431893002 
897	 0.265128362864821 
898	 0.264641549205182 
899	 0.26446209223874 
900	 0.264385123034537 
901	 0.26405924775742 
902	 0.263368899420264 
903	 0.263613034229144 
904	 0.263527549566215 
905	 0.262986610743969 
906	 0.262590176956689 
907	 0.262004224465543 
908	 0.261557832824848 
909	 0.261194808374371 
910	 0.260606241296223 
911	 0.260535919995547 
912	 0.260376582515958 
913	 0.26000315938791 
914	 0.259814356631573 
915	 0.259067662784971 
916	 0.258294477373138 
917	 0.257732947450138 
918	 0.257166046701016 
919	 0.257567026060004 
920	 0.257534489803661 
921	 0.256688865438908 
922	 0.25633069876174 
923	 0.255894224989446 
924	 0.255723172440926 
925	 0.255838104290488 
926	 0.255575538506189 
927	 0.255426489989808 
928	 0.25505253937812 
929	 0.254195392329305 
930	 0.253127804786321 
931	 0.252973306755268 
932	 0.252582063087455 
933	 0.25130036679353 
934	 0.251128174939017 
935	 0.251296097881546 
936	 0.251365424894333 
937	 0.251215283591975 
938	 0.25117630205071 
939	 0.25187571674164 
940	 0.251720488720585 
941	 0.250198424850972 
942	 0.24962495646137 
943	 0.248738270250037 
944	 0.247807204794576 
945	 0.247545868514514 
946	 0.248797103371059 
947	 0.247924060129568 
948	 0.246530132731569 
949	 0.246453994311876 
950	 0.246837913773534 
951	 0.24599997099222 
952	 0.245281112037517 
953	 0.245440958182327 
954	 0.244422887010109 
955	 0.244066350809759 
956	 0.244143344788529 
957	 0.243899987927058 
958	 0.242691879904937 
959	 0.242372097071835 
960	 0.241941419452949 
961	 0.241325165206637 
962	 0.243192840852365 
963	 0.242024991282764 
964	 0.240605196931509 
965	 0.240766219560967 
966	 0.239655815917614 
967	 0.239253224486561 
968	 0.239301475078061 
969	 0.239194451997948 
970	 0.238592404553343 
971	 0.238137690343421 
972	 0.237796729400205 
973	 0.237310162014711 
974	 0.236405743302669 
975	 0.236510540684097 
976	 0.236447480588376 
977	 0.235889945172765 
978	 0.236056629640036 
979	 0.235144714348102 
980	 0.234516235439679 
981	 0.234486694910816 
982	 0.233891833725196 
983	 0.234018027989633 
984	 0.234438502042496 
985	 0.234195635524835 
986	 0.232639363598631 
987	 0.233253979620239 
988	 0.232798639591653 
989	 0.231323383024258 
990	 0.231554940524964 
991	 0.232561828467295 
992	 0.231657554115216 
993	 0.229993810148065 
994	 0.230375326360058 
995	 0.230285581544821 
996	 0.230343100270464 
997	 0.230548626429228 
998	 0.230655763916588 
999	 0.230973217557734 
1000	 0.231013969884253 
1001	 0.226256431128612 
1002	 0.226147431467803 
1003	 0.22602458670189 
1004	 0.225903741428321 
1005	 0.225786318506172 
1006	 0.225681507882075 
1007	 0.225612581346166 
1008	 0.225598543516031 
1009	 0.225580914765499 
1010	 0.225632869462414 
1011	 0.225605540462444 
1012	 0.225460025914854 
1013	 0.225361371893453 
1014	 0.225334112450861 
1015	 0.225395175399884 
1016	 0.225541815863282 
1017	 0.225783417570051 
1018	 0.225952303395358 
1019	 0.226031254246201 
1020	 0.226221602656378 
1021	 0.226463642031277 
1022	 0.226641571953375 
1023	 0.226810529862475 
1024	 0.227099083939023 
1025	 0.227205288443744 
1026	 0.227453464319568 
1027	 0.22780758461567 
1028	 0.228131261866328 
1029	 0.228520728366085 
1030	 0.228879579177686 
1031	 0.229242546849836 
1032	 0.229641371901919 
1033	 0.230111002586265 
1034	 0.230702145035746 
1035	 0.231258682954859 
1036	 0.231831004417562 
1037	 0.232429589167362 
1038	 0.23304590009356 
1039	 0.233656146150235 
1040	 0.234298457691027 
1041	 0.234909328666629 
1042	 0.235558067947312 
1043	 0.236240504916731 
1044	 0.237038179047936 
1045	 0.237883475966022 
1046	 0.238691437547948 
1047	 0.239527119859925 
1048	 0.240234359207455 
1049	 0.240886638532266 
1050	 0.24168061486017 
1051	 0.24251865367894 
1052	 0.243459857862738 
1053	 0.244424127577628 
1054	 0.245356500056328 
1055	 0.246290012880063 
1056	 0.247141629365627 
1057	 0.247995877770192 
1058	 0.24895276299207 
1059	 0.249943987324035 
1060	 0.250924404832828 
1061	 0.251902151527808 
1062	 0.25292640157491 
1063	 0.25395317161204 
1064	 0.254958325599767 
1065	 0.256039904749028 
1066	 0.257183543348968 
1067	 0.258377475469097 
1068	 0.259497933184239 
1069	 0.260640626057509 
1070	 0.261822752138531 
1071	 0.262995352729361 
1072	 0.264206020248413 
1073	 0.265411238288902 
1074	 0.266640498325215 
1075	 0.267866064566897 
1076	 0.269093679899913 
1077	 0.270340299839178 
1078	 0.271567671789319 
1079	 0.272892072027137 
1080	 0.274156159809776 
1081	 0.275433221549877 
1082	 0.27672309415122 
1083	 0.278136675067361 
1084	 0.279447939035333 
1085	 0.280776329844742 
1086	 0.282172550867445 
1087	 0.283439971639454 
1088	 0.284753224227566 
1089	 0.286158937136597 
1090	 0.287548983832741 
1091	 0.288994679109934 
1092	 0.29036139586878 
1093	 0.291622036708908 
1094	 0.292947677085864 
1095	 0.294311798870032 
1096	 0.295716316075566 
1097	 0.297235128782979 
1098	 0.298664730770205 
1099	 0.300108395084452 
1100	 0.301484158080392 
1101	 0.302818651005021 
1102	 0.304167012801963 
1103	 0.305593857290425 
1104	 0.306948662498903 
1105	 0.308270475962283 
1106	 0.3095957328378 
1107	 0.310913082841804 
1108	 0.312273944577297 
1109	 0.31359529365515 
1110	 0.31490678285015 
1111	 0.316267889045224 
1112	 0.317691092301279 
1113	 0.3190468484049 
1114	 0.320533807810398 
1115	 0.321969629166445 
1116	 0.32324801431434 
1117	 0.324631682229048 
1118	 0.326268402255102 
1119	 0.327765114891256 
1120	 0.329392859432779 
1121	 0.331086832441215 
1122	 0.33273983294702 
1123	 0.33453878135372 
1124	 0.33620944105656 
1125	 0.338058713980008 
1126	 0.33975860023054 
1127	 0.341205137788153 
1128	 0.342756727312341 
1129	 0.344166823829605 
1130	 0.345601043460499 
1131	 0.347067166754967 
1132	 0.348500354534585 
1133	 0.349880128344665 
1134	 0.351269354294615 
1135	 0.352576169480744 
1136	 0.353768255783877 
1137	 0.355064675368259 
1138	 0.356396619889224 
1139	 0.357715629947665 
1140	 0.359017855504666 
1141	 0.36026584402754 
1142	 0.361506294297504 
1143	 0.362834024145626 
1144	 0.364204183029329 
1145	 0.365663807578893 
