Wavelength	ref00097.asd
350	 0.172147846315477 
351	 0.172794203067082 
352	 0.172750153043469 
353	 0.173519085783936 
354	 0.173799110743318 
355	 0.174221197342333 
356	 0.175125613883125 
357	 0.175567846690218 
358	 0.17613959958674 
359	 0.176837559533965 
360	 0.177603718501402 
361	 0.178997250820256 
362	 0.180136946356491 
363	 0.180908325113923 
364	 0.181741345283915 
365	 0.182681663683937 
366	 0.183557035013296 
367	 0.184377243852886 
368	 0.185447016216105 
369	 0.186412505686064 
370	 0.187172346096173 
371	 0.187808915657243 
372	 0.188703554192956 
373	 0.189892485341877 
374	 0.191174765211668 
375	 0.192280597426144 
376	 0.193527144792353 
377	 0.194429367742774 
378	 0.195143130426004 
379	 0.196614126534719 
380	 0.197477385520922 
381	 0.197895072356605 
382	 0.198341583705198 
383	 0.199147435840528 
384	 0.200071884295303 
385	 0.201114179482297 
386	 0.202335629762309 
387	 0.203540350962843 
388	 0.204811335668487 
389	 0.206005480382597 
390	 0.206753928480107 
391	 0.20740407055685 
392	 0.207954740127178 
393	 0.20845257352928 
394	 0.209163538959934 
395	 0.210185396018449 
396	 0.211273486656193 
397	 0.212181932503332 
398	 0.213352163996962 
399	 0.214453291398751 
400	 0.215465762811186 
401	 0.216617146923159 
402	 0.217345258973553 
403	 0.21787670584066 
404	 0.218416578177738 
405	 0.218869027350894 
406	 0.219400832547802 
407	 0.220087972120164 
408	 0.220913712321077 
409	 0.22161296799969 
410	 0.222419375937869 
411	 0.223366580551544 
412	 0.224298322600468 
413	 0.225263646768629 
414	 0.22609192187137 
415	 0.226777367810992 
416	 0.227714639801185 
417	 0.228648016615255 
418	 0.2294616574916 
419	 0.230146381786063 
420	 0.230959813309378 
421	 0.231812726096016 
422	 0.232610373318355 
423	 0.233297399955463 
424	 0.234256263102747 
425	 0.235092296850632 
426	 0.235599940646317 
427	 0.236237436298903 
428	 0.237042921685685 
429	 0.237813794168914 
430	 0.238382284204039 
431	 0.239263688792243 
432	 0.240285615795455 
433	 0.241264650789327 
434	 0.242076760841811 
435	 0.243109699755734 
436	 0.243947244506578 
437	 0.24442254441512 
438	 0.245129633314709 
439	 0.245783837355034 
440	 0.246445645556061 
441	 0.247228154278088 
442	 0.247899772669637 
443	 0.248586069167596 
444	 0.249314421452197 
445	 0.250003819436204 
446	 0.25064224731832 
447	 0.251274157449847 
448	 0.251932535002642 
449	 0.252610359384402 
450	 0.253155483335237 
451	 0.253629572597322 
452	 0.254174685279443 
453	 0.254770814919216 
454	 0.255375759854777 
455	 0.255953746324222 
456	 0.256482860241698 
457	 0.257096630472944 
458	 0.257681129838798 
459	 0.258159287130169 
460	 0.258724189076488 
461	 0.259363131576602 
462	 0.259989941626071 
463	 0.260492654694042 
464	 0.260948049638342 
465	 0.261430701159357 
466	 0.261953203217361 
467	 0.262437402138143 
468	 0.262910180808568 
469	 0.263385438895961 
470	 0.263891964439408 
471	 0.264533532086197 
472	 0.26512104318129 
473	 0.265626978751569 
474	 0.266144628950196 
475	 0.266688542643571 
476	 0.267205351061391 
477	 0.267677678746498 
478	 0.268169743434233 
479	 0.268703157427043 
480	 0.269294306747463 
481	 0.269922036353811 
482	 0.270426018353896 
483	 0.270828263735307 
484	 0.271170531237412 
485	 0.271506829319915 
486	 0.271872065965551 
487	 0.272430257884443 
488	 0.273196074065695 
489	 0.273772815277216 
490	 0.274353399936953 
491	 0.274843896125416 
492	 0.275122042043889 
493	 0.275618682196314 
494	 0.276117565759539 
495	 0.276581553332406 
496	 0.277250248993199 
497	 0.277777739031415 
498	 0.27819537444826 
499	 0.278596764872037 
500	 0.278932073344208 
501	 0.27937417814615 
502	 0.279890680049059 
503	 0.280340026631034 
504	 0.280907844705261 
505	 0.28140012462722 
506	 0.281760195430843 
507	 0.282222297360285 
508	 0.282667833295988 
509	 0.283102249490311 
510	 0.283567660916313 
511	 0.284110135180465 
512	 0.284669081984107 
513	 0.28518745617764 
514	 0.285619749428328 
515	 0.285991494702904 
516	 0.286316309616517 
517	 0.286647713270165 
518	 0.287141536735031 
519	 0.287675576720825 
520	 0.288249112487204 
521	 0.288864310531785 
522	 0.289242051750328 
523	 0.289707664607667 
524	 0.290232075153188 
525	 0.290355426820212 
526	 0.290666183931412 
527	 0.291126619498159 
528	 0.291608552171388 
529	 0.292213265533424 
530	 0.29267940150218 
531	 0.293002168844083 
532	 0.2933236405437 
533	 0.293617958927897 
534	 0.294007615957861 
535	 0.294516482424375 
536	 0.295002291364528 
537	 0.295309464930533 
538	 0.295533339409985 
539	 0.295841822928819 
540	 0.29631731980333 
541	 0.296703724523049 
542	 0.296940322307975 
543	 0.297158535489942 
544	 0.297565721440738 
545	 0.297913211359432 
546	 0.298079944516168 
547	 0.298418074520148 
548	 0.298737544657561 
549	 0.299013039449531 
550	 0.299288864636158 
551	 0.299630706225781 
552	 0.299893804766903 
553	 0.300064753349837 
554	 0.300301846955255 
555	 0.300561566324861 
556	 0.300807206315496 
557	 0.30102020351793 
558	 0.301247999704027 
559	 0.301450271294228 
560	 0.301616996972867 
561	 0.301762910662663 
562	 0.301904652640828 
563	 0.302068628374755 
564	 0.302236660843291 
565	 0.302302906717887 
566	 0.302430003882131 
567	 0.302657586835887 
568	 0.302925986963398 
569	 0.30295152631232 
570	 0.302892009432738 
571	 0.302847425399245 
572	 0.302839387280574 
573	 0.302838192825273 
574	 0.302905625511427 
575	 0.303051098103003 
576	 0.303086064706049 
577	 0.303326063788377 
578	 0.30370143377918 
579	 0.303980978403627 
580	 0.304274882497072 
581	 0.304544116600963 
582	 0.304735619098091 
583	 0.304794046306953 
584	 0.30474371172347 
585	 0.304744785925227 
586	 0.304898991301458 
587	 0.304986596999 
588	 0.30489500123015 
589	 0.304635957388106 
590	 0.304349476305452 
591	 0.304343925418695 
592	 0.304372596665782 
593	 0.304268265981614 
594	 0.304139252877212 
595	 0.30421693648182 
596	 0.30431236117809 
597	 0.304197145370255 
598	 0.30425193043941 
599	 0.304373553419861 
600	 0.304519811748915 
601	 0.304722771859124 
602	 0.304771874063288 
603	 0.304796808273589 
604	 0.30488350089579 
605	 0.304803562492091 
606	 0.30472548210257 
607	 0.304658454702425 
608	 0.304550948680736 
609	 0.30451429762983 
610	 0.304467815422572 
611	 0.304366517024245 
612	 0.304239648491324 
613	 0.304182963978293 
614	 0.304126811665316 
615	 0.303992930040157 
616	 0.303845297768112 
617	 0.303763147420037 
618	 0.303748320111843 
619	 0.303741424975711 
620	 0.303700968766026 
621	 0.303720103250146 
622	 0.303799645203923 
623	 0.30372410031816 
624	 0.303609147619241 
625	 0.303520612694971 
626	 0.303497394371699 
627	 0.303520464450475 
628	 0.303504108173559 
629	 0.303435942007437 
630	 0.303379754245063 
631	 0.303384422197866 
632	 0.303384868311385 
633	 0.303341346981565 
634	 0.303342315070357 
635	 0.303334754305287 
636	 0.303310249877396 
637	 0.303284749898919 
638	 0.303299306408198 
639	 0.303286183756624 
640	 0.303242695610614 
641	 0.303259250874013 
642	 0.303217893262632 
643	 0.303187824510413 
644	 0.303235638393508 
645	 0.303277430706095 
646	 0.303238798441329 
647	 0.30317855781468 
648	 0.303215183979262 
649	 0.303155407021387 
650	 0.303094805819759 
651	 0.303079270221526 
652	 0.303012779270885 
653	 0.303095813494354 
654	 0.303188311508641 
655	 0.303108477756227 
656	 0.302960261361191 
657	 0.302850480585067 
658	 0.302824189740848 
659	 0.302845132693752 
660	 0.302902297332679 
661	 0.302956791997901 
662	 0.302974548958038 
663	 0.302933642504413 
664	 0.302884767417699 
665	 0.302883494263088 
666	 0.302953046497788 
667	 0.302970895597776 
668	 0.302970343510204 
669	 0.302967864080978 
670	 0.30295945569623 
671	 0.302969938583795 
672	 0.302981243248009 
673	 0.30297238432105 
674	 0.302933013810244 
675	 0.302887708071952 
676	 0.30285816263945 
677	 0.302858069285723 
678	 0.302867319854248 
679	 0.302872248913213 
680	 0.302845310984961 
681	 0.302752036585401 
682	 0.302742980432131 
683	 0.302756964514149 
684	 0.302760490236122 
685	 0.302941415379986 
686	 0.302956633867201 
687	 0.302777687687133 
688	 0.302580429800014 
689	 0.302630679261437 
690	 0.302584182726219 
691	 0.302387973670462 
692	 0.302336737482028 
693	 0.302447535826054 
694	 0.302507722576635 
695	 0.302390895074684 
696	 0.302344874849227 
697	 0.302321256368731 
698	 0.302282947564711 
699	 0.302202680017047 
700	 0.302117512910044 
701	 0.302064842947914 
702	 0.302009699555766 
703	 0.301840289132555 
704	 0.30170199634788 
705	 0.301631624897147 
706	 0.301613437405354 
707	 0.301569377173384 
708	 0.301511517583973 
709	 0.301437106059615 
710	 0.301340205185405 
711	 0.301220741689889 
712	 0.301101684896554 
713	 0.301017626360932 
714	 0.301009363097782 
715	 0.3009529421652 
716	 0.300867410502847 
717	 0.300787920478387 
718	 0.300720181579148 
719	 0.300487121846375 
720	 0.300261110190042 
721	 0.300291013978981 
722	 0.30024587238139 
723	 0.300169296853393 
724	 0.300074110881871 
725	 0.299931624630199 
726	 0.299826435377021 
727	 0.299765425379021 
728	 0.299707239094279 
729	 0.299534878436522 
730	 0.299425919727237 
731	 0.299367122804271 
732	 0.299268321299623 
733	 0.299073964721263 
734	 0.298953439549342 
735	 0.298899740636687 
736	 0.298754532848284 
737	 0.298684570398029 
738	 0.298571780190043 
739	 0.298363083235827 
740	 0.298243031415992 
741	 0.298143019280756 
742	 0.298028699463075 
743	 0.297882728343688 
744	 0.297704780112703 
745	 0.297648412196823 
746	 0.297615097922042 
747	 0.297354140758445 
748	 0.297197908162836 
749	 0.297137832787158 
750	 0.297073496174365 
751	 0.296833828467838 
752	 0.296695799644849 
753	 0.296609980821056 
754	 0.296470221399997 
755	 0.296304603239531 
756	 0.296302414533933 
757	 0.296456281124822 
758	 0.296606085402758 
759	 0.296375608280671 
760	 0.295890376427945 
761	 0.295396325268222 
762	 0.295296431708432 
763	 0.295133615629014 
764	 0.294901389766465 
765	 0.294683326147567 
766	 0.294474477083661 
767	 0.294465709557853 
768	 0.294439362700403 
769	 0.294174305523591 
770	 0.293963360763055 
771	 0.293885132576985 
772	 0.29382317663975 
773	 0.293544230422181 
774	 0.293444147605619 
775	 0.293357946071073 
776	 0.293159727754468 
777	 0.292932911096776 
778	 0.292813987214578 
779	 0.292685541350039 
780	 0.292449247837129 
781	 0.292352438901855 
782	 0.292148583939726 
783	 0.291913247888763 
784	 0.291846261067612 
785	 0.291691153071778 
786	 0.291604690111941 
787	 0.291520339185841 
788	 0.291138756023038 
789	 0.291068397200784 
790	 0.290943111518655 
791	 0.290575707797724 
792	 0.29055268273506 
793	 0.290418666621814 
794	 0.290127997301805 
795	 0.2898025993933 
796	 0.289645647359158 
797	 0.289485175143286 
798	 0.289293396680702 
799	 0.289120578360543 
800	 0.288865906353612 
801	 0.288602048062172 
802	 0.288399258224709 
803	 0.288291589104062 
804	 0.288185587510783 
805	 0.287939855456178 
806	 0.287576249587903 
807	 0.287454663973699 
808	 0.287296150595393 
809	 0.287096629184328 
810	 0.286931405705042 
811	 0.286844790597059 
812	 0.286605733920394 
813	 0.286322923985661 
814	 0.28624479987329 
815	 0.28597927128163 
816	 0.28576334076685 
817	 0.285693343305637 
818	 0.285629924728419 
819	 0.285353401855668 
820	 0.285124088010366 
821	 0.284991708124589 
822	 0.284518803017567 
823	 0.284073897195249 
824	 0.283936544820736 
825	 0.284092025341539 
826	 0.28379851325261 
827	 0.283454614048817 
828	 0.283233254041921 
829	 0.283150496611251 
830	 0.282855666275545 
831	 0.282580191561033 
832	 0.282398959528173 
833	 0.282236397467938 
834	 0.282006855299286 
835	 0.28181667473179 
836	 0.281702956034975 
837	 0.281584262607567 
838	 0.28116026156962 
839	 0.280876897493771 
840	 0.280906913665146 
841	 0.280604396491182 
842	 0.280218179603842 
843	 0.279969681850981 
844	 0.279928367333999 
845	 0.27968100881826 
846	 0.279454814392855 
847	 0.27929685179158 
848	 0.279146654901119 
849	 0.278854568886402 
850	 0.278550239775104 
851	 0.278258423124996 
852	 0.277913991477426 
853	 0.277492102645028 
854	 0.277189526733279 
855	 0.277080118982877 
856	 0.277051707515458 
857	 0.276827226401548 
858	 0.276477401722514 
859	 0.276152620936374 
860	 0.276025444103511 
861	 0.27592995472969 
862	 0.275719684557368 
863	 0.275338696979493 
864	 0.274932468434312 
865	 0.274520279825932 
866	 0.274192454810171 
867	 0.274012498928458 
868	 0.273900927578896 
869	 0.273615541712768 
870	 0.273308564338917 
871	 0.273222229227896 
872	 0.273051987850793 
873	 0.272700973171175 
874	 0.27224199380165 
875	 0.271864690044162 
876	 0.271689944432471 
877	 0.271426367795731 
878	 0.271103123955482 
879	 0.271034058833907 
880	 0.270486483915429 
881	 0.270021564868215 
882	 0.269866100404804 
883	 0.269547938138616 
884	 0.269275887109352 
885	 0.268973367518301 
886	 0.268610029273514 
887	 0.268328740334567 
888	 0.268006236605702 
889	 0.267686735037061 
890	 0.267467309365588 
891	 0.267497281247834 
892	 0.267091142910902 
893	 0.266646960205463 
894	 0.266571600734814 
895	 0.265906413147713 
896	 0.265447431893002 
897	 0.265128362864821 
898	 0.264641549205182 
899	 0.26446209223874 
900	 0.264385123034537 
901	 0.26405924775742 
902	 0.263368899420264 
903	 0.263613034229144 
904	 0.263527549566215 
905	 0.262986610743969 
906	 0.262590176956689 
907	 0.262004224465543 
908	 0.261557832824848 
909	 0.261194808374371 
910	 0.260606241296223 
911	 0.260535919995547 
912	 0.260376582515958 
913	 0.26000315938791 
914	 0.259814356631573 
915	 0.259067662784971 
916	 0.258294477373138 
917	 0.257732947450138 
918	 0.257166046701016 
919	 0.257567026060004 
920	 0.257534489803661 
921	 0.256688865438908 
922	 0.25633069876174 
923	 0.255894224989446 
924	 0.255723172440926 
925	 0.255838104290488 
926	 0.255575538506189 
927	 0.255426489989808 
928	 0.25505253937812 
929	 0.254195392329305 
930	 0.253127804786321 
931	 0.252973306755268 
932	 0.252582063087455 
933	 0.25130036679353 
934	 0.251128174939017 
935	 0.251296097881546 
936	 0.251365424894333 
937	 0.251215283591975 
938	 0.25117630205071 
939	 0.25187571674164 
940	 0.251720488720585 
941	 0.250198424850972 
942	 0.24962495646137 
943	 0.248738270250037 
944	 0.247807204794576 
945	 0.247545868514514 
946	 0.248797103371059 
947	 0.247924060129568 
948	 0.246530132731569 
949	 0.246453994311876 
950	 0.246837913773534 
951	 0.24599997099222 
952	 0.245281112037517 
953	 0.245440958182327 
954	 0.244422887010109 
955	 0.244066350809759 
956	 0.244143344788529 
957	 0.243899987927058 
958	 0.242691879904937 
959	 0.242372097071835 
960	 0.241941419452949 
961	 0.241325165206637 
962	 0.243192840852365 
963	 0.242024991282764 
964	 0.240605196931509 
965	 0.240766219560967 
966	 0.239655815917614 
967	 0.239253224486561 
968	 0.239301475078061 
969	 0.239194451997948 
970	 0.238592404553343 
971	 0.238137690343421 
972	 0.237796729400205 
973	 0.237310162014711 
974	 0.236405743302669 
975	 0.236510540684097 
976	 0.236447480588376 
977	 0.235889945172765 
978	 0.236056629640036 
979	 0.235144714348102 
980	 0.234516235439679 
981	 0.234486694910816 
982	 0.233891833725196 
983	 0.234018027989633 
984	 0.234438502042496 
985	 0.234195635524835 
986	 0.232639363598631 
987	 0.233253979620239 
988	 0.232798639591653 
989	 0.231323383024258 
990	 0.231554940524964 
991	 0.232561828467295 
992	 0.231657554115216 
993	 0.229993810148065 
994	 0.230375326360058 
995	 0.230285581544821 
996	 0.230343100270464 
997	 0.230548626429228 
998	 0.230655763916588 
999	 0.230973217557734 
1000	 0.231013969884253 
1001	 0.226256431128612 
1002	 0.226147431467803 
1003	 0.22602458670189 
1004	 0.225903741428321 
1005	 0.225786318506172 
1006	 0.225681507882075 
1007	 0.225612581346166 
1008	 0.225598543516031 
1009	 0.225580914765499 
1010	 0.225632869462414 
1011	 0.225605540462444 
1012	 0.225460025914854 
1013	 0.225361371893453 
1014	 0.225334112450861 
1015	 0.225395175399884 
1016	 0.225541815863282 
1017	 0.225783417570051 
1018	 0.225952303395358 
1019	 0.226031254246201 
1020	 0.226221602656378 
1021	 0.226463642031277 
1022	 0.226641571953375 
1023	 0.226810529862475 
1024	 0.227099083939023 
1025	 0.227205288443744 
1026	 0.227453464319568 
1027	 0.22780758461567 
1028	 0.228131261866328 
1029	 0.228520728366085 
1030	 0.228879579177686 
1031	 0.229242546849836 
1032	 0.229641371901919 
1033	 0.230111002586265 
1034	 0.230702145035746 
1035	 0.231258682954859 
1036	 0.231831004417562 
1037	 0.232429589167362 
1038	 0.23304590009356 
1039	 0.233656146150235 
1040	 0.234298457691027 
1041	 0.234909328666629 
1042	 0.235558067947312 
1043	 0.236240504916731 
1044	 0.237038179047936 
1045	 0.237883475966022 
1046	 0.238691437547948 
1047	 0.239527119859925 
1048	 0.240234359207455 
1049	 0.240886638532266 
1050	 0.24168061486017 
1051	 0.24251865367894 
1052	 0.243459857862738 
1053	 0.244424127577628 
1054	 0.245356500056328 
1055	 0.246290012880063 
1056	 0.247141629365627 
1057	 0.247995877770192 
1058	 0.24895276299207 
1059	 0.249943987324035 
1060	 0.250924404832828 
1061	 0.251902151527808 
1062	 0.25292640157491 
1063	 0.25395317161204 
1064	 0.254958325599767 
1065	 0.256039904749028 
1066	 0.257183543348968 
1067	 0.258377475469097 
1068	 0.259497933184239 
1069	 0.260640626057509 
1070	 0.261822752138531 
1071	 0.262995352729361 
1072	 0.264206020248413 
1073	 0.265411238288902 
1074	 0.266640498325215 
1075	 0.267866064566897 
1076	 0.269093679899913 
1077	 0.270340299839178 
1078	 0.271567671789319 
1079	 0.272892072027137 
1080	 0.274156159809776 
1081	 0.275433221549877 
1082	 0.27672309415122 
1083	 0.278136675067361 
1084	 0.279447939035333 
1085	 0.280776329844742 
1086	 0.282172550867445 
1087	 0.283439971639454 
1088	 0.284753224227566 
1089	 0.286158937136597 
1090	 0.287548983832741 
1091	 0.288994679109934 
1092	 0.29036139586878 
1093	 0.291622036708908 
1094	 0.292947677085864 
1095	 0.294311798870032 
1096	 0.295716316075566 
1097	 0.297235128782979 
1098	 0.298664730770205 
1099	 0.300108395084452 
1100	 0.301484158080392 
1101	 0.302818651005021 
1102	 0.304167012801963 
1103	 0.305593857290425 
1104	 0.306948662498903 
1105	 0.308270475962283 
1106	 0.3095957328378 
1107	 0.310913082841804 
1108	 0.312273944577297 
1109	 0.31359529365515 
1110	 0.31490678285015 
1111	 0.316267889045224 
1112	 0.317691092301279 
1113	 0.3190468484049 
1114	 0.320533807810398 
1115	 0.321969629166445 
1116	 0.32324801431434 
1117	 0.324631682229048 
1118	 0.326268402255102 
1119	 0.327765114891256 
1120	 0.329392859432779 
1121	 0.331086832441215 
1122	 0.33273983294702 
1123	 0.33453878135372 
1124	 0.33620944105656 
1125	 0.338058713980008 
1126	 0.33975860023054 
1127	 0.341205137788153 
1128	 0.342756727312341 
1129	 0.344166823829605 
1130	 0.345601043460499 
1131	 0.347067166754967 
1132	 0.348500354534585 
1133	 0.349880128344665 
1134	 0.351269354294615 
1135	 0.352576169480744 
1136	 0.353768255783877 
1137	 0.355064675368259 
1138	 0.356396619889224 
1139	 0.357715629947665 
1140	 0.359017855504666 
1141	 0.36026584402754 
1142	 0.361506294297504 
1143	 0.362834024145626 
1144	 0.364204183029329 
1145	 0.365663807578893 
1146	 0.367227284991674 
1147	 0.368749101267644 
1148	 0.370323841949841 
1149	 0.371785809509994 
1150	 0.373054576666239 
1151	 0.374412432098269 
1152	 0.375696158817688 
1153	 0.376979076839727 
1154	 0.378261848269196 
1155	 0.379457986481961 
1156	 0.380646408701288 
1157	 0.381742643302242 
1158	 0.382935146083935 
1159	 0.384191731320668 
1160	 0.385344197186922 
1161	 0.386532430963701 
1162	 0.387595524045327 
1163	 0.388509660691793 
1164	 0.389569552899484 
1165	 0.390677776765224 
1166	 0.391732430390894 
1167	 0.392871377124416 
1168	 0.393962654024271 
1169	 0.394964318292155 
1170	 0.396075954276762 
1171	 0.397233459669098 
1172	 0.39837355160453 
1173	 0.399491339011366 
1174	 0.400566114199027 
1175	 0.401600647979641 
1176	 0.402608456007383 
1177	 0.403645906481454 
1178	 0.404652311404063 
1179	 0.405744201246668 
1180	 0.40695626148697 
1181	 0.408022499597504 
1182	 0.409082578548985 
1183	 0.410094566597861 
1184	 0.410908859267041 
1185	 0.411890021600495 
1186	 0.412991399331558 
1187	 0.41398786604918 
1188	 0.414974250617139 
1189	 0.415990884036935 
1190	 0.416896781135539 
1191	 0.417818884290284 
1192	 0.418785090022241 
1193	 0.419701587662522 
1194	 0.420610123963904 
1195	 0.421489393303857 
1196	 0.422392733043132 
1197	 0.423319784090594 
1198	 0.424207900613966 
1199	 0.425056923581528 
1200	 0.425977927009535 
1201	 0.426933818224913 
1202	 0.42784796366309 
1203	 0.428799801772097 
1204	 0.429711158165857 
1205	 0.430536215383652 
1206	 0.431382078133506 
1207	 0.432242481692447 
1208	 0.433096277351777 
1209	 0.4339347931061 
1210	 0.434755975183448 
1211	 0.435637391647062 
1212	 0.436432449946049 
1213	 0.43722512426289 
1214	 0.437984725435369 
1215	 0.438791171350948 
1216	 0.439585261001604 
1217	 0.440404144729728 
1218	 0.441294984132652 
1219	 0.442103738384649 
1220	 0.44281960763152 
1221	 0.443659657289466 
1222	 0.444588108192344 
1223	 0.445411037069511 
1224	 0.446287534984548 
1225	 0.447095363534886 
1226	 0.44775335960825 
1227	 0.448480178283312 
1228	 0.449253847108939 
1229	 0.449978644595766 
1230	 0.450768629902488 
1231	 0.451490291572656 
1232	 0.452248662500503 
1233	 0.453034205054346 
1234	 0.453800665841472 
1235	 0.454566167375547 
1236	 0.455318936861294 
1237	 0.456065531760073 
1238	 0.456797005488805 
1239	 0.457502752283695 
1240	 0.458237413222649 
1241	 0.458991093792241 
1242	 0.459732049936532 
1243	 0.460447837591229 
1244	 0.461216577913171 
1245	 0.462076099548581 
1246	 0.46281231034839 
1247	 0.463493278492775 
1248	 0.464222556486036 
1249	 0.464847296125721 
1250	 0.465546245125227 
1251	 0.466356348878683 
1252	 0.467197476062059 
1253	 0.467925917106197 
1254	 0.468612682126223 
1255	 0.46931785514479 
1256	 0.469941228354996 
1257	 0.470675128589152 
1258	 0.471478126440241 
1259	 0.472283008876822 
1260	 0.47318700354463 
1261	 0.473976159319608 
1262	 0.474708612498998 
1263	 0.475481637213957 
1264	 0.476157554101109 
1265	 0.476929251495743 
1266	 0.477860122870187 
1267	 0.478634775239832 
1268	 0.479341974216188 
1269	 0.480030922723808 
1270	 0.480600816986588 
1271	 0.481173837876797 
1272	 0.481726837376916 
1273	 0.482289697466986 
1274	 0.482816293753831 
1275	 0.483279004344641 
1276	 0.483825929708748 
1277	 0.48439361672118 
1278	 0.48496841646592 
1279	 0.485617763039564 
1280	 0.486165826686811 
1281	 0.486640515232254 
1282	 0.487195771013821 
1283	 0.487717978575196 
1284	 0.488305635754926 
1285	 0.489081690058151 
1286	 0.489622442645219 
1287	 0.490044253868356 
1288	 0.490496974969402 
1289	 0.490777163544879 
1290	 0.491189638211266 
1291	 0.491766754601059 
1292	 0.49222520932015 
1293	 0.492633522203442 
1294	 0.493075302853223 
1295	 0.4935159826881 
1296	 0.493864871057197 
1297	 0.494356884309142 
1298	 0.494951359239751 
1299	 0.495471443566475 
1300	 0.496031265809023 
1301	 0.496524596642549 
1302	 0.496945421198436 
1303	 0.497439543067174 
1304	 0.497960788224696 
1305	 0.498446011295725 
1306	 0.498949862913536 
1307	 0.499440353496497 
1308	 0.499834987885953 
1309	 0.500360211622001 
1310	 0.500983180753779 
1311	 0.501570628511028 
1312	 0.502212623800376 
1313	 0.502839373070182 
1314	 0.503400110151309 
1315	 0.504037856535056 
1316	 0.504800376324087 
1317	 0.505451615193771 
1318	 0.506107519271708 
1319	 0.506711223746179 
1320	 0.507179475226346 
1321	 0.507663946765025 
1322	 0.508270012550046 
1323	 0.50895065942479 
1324	 0.509586232822445 
1325	 0.51035032382525 
1326	 0.510956134520556 
1327	 0.511400933272744 
1328	 0.512030811012825 
1329	 0.512716119980172 
1330	 0.51338278236721 
1331	 0.514190480762819 
1332	 0.514831186249846 
1333	 0.515251667198264 
1334	 0.515875094960565 
1335	 0.516609355028911 
1336	 0.51721272849889 
1337	 0.517917957503831 
1338	 0.518498144615097 
1339	 0.518863931525338 
1340	 0.519331325329495 
1341	 0.520005398998981 
1342	 0.52044617074505 
1343	 0.520682018252826 
1344	 0.521045047285033 
1345	 0.521266644412555 
1346	 0.5215833822121 
1347	 0.522173483628047 
1348	 0.522902354143191 
1349	 0.523514449576996 
1350	 0.524018119511658 
1351	 0.524701851269095 
1352	 0.525435760963357 
1353	 0.526118983497786 
1354	 0.526668469365143 
1355	 0.527185198844433 
1356	 0.526160185679747 
1357	 0.525980928291655 
1358	 0.526115045142295 
1359	 0.525528554701532 
1360	 0.524455609904629 
1361	 0.52365934948217 
1362	 0.520971352239938 
1363	 0.519985205258525 
1364	 0.528153009841878 
1365	 0.529037430163005 
1366	 0.521023536182857 
1367	 0.522741304809279 
1368	 0.522479191280944 
1369	 0.526252126320157 
1370	 0.5400537343657 
1371	 0.543200086592939 
1372	 0.542712225265226 
1373	 0.542290054668856 
1374	 0.538983733606381 
1375	 0.534341746872065 
1376	 0.536934838484018 
1377	 0.538302413885473 
1378	 0.538345313894403 
1379	 0.539208280742043 
1380	 0.539984682471431 
1381	 0.537266437682856 
1382	 0.540464901658804 
1383	 0.548605749284987 
1384	 0.551284329366415 
1385	 0.553182966606489 
1386	 0.555234700689767 
1387	 0.555630043371217 
1388	 0.556219457561438 
1389	 0.557564859642324 
1390	 0.557548354118152 
1391	 0.555574297613418 
1392	 0.555540201309781 
1393	 0.557071960922813 
1394	 0.557237289399971 
1395	 0.557156449711213 
1396	 0.556959560915702 
1397	 0.55493138053201 
1398	 0.555062843347264 
1399	 0.55723729555627 
1400	 0.558131164732155 
1401	 0.55874633367982 
1402	 0.559796507864004 
1403	 0.561017734832714 
1404	 0.561318946564079 
1405	 0.561098432592579 
1406	 0.561887772948094 
1407	 0.562111357775654 
1408	 0.561245358487631 
1409	 0.562014254557155 
1410	 0.563656126062299 
1411	 0.56396079945732 
1412	 0.563962544756164 
1413	 0.564383152676805 
1414	 0.564458348618125 
1415	 0.564724200462972 
1416	 0.565186792677603 
1417	 0.565901310700111 
1418	 0.566721989999884 
1419	 0.567137504945636 
1420	 0.567768195077298 
1421	 0.568118609236024 
1422	 0.567810490763791 
1423	 0.568167556447637 
1424	 0.568897579128802 
1425	 0.569484170513977 
1426	 0.570255642621715 
1427	 0.57077997227496 
1428	 0.571345778043821 
1429	 0.571657856897498 
1430	 0.571508375423706 
1431	 0.571878097551312 
1432	 0.572409928175857 
1433	 0.572847525150067 
1434	 0.573663099837637 
1435	 0.574224449045832 
1436	 0.574450904240534 
1437	 0.574826423533646 
1438	 0.575131512383459 
1439	 0.575575489749304 
1440	 0.576141301680756 
1441	 0.576682564292328 
1442	 0.577159652886845 
1443	 0.577906035139557 
1444	 0.578677078874705 
1445	 0.579008751265186 
1446	 0.579483915987273 
1447	 0.580003344743487 
1448	 0.58041954380324 
1449	 0.580702389310088 
1450	 0.581206820869457 
1451	 0.581801512172371 
1452	 0.582208056888312 
1453	 0.58263377626277 
1454	 0.583021549190594 
1455	 0.583203754844408 
1456	 0.583691981363748 
1457	 0.584445939706859 
1458	 0.584927270661182 
1459	 0.585407982707959 
1460	 0.58592715197119 
1461	 0.586415446574387 
1462	 0.586856560997383 
1463	 0.587428240557262 
1464	 0.587875603615432 
1465	 0.588076273931647 
1466	 0.58848257187017 
1467	 0.589008117188815 
1468	 0.589491886009964 
1469	 0.58996191865956 
1470	 0.590503214573565 
1471	 0.591053397224621 
1472	 0.59159419505415 
1473	 0.592122934745707 
1474	 0.59268748092695 
1475	 0.593305689240136 
1476	 0.593787073275712 
1477	 0.59417980569597 
1478	 0.5946456173051 
1479	 0.594974778103208 
1480	 0.595427000544316 
1481	 0.596119470451846 
1482	 0.596617519334245 
1483	 0.596966432340573 
1484	 0.597421942807051 
1485	 0.597828568523334 
1486	 0.598253401797843 
1487	 0.598747049772336 
1488	 0.599245257674531 
1489	 0.599700192768254 
1490	 0.600140256778111 
1491	 0.60058890123725 
1492	 0.601120965021917 
1493	 0.601532587693512 
1494	 0.601943950008399 
1495	 0.602410489213658 
1496	 0.602853538034245 
1497	 0.603389182654713 
1498	 0.604067132686392 
1499	 0.604569876318476 
1500	 0.60507472552075 
1501	 0.605486600689625 
1502	 0.60573511659669 
1503	 0.606173604428343 
1504	 0.606644535887533 
1505	 0.607157187220462 
1506	 0.607807256853116 
1507	 0.60830137538733 
1508	 0.608747100244781 
1509	 0.609172137701998 
1510	 0.60952952651233 
1511	 0.609913931395373 
1512	 0.610271458088526 
1513	 0.610690719290983 
1514	 0.611121083867182 
1515	 0.611577926476683 
1516	 0.612095792527168 
1517	 0.61259815212803 
1518	 0.613148403367293 
1519	 0.613613127571773 
1520	 0.614034003538156 
1521	 0.61447822425757 
1522	 0.614867278966567 
1523	 0.615292763126684 
1524	 0.615767648636331 
1525	 0.616224161881577 
1526	 0.616631843974909 
1527	 0.617116504514043 
1528	 0.617727769356709 
1529	 0.61818273856397 
1530	 0.618576271666648 
1531	 0.619005688111844 
1532	 0.619312890334001 
1533	 0.619719414049374 
1534	 0.620299552085896 
1535	 0.620723899728202 
1536	 0.621037254984569 
1537	 0.621436456765786 
1538	 0.621761446090937 
1539	 0.622184765156555 
1540	 0.622783641573107 
1541	 0.623268263252444 
1542	 0.623731910376801 
1543	 0.624180975059367 
1544	 0.624530814856273 
1545	 0.624955792020844 
1546	 0.625485004433663 
1547	 0.625907176900655 
1548	 0.626300343606068 
1549	 0.626685450677439 
1550	 0.626941022360904 
1551	 0.627285644242539 
1552	 0.627734358681798 
1553	 0.628118368632297 
1554	 0.628524052657596 
1555	 0.628885999087518 
1556	 0.629125161366109 
1557	 0.629449759540051 
1558	 0.62980376428581 
1559	 0.630170156940926 
1560	 0.630581188397619 
1561	 0.631021530234339 
1562	 0.631517648757629 
1563	 0.631968633500095 
1564	 0.632435881024775 
1565	 0.632885374165996 
1566	 0.633311554402305 
1567	 0.633740414224917 
1568	 0.63419707664786 
1569	 0.634716041208175 
1570	 0.63512809741384 
1571	 0.635508928618033 
1572	 0.63585871675097 
1573	 0.636127582146841 
1574	 0.636472436070671 
1575	 0.636817425563924 
1576	 0.637188728773944 
1577	 0.637612546934276 
1578	 0.637937740791486 
1579	 0.638196530890838 
1580	 0.63857665519001 
1581	 0.638973433270825 
1582	 0.639318781451984 
1583	 0.639724811359137 
1584	 0.640096624058076 
1585	 0.640353869816343 
1586	 0.640754845129549 
1587	 0.641295010631824 
1588	 0.641684373203621 
1589	 0.642017883958212 
1590	 0.642431108682513 
1591	 0.642834530963348 
1592	 0.643221568784591 
1593	 0.643663846614851 
1594	 0.644065766290871 
1595	 0.644406375868049 
1596	 0.644772525144751 
1597	 0.645167891356803 
1598	 0.645560396475206 
1599	 0.645910888801517 
1600	 0.646336477858295 
1601	 0.646841486328232 
1602	 0.647267929778164 
1603	 0.647703204566345 
1604	 0.648069922927172 
1605	 0.648357989494554 
1606	 0.64870687463155 
1607	 0.649026440885387 
1608	 0.649408485370636 
1609	 0.649832077652933 
1610	 0.65025833238665 
1611	 0.65073434931627 
1612	 0.651134145116234 
1613	 0.651498113982081 
1614	 0.651914492436243 
1615	 0.652306522461529 
1616	 0.652724360457603 
1617	 0.653243843819736 
1618	 0.653586745518069 
1619	 0.653807851145134 
1620	 0.654151178546629 
1621	 0.654441347932454 
1622	 0.654827938084933 
1623	 0.655366681650157 
1624	 0.655745621628893 
1625	 0.656070821534978 
1626	 0.656425028150699 
1627	 0.656697929151335 
1628	 0.657112937086391 
1629	 0.657630359341021 
1630	 0.658059651018928 
1631	 0.65854740661321 
1632	 0.658928030459711 
1633	 0.659222906466196 
1634	 0.659532931534593 
1635	 0.659782888592925 
1636	 0.660156625500075 
1637	 0.660571720581581 
1638	 0.660928027283193 
1639	 0.6613188513246 
1640	 0.661727483626299 
1641	 0.662116860518755 
1642	 0.662491647297454 
1643	 0.662910426595026 
1644	 0.663318793149157 
1645	 0.663629537117561 
1646	 0.663998524282277 
1647	 0.664446850691471 
1648	 0.664892254106318 
1649	 0.665345366200327 
1650	 0.665742078826668 
1651	 0.66612847857725 
1652	 0.666553128116246 
1653	 0.666938475368766 
1654	 0.667329268635741 
1655	 0.667822144431679 
1656	 0.668193418581009 
1657	 0.668389366297021 
1658	 0.668878782368746 
1659	 0.669403240095944 
1660	 0.669866080101872 
1661	 0.670376453692159 
1662	 0.670621170824554 
1663	 0.670789419297068 
1664	 0.671277771593727 
1665	 0.671712813431254 
1666	 0.672267746831053 
1667	 0.67283868007075 
1668	 0.672975903286475 
1669	 0.673135517818738 
1670	 0.673155945816687 
1671	 0.67323858973785 
1672	 0.673750955123422 
1673	 0.674170919548146 
1674	 0.674590695237376 
1675	 0.67505570579959 
1676	 0.675351568990293 
1677	 0.675580800292912 
1678	 0.675749021805767 
1679	 0.676018892686079 
1680	 0.676394918434287 
1681	 0.67666841227774 
1682	 0.677088164246674 
1683	 0.677546299617186 
1684	 0.677715498623424 
1685	 0.677937056812331 
1686	 0.678236465053079 
1687	 0.678457860382572 
1688	 0.678780264878249 
1689	 0.679200124384348 
1690	 0.679679679388289 
1691	 0.680074211134915 
1692	 0.68039970812718 
1693	 0.680768302984157 
1694	 0.681168449194518 
1695	 0.681524031386346 
1696	 0.68187549317645 
1697	 0.682217553719167 
1698	 0.682417038993825 
1699	 0.68275523120667 
1700	 0.683295440381467 
1701	 0.683669233807235 
1702	 0.684076986354879 
1703	 0.684368336872088 
1704	 0.684353633269986 
1705	 0.684563356423333 
1706	 0.684810050905355 
1707	 0.685126390384331 
1708	 0.685661303858982 
1709	 0.686099990410443 
1710	 0.686585711641421 
1711	 0.686934005678877 
1712	 0.687074120135298 
1713	 0.687418678480164 
1714	 0.687821552896034 
1715	 0.688159453768443 
1716	 0.688621940314584 
1717	 0.689029267747772 
1718	 0.6893315010382 
1719	 0.689661253542744 
1720	 0.690045898758854 
1721	 0.690355473586832 
1722	 0.690527170633574 
1723	 0.690790599070356 
1724	 0.691147676727106 
1725	 0.691427512703489 
1726	 0.691686052904385 
1727	 0.691992597195199 
1728	 0.692232484839216 
1729	 0.692599740296765 
1730	 0.693149104072966 
1731	 0.693299733733509 
1732	 0.693546183113592 
1733	 0.693704603295657 
1734	 0.693737914133264 
1735	 0.694034847400525 
1736	 0.694349416286221 
1737	 0.694660609524499 
1738	 0.695027644266754 
1739	 0.695356349145996 
1740	 0.695829645546154 
1741	 0.69607514142477 
1742	 0.696245919864208 
1743	 0.696439192620116 
1744	 0.696395466391993 
1745	 0.696755209595965 
1746	 0.697350783539262 
1747	 0.69772356656434 
1748	 0.698063853217797 
1749	 0.69806674402214 
1750	 0.697776540976162 
1751	 0.69777255138671 
1752	 0.698070005410109 
1753	 0.698494170473679 
1754	 0.699001490361449 
1755	 0.699530959898653 
1756	 0.7000235352233 
1757	 0.700298781750026 
1758	 0.700531374811806 
1759	 0.700455566605893 
1760	 0.700627924182128 
1761	 0.700995880007178 
1762	 0.70137146771397 
1763	 0.701973584157473 
1764	 0.702373654864029 
1765	 0.702556196143181 
1766	 0.702809904356575 
1767	 0.702994328130073 
1768	 0.703330748910586 
1769	 0.703835435253049 
1770	 0.704254549897382 
1771	 0.704722567135956 
1772	 0.70502321928628 
1773	 0.705141579344192 
1774	 0.705717614370383 
1775	 0.706060499581904 
1776	 0.706320701780522 
1777	 0.706777693357473 
1778	 0.7068731927497 
1779	 0.706913768480805 
1780	 0.707272311573825 
1781	 0.707498450566547 
1782	 0.707667314221234 
1783	 0.708108737041882 
1784	 0.708661115657795 
1785	 0.709113022849561 
1786	 0.709467551606899 
1787	 0.70999788076958 
1788	 0.710641795552688 
1789	 0.711416318829289 
1790	 0.712361428634179 
1791	 0.712886965844386 
1792	 0.713062034793898 
1793	 0.7131283101894 
1794	 0.712913952697112 
1795	 0.712811324721182 
1796	 0.713065026601859 
1797	 0.713386684493109 
1798	 0.713853239277989 
1799	 0.714576089481861 
1800	 0.714809778680388 
1801	 0.71855469087009 
1802	 0.718492567457903 
1803	 0.718646346389685 
1804	 0.718107735852598 
1805	 0.718383274340157 
1806	 0.720027442087828 
1807	 0.72066386695828 
1808	 0.720638574758945 
1809	 0.720843014514881 
1810	 0.72216680546173 
1811	 0.723946474405478 
1812	 0.725304908039706 
1813	 0.728842268934565 
1814	 0.730003306328516 
1815	 0.7281951962639 
1816	 0.727503060874577 
1817	 0.725228216521925 
1818	 0.724693521667141 
1819	 0.724923827773951 
1820	 0.726448942268477 
1821	 0.726790631340865 
1822	 0.728235118386986 
1823	 0.729390970063353 
1824	 0.72930961198565 
1825	 0.729777818310495 
1826	 0.733440336761073 
1827	 0.734156978265107 
1828	 0.732999803268142 
1829	 0.725892038521994 
1830	 0.724551083468268 
1831	 0.723759463565159 
1832	 0.72200091668505 
1833	 0.729587326598074 
1834	 0.73125774425275 
1835	 0.707776288369449 
1836	 0.707965096242928 
1837	 0.737019140393817 
1838	 0.759581290755277 
1839	 0.789009233214457 
1840	 0.844963673411226 
1841	 0.863364869356242 
1842	 0.878045069184923 
1843	 0.847060986271961 
1844	 0.757574787660944 
1845	 0.72873343086559 
1846	 0.679748903063259 
1847	 0.665415075379907 
1848	 0.673276017572365 
1849	 0.73318328664772 
1850	 0.763035282596177 
1851	 0.80649730064963 
1852	 0.82827624543039 
1853	 0.847173594591711 
1854	 0.849546698569513 
1855	 0.818841030740681 
1856	 0.810592266788442 
1857	 0.802519820059794 
1858	 0.796367395399999 
1859	 0.791297356079271 
1860	 0.797685944825932 
1861	 0.793953457411773 
1862	 0.778530393948641 
1863	 0.769663518058248 
1864	 0.76504994330321 
1865	 0.758516460780487 
1866	 0.733969395520031 
1867	 0.741882323641572 
1868	 0.756088942510815 
1869	 0.74047105731296 
1870	 0.758421935239003 
1871	 0.811843021337755 
1872	 0.826607931685357 
1873	 0.845236838469395 
1874	 0.838259131784933 
1875	 0.797055577256467 
1876	 0.784417278247966 
1877	 0.773993865694468 
1878	 0.776561076229975 
1879	 0.77905117022231 
1880	 0.768471967844897 
1881	 0.76303736326425 
1882	 0.753587397440756 
1883	 0.75103369470735 
1884	 0.749042679129576 
1885	 0.750327271006237 
1886	 0.760920348718568 
1887	 0.759024901108708 
1888	 0.755378980926934 
1889	 0.755581176679235 
1890	 0.750303442463123 
1891	 0.733377176632337 
1892	 0.730683163062777 
1893	 0.736832183218506 
1894	 0.737531625805065 
1895	 0.74639443640054 
1896	 0.748964090459551 
1897	 0.746359546252872 
1898	 0.730663278815037 
1899	 0.724040597877969 
1900	 0.71747818545851 
1901	 0.715425512228288 
1902	 0.721919587630576 
1903	 0.725796002473681 
1904	 0.735663513791614 
1905	 0.74451677258532 
1906	 0.761711042348971 
1907	 0.75523777128019 
1908	 0.738279677293611 
1909	 0.726290566607383 
1910	 0.726718545967658 
1911	 0.730404515058504 
1912	 0.735881826934465 
1913	 0.754760695348797 
1914	 0.756144481515058 
1915	 0.74993564059299 
1916	 0.749114001309082 
1917	 0.747525507183095 
1918	 0.744833371614101 
1919	 0.749980286338553 
1920	 0.750711729596801 
1921	 0.747488783649787 
1922	 0.744347607401702 
1923	 0.741884341325955 
1924	 0.734922789704304 
1925	 0.734931226275871 
1926	 0.740208534558239 
1927	 0.743460181910622 
1928	 0.75007215790578 
1929	 0.750295205883827 
1930	 0.750926001115769 
1931	 0.748065594280003 
1932	 0.743099479449167 
1933	 0.743739284761589 
1934	 0.744183843797902 
1935	 0.744192211636194 
1936	 0.746657417706908 
1937	 0.752684856419052 
1938	 0.754316032916807 
1939	 0.756181094951432 
1940	 0.755801671273471 
1941	 0.752754309105016 
1942	 0.751426771501602 
1943	 0.749600317021782 
1944	 0.749769862086524 
1945	 0.750912686702625 
1946	 0.750134471102643 
1947	 0.750522870996613 
1948	 0.7516461682842 
1949	 0.752221787568342 
1950	 0.75268572795959 
1951	 0.753903590452903 
1952	 0.754360745506535 
1953	 0.754790435268419 
1954	 0.755379295722051 
1955	 0.755467689853213 
1956	 0.756103056607698 
1957	 0.756769091950151 
1958	 0.757432177641909 
1959	 0.758339767226796 
1960	 0.759130367408767 
1961	 0.759733625132495 
1962	 0.760548396708492 
1963	 0.760956957813166 
1964	 0.760853761623464 
1965	 0.761551860699254 
1966	 0.761771253247064 
1967	 0.761414184502085 
1968	 0.761498563072008 
1969	 0.761318744942932 
1970	 0.760196122546209 
1971	 0.760176251345564 
1972	 0.760562113512184 
1973	 0.761266533537192 
1974	 0.762149362434056 
1975	 0.762749430184971 
1976	 0.763360286188903 
1977	 0.76369757731452 
1978	 0.763923894509072 
1979	 0.764642468198091 
1980	 0.765085087279562 
1981	 0.765425486591061 
1982	 0.76573890658694 
1983	 0.766006568247775 
1984	 0.765990529424707 
1985	 0.766385991432607 
1986	 0.767111569101619 
1987	 0.767662875689393 
1988	 0.768307219443491 
1989	 0.768664696971207 
1990	 0.768484190203 
1991	 0.768694572711663 
1992	 0.768952868948951 
1993	 0.76905092048895 
1994	 0.769386221193053 
1995	 0.769743312953123 
1996	 0.77008424403527 
1997	 0.770533644768395 
1998	 0.770758816853619 
1999	 0.770847202478688 
2000	 0.771378874353967 
2001	 0.771349013199328 
2002	 0.772046243680009 
2003	 0.773654199354569 
2004	 0.774175817120409 
2005	 0.775428435096843 
2006	 0.777268394992837 
2007	 0.779702313351857 
2008	 0.781571903712579 
2009	 0.783281573447702 
2010	 0.783667382378887 
2011	 0.783187974637778 
2012	 0.783089338201161 
2013	 0.783789936517528 
2014	 0.784833532138225 
2015	 0.785654371968192 
2016	 0.787060503645847 
2017	 0.78786026423284 
2018	 0.78833444604909 
2019	 0.789157657963913 
2020	 0.790395259250421 
2021	 0.790617410534909 
2022	 0.790938850667681 
2023	 0.791671675445993 
2024	 0.791600434539236 
2025	 0.791624493874584 
2026	 0.791695841385375 
2027	 0.79138295715134 
2028	 0.791776502361441 
2029	 0.7924553119695 
2030	 0.792579209469616 
2031	 0.793140678216455 
2032	 0.793515570904672 
2033	 0.793782951928056 
2034	 0.793442232126827 
2035	 0.793685091769896 
2036	 0.794101493434974 
2037	 0.794464330722258 
2038	 0.795413152451111 
2039	 0.796423893977531 
2040	 0.796930536107254 
2041	 0.797193975616357 
2042	 0.797446715477489 
2043	 0.797671627101374 
2044	 0.797568110032822 
2045	 0.7978254103352 
2046	 0.798378479170783 
2047	 0.798975384920852 
2048	 0.799061650899697 
2049	 0.799832688730862 
2050	 0.800237643475261 
2051	 0.799879908555105 
2052	 0.800363439973126 
2053	 0.800938371744457 
2054	 0.801362968956165 
2055	 0.802261291591015 
2056	 0.802778239216639 
2057	 0.80328079662357 
2058	 0.804356498771443 
2059	 0.805032891217751 
2060	 0.805651770811529 
2061	 0.806274732435133 
2062	 0.806468998477106 
2063	 0.806010022541928 
2064	 0.806071952334153 
2065	 0.806477674961129 
2066	 0.807127221802563 
2067	 0.808279931213594 
2068	 0.809357801381795 
2069	 0.809425008029689 
2070	 0.80948238132876 
2071	 0.810210367736545 
2072	 0.810744181626328 
2073	 0.811002697281846 
2074	 0.812205955360871 
2075	 0.813591407393216 
2076	 0.81373777454957 
2077	 0.814055912315269 
2078	 0.814499301127758 
2079	 0.814652731436917 
2080	 0.815031283439164 
2081	 0.815732680662125 
2082	 0.816263269029504 
2083	 0.816303181798793 
2084	 0.816544939177676 
2085	 0.817043686611915 
2086	 0.8175854583726 
2087	 0.818118365595309 
2088	 0.818916785316985 
2089	 0.819599824996132 
2090	 0.819865389386533 
2091	 0.820317304382406 
2092	 0.821088648804759 
2093	 0.821697956849277 
2094	 0.822290228892736 
2095	 0.822612247563157 
2096	 0.822798195403495 
2097	 0.822993142450236 
2098	 0.823414328588553 
2099	 0.824317528950676 
2100	 0.824866674375877 
2101	 0.825296673266151 
2102	 0.825884876888422 
2103	 0.826635070574333 
2104	 0.826716110495673 
2105	 0.827248889676429 
2106	 0.828528492706932 
2107	 0.829119213580209 
2108	 0.829891266142647 
2109	 0.830808124058461 
2110	 0.830571268477503 
2111	 0.830304479578949 
2112	 0.830621396311316 
2113	 0.83094593367871 
2114	 0.831816751590682 
2115	 0.832779066006645 
2116	 0.833533043942523 
2117	 0.834168165264494 
2118	 0.834279869285337 
2119	 0.834742018586627 
2120	 0.835312844563808 
2121	 0.836100592940856 
2122	 0.836794928369187 
2123	 0.837265365417407 
2124	 0.837793175939744 
2125	 0.838314553570209 
2126	 0.838879810432713 
2127	 0.839606526163858 
2128	 0.84033468266172 
2129	 0.840925420392449 
2130	 0.841285056283711 
2131	 0.841481534926659 
2132	 0.841327125019435 
2133	 0.841060041304259 
2134	 0.841031460894896 
2135	 0.840860727862559 
2136	 0.841262717643328 
2137	 0.841882817446371 
2138	 0.84241142515587 
2139	 0.843104469221157 
2140	 0.84349355042799 
2141	 0.84386017055156 
2142	 0.844057561023064 
2143	 0.843909730915232 
2144	 0.843548332202346 
2145	 0.843310500065675 
2146	 0.842851601831121 
2147	 0.842063057507488 
2148	 0.841890102952104 
2149	 0.841741999431518 
2150	 0.841828843361474 
2151	 0.842012249056948 
2152	 0.842837479337595 
2153	 0.842755997469831 
2154	 0.842264513810363 
2155	 0.841799364705811 
2156	 0.841081324909714 
2157	 0.840875212076556 
2158	 0.841148103361969 
2159	 0.841214600542111 
2160	 0.840893283767141 
2161	 0.84046606493079 
2162	 0.839916868103517 
2163	 0.839084644034178 
2164	 0.838276556073724 
2165	 0.838534853739487 
2166	 0.839150921299998 
2167	 0.838893983119434 
2168	 0.838725131184535 
2169	 0.838796769438103 
2170	 0.838565752099412 
2171	 0.837608429763297 
2172	 0.837634590095067 
2173	 0.838194327680709 
2174	 0.837404149216724 
2175	 0.836452202902388 
2176	 0.835814230570463 
2177	 0.834905869685614 
2178	 0.834805316780024 
2179	 0.834939134907489 
2180	 0.835082078947632 
2181	 0.835896811221939 
2182	 0.836354530424877 
2183	 0.836305169049583 
2184	 0.836187887454645 
2185	 0.835457511979603 
2186	 0.834203819651876 
2187	 0.833491028574085 
2188	 0.833059654866556 
2189	 0.832882945321688 
2190	 0.832943877960606 
2191	 0.83327443977299 
2192	 0.833321806722155 
2193	 0.833204766831891 
2194	 0.833315839158983 
2195	 0.833419619851195 
2196	 0.833469138183187 
2197	 0.833852968328507 
2198	 0.833933376102586 
2199	 0.833374421863083 
2200	 0.833650713289229 
2201	 0.83360544245544 
2202	 0.833208691405964 
2203	 0.833946427383098 
2204	 0.834057090385412 
2205	 0.834023220832542 
2206	 0.834380772566882 
2207	 0.833939077404374 
2208	 0.833641425848159 
2209	 0.833491717025741 
2210	 0.83325904039537 
2211	 0.832757596459638 
2212	 0.83249597261608 
2213	 0.8328762289188 
2214	 0.832938885355048 
2215	 0.833383886770785 
2216	 0.834097716812056 
2217	 0.834615768785608 
2218	 0.835409037397094 
2219	 0.836007016903574 
2220	 0.836266470358116 
2221	 0.835979417655882 
2222	 0.835769101762946 
2223	 0.835429751072152 
2224	 0.834948950618621 
2225	 0.835466479109359 
2226	 0.835611513881845 
2227	 0.835714507896544 
2228	 0.837030134551461 
2229	 0.83782561087362 
2230	 0.837798534525185 
2231	 0.838008842762674 
2232	 0.83819650080255 
2233	 0.837991828505651 
2234	 0.837286323961749 
2235	 0.837642671296688 
2236	 0.837764863689505 
2237	 0.837991881092515 
2238	 0.839017382764807 
2239	 0.839072523093348 
2240	 0.838573952988501 
2241	 0.839354468481442 
2242	 0.839802427894767 
2243	 0.839708544013186 
2244	 0.839687319334176 
2245	 0.838525327312707 
2246	 0.837198768038929 
2247	 0.837142802842513 
2248	 0.83830625778302 
2249	 0.839044495329557 
2250	 0.839229779707807 
2251	 0.839544526404348 
2252	 0.838774450227491 
2253	 0.838649028177637 
2254	 0.839304793543327 
2255	 0.83874976309925 
2256	 0.839006270626823 
2257	 0.839947943214998 
2258	 0.840790779851474 
2259	 0.840770109858733 
2260	 0.842160534733853 
2261	 0.843244303702402 
2262	 0.842965562162876 
2263	 0.842752391533803 
2264	 0.842932759568422 
2265	 0.842748194800987 
2266	 0.842169241238419 
2267	 0.842465090335975 
2268	 0.842464065381285 
2269	 0.841600808531104 
2270	 0.841876664689975 
2271	 0.842707227538496 
2272	 0.843254429979321 
2273	 0.843493553067236 
2274	 0.843737043442244 
2275	 0.843616328827654 
2276	 0.843415424766428 
2277	 0.843795380099336 
2278	 0.843734437239052 
2279	 0.844344582424798 
2280	 0.843977048911547 
2281	 0.842984358064627 
2282	 0.843146472523342 
2283	 0.842490859847696 
2284	 0.842773843147299 
2285	 0.843472004103389 
2286	 0.84401711554794 
2287	 0.844435558586198 
2288	 0.845560651330083 
2289	 0.84569271524626 
2290	 0.845880002252511 
2291	 0.846481807573861 
2292	 0.846986374479427 
2293	 0.847609905917203 
2294	 0.847882215973158 
2295	 0.848280928941128 
2296	 0.84821211470415 
2297	 0.848328738501353 
2298	 0.849681998661092 
2299	 0.850541222916878 
2300	 0.850658032633843 
2301	 0.85098245976626 
2302	 0.851865300131035 
2303	 0.852304963783747 
2304	 0.852053386090454 
2305	 0.851950083763367 
2306	 0.851231059411099 
2307	 0.850835011436937 
2308	 0.851603438342564 
2309	 0.852841920574238 
2310	 0.8533359607157 
2311	 0.85354181776825 
2312	 0.85420346077234 
2313	 0.854454218728383 
2314	 0.855318005632358 
2315	 0.856265011588069 
2316	 0.856948675190181 
2317	 0.857385728534106 
2318	 0.857634983788631 
2319	 0.858523025441332 
2320	 0.859461050694984 
2321	 0.860188817768309 
2322	 0.860729110568066 
2323	 0.861698055896142 
2324	 0.862881057720821 
2325	 0.8634659135458 
2326	 0.864325289482664 
2327	 0.867025422180997 
2328	 0.868236857367059 
2329	 0.868864720062532 
2330	 0.869095925338823 
2331	 0.86775025489505 
2332	 0.86643691645921 
2333	 0.865583130468951 
2334	 0.867248017837493 
2335	 0.868146974006778 
2336	 0.867981690999282 
2337	 0.868451608818645 
2338	 0.866134201063389 
2339	 0.863757624085547 
2340	 0.86344458696402 
2341	 0.864538021167967 
2342	 0.86584334869567 
2343	 0.867133234455399 
2344	 0.867626267856056 
2345	 0.867105852869087 
2346	 0.867918875473227 
2347	 0.869330837401575 
2348	 0.870622468777912 
2349	 0.871500749799888 
2350	 0.871741862873274 
2351	 0.871535581432235 
2352	 0.872124000606077 
2353	 0.871586600523803 
2354	 0.871017571428336 
2355	 0.872951879743273 
2356	 0.872725678245932 
2357	 0.872287070003315 
2358	 0.872433148666555 
2359	 0.870801081121949 
2360	 0.86975934069804 
2361	 0.86968146611782 
2362	 0.871325908887497 
2363	 0.872975467863929 
2364	 0.874962092214245 
2365	 0.877613844872547 
2366	 0.877005245470582 
2367	 0.87531084302472 
2368	 0.874349528509646 
2369	 0.874232254738783 
2370	 0.874415000049158 
2371	 0.876069004964564 
2372	 0.877764849590753 
2373	 0.879453953303089 
2374	 0.879951968445423 
2375	 0.880785656856159 
2376	 0.881164822964341 
2377	 0.880963817070379 
2378	 0.880399636835535 
2379	 0.879605872991312 
2380	 0.878156103561733 
2381	 0.872867329004551 
2382	 0.874593688383503 
2383	 0.883514583189471 
2384	 0.885206387882999 
2385	 0.887176480436824 
2386	 0.886815046588939 
2387	 0.877535897935667 
2388	 0.874821256479885 
2389	 0.876929990592143 
2390	 0.878245387479663 
2391	 0.881608294316708 
2392	 0.882930218892421 
2393	 0.883425647161838 
2394	 0.884324686525789 
2395	 0.883059644693665 
2396	 0.884329781971967 
2397	 0.889279837631702 
2398	 0.890481748091386 
2399	 0.890355077794263 
2400	 0.89111942943565 
2401	 0.890396830072339 
2402	 0.889904673333656 
2403	 0.89116301935737 
2404	 0.891670465709793 
2405	 0.891533605878992 
2406	 0.889723809791228 
2407	 0.883978007704281 
2408	 0.878996497732505 
2409	 0.875916101845215 
2410	 0.871307440353553 
2411	 0.872946259338951 
2412	 0.876104556129749 
2413	 0.872928455671592 
2414	 0.874825237153004 
2415	 0.87415898349237 
2416	 0.873316047667889 
2417	 0.880014787324453 
2418	 0.878202229612368 
2419	 0.878930290305836 
2420	 0.885699923897733 
2421	 0.886484770692876 
2422	 0.887836007964117 
2423	 0.885425429417721 
2424	 0.877996419613826 
2425	 0.877620617547515 
2426	 0.881343521324392 
2427	 0.88689549734011 
2428	 0.895617325531423 
2429	 0.897540977433088 
2430	 0.896362797905768 
2431	 0.895892125887248 
2432	 0.891831869558656 
2433	 0.885046320282052 
2434	 0.884498746661578 
2435	 0.891307523795539 
2436	 0.894929455979075 
2437	 0.904993427726693 
2438	 0.905333648305534 
2439	 0.893387519261481 
2440	 0.886768099232681 
2441	 0.875586605897051 
2442	 0.870558405250305 
2443	 0.874799782074608 
2444	 0.876044473545399 
2445	 0.877422510764197 
2446	 0.877674181226719 
2447	 0.873799720695191 
2448	 0.873507490306843 
2449	 0.877736901429157 
2450	 0.879052592570103 
2451	 0.879148650844453 
2452	 0.882663439037803 
2453	 0.889655967996609 
2454	 0.888513288733792 
2455	 0.883491987130273 
2456	 0.885444220948526 
2457	 0.8841305214135 
2458	 0.885139263385127 
2459	 0.895811121269312 
2460	 0.89882654045019 
2461	 0.895720676666813 
2462	 0.895031155718887 
2463	 0.892102385667241 
2464	 0.892937255368517 
2465	 0.895005436647431 
2466	 0.900581331018262 
2467	 0.915778302091811 
2468	 0.917433846519118 
2469	 0.910343771486655 
2470	 0.908524820664541 
2471	 0.900301299225025 
2472	 0.900874631932563 
2473	 0.917869782025966 
2474	 0.916521732170417 
2475	 0.9017800069419 
2476	 0.895905053792643 
2477	 0.883235834884032 
2478	 0.875074007602823 
2479	 0.869907083380911 
2480	 0.875494449886748 
2481	 0.896021857882489 
2482	 0.903997228296021 
2483	 0.925494360605342 
2484	 0.92438014377591 
2485	 0.889208060364148 
2486	 0.84686210771555 
2487	 0.836136627830799 
2488	 0.857679282248758 
2489	 0.853600586708792 
2490	 0.860978007643352 
2491	 0.878863421501573 
2492	 0.87110191608305 
2493	 0.888044142460189 
2494	 0.917234023731873 
2495	 0.97148569431259 
2496	 1.01124302246614 
2497	 1.00484542962757 
2498	 0.994230774413953 
2499	 0.967441618027423 
2500	 0.988560720892812 
