Wavelength	ref00035.asd
350	 2.75677174879491E-02 
351	 2.78567608149898E-02 
352	 0.027106785912948 
353	 2.76039318497376E-02 
354	 2.72569759842964E-02 
355	 0.027233949953135 
356	 2.79603988188291E-02 
357	 2.70979484495796E-02 
358	 2.68750176609232E-02 
359	 2.74562389527301E-02 
360	 0.028240012828456 
361	 0.028522378526153 
362	 2.84546431312653E-02 
363	 2.83624930549224E-02 
364	 0.028587421382265 
365	 2.88322600009725E-02 
366	 0.028696243840696 
367	 2.83864286087077E-02 
368	 0.028942518943782 
369	 2.90946245040572E-02 
370	 0.028993413283036 
371	 2.90048333015348E-02 
372	 2.89859193058799E-02 
373	 2.93487838907804E-02 
374	 2.97395786109412E-02 
375	 0.029587966005643 
376	 2.98826775017011E-02 
377	 3.02922175039686E-02 
378	 3.05506383710488E-02 
379	 3.06312300795989E-02 
380	 3.09957968780993E-02 
381	 3.13886264027191E-02 
382	 3.15472629987874E-02 
383	 0.031600271862459 
384	 3.18964165255634E-02 
385	 3.23879169697522E-02 
386	 3.28102249569118E-02 
387	 3.28276175278396E-02 
388	 3.33777980855573E-02 
389	 3.42667856180693E-02 
390	 3.41475992521619E-02 
391	 3.45957390235338E-02 
392	 3.52356368056837E-02 
393	 3.56296428783854E-02 
394	 3.60191207743474E-02 
395	 0.036387391101452 
396	 3.69140193540714E-02 
397	 0.037732019738672 
398	 3.85158528953606E-02 
399	 3.88695616634665E-02 
400	 3.91119599402836E-02 
401	 4.00358194757143E-02 
402	 4.06115523072892E-02 
403	 4.11564210189429E-02 
404	 4.19127866321126E-02 
405	 4.25763805570196E-02 
406	 4.31058954278255E-02 
407	 4.35780719779102E-02 
408	 4.41432940515996E-02 
409	 4.50331079868932E-02 
410	 4.58583755962207E-02 
411	 4.65537894715727E-02 
412	 4.73546119254595E-02 
413	 4.81261009298307E-02 
414	 4.88424455217419E-02 
415	 4.95311226547982E-02 
416	 5.02801026791364E-02 
417	 5.11809995032425E-02 
418	 5.19918448095578E-02 
419	 0.052489232308618 
420	 5.31040779283165E-02 
421	 5.39159686933193E-02 
422	 5.47701634038179E-02 
423	 5.53586958549729E-02 
424	 5.60467115376345E-02 
425	 0.056672108804582 
426	 5.71823872942129E-02 
427	 5.79629283759238E-02 
428	 5.86980348101274E-02 
429	 5.93166226433177E-02 
430	 5.98469550698395E-02 
431	 6.03121285854407E-02 
432	 6.08883912848577E-02 
433	 6.15369065761616E-02 
434	 6.20465539304008E-02 
435	 6.26174637890137E-02 
436	 6.31164019080711E-02 
437	 6.35082226715384E-02 
438	 6.40798421810358E-02 
439	 6.45194293106249E-02 
440	 6.49151212389754E-02 
441	 6.54306295101913E-02 
442	 6.58142018036777E-02 
443	 6.62844071046923E-02 
444	 6.68746144935963E-02 
445	 6.74239112702403E-02 
446	 6.79084099312677E-02 
447	 6.82855725036661E-02 
448	 6.86224681780874E-02 
449	 6.92674292295746E-02 
450	 6.98064969607962E-02 
451	 7.01584220888164E-02 
452	 7.04390533104022E-02 
453	 7.10015849348353E-02 
454	 7.15049531672387E-02 
455	 7.18797895378148E-02 
456	 0.072432858441901 
457	 7.28624968399469E-02 
458	 7.32287874013474E-02 
459	 7.36300577133724E-02 
460	 7.40264922089069E-02 
461	 7.43599056609797E-02 
462	 0.074671225805049 
463	 7.50388714879892E-02 
464	 7.53415451977135E-02 
465	 7.56930526726308E-02 
466	 7.61063349611961E-02 
467	 7.64080020622636E-02 
468	 7.67395466825429E-02 
469	 7.70964339050557E-02 
470	 7.74489207504226E-02 
471	 7.78394964343428E-02 
472	 7.81926108996541E-02 
473	 7.85300162720082E-02 
474	 0.078929445457597 
475	 7.92541698634879E-02 
476	 7.95607694619506E-02 
477	 7.98900249217491E-02 
478	 8.01878395010729E-02 
479	 8.06831124979675E-02 
480	 8.11550977170953E-02 
481	 8.13534823496777E-02 
482	 8.17119346664327E-02 
483	 8.20995206908416E-02 
484	 8.24858515376871E-02 
485	 8.29536872826326E-02 
486	 8.33525224165423E-02 
487	 8.37743064688611E-02 
488	 8.42763123847193E-02 
489	 8.46886109388187E-02 
490	 8.52496317268273E-02 
491	 8.57793567723936E-02 
492	 8.60414428493887E-02 
493	 8.66406493021818E-02 
494	 0.08730827153146 
495	 8.79147749844793E-02 
496	 8.85866081292224E-02 
497	 0.089212907558206 
498	 8.98606691396583E-02 
499	 9.06009112280638E-02 
500	 9.13566825132001E-02 
501	 9.23185566710205E-02 
502	 0.093352255626357 
503	 9.41801706553784E-02 
504	 9.52551359358001E-02 
505	 9.62890855197819E-02 
506	 9.72100614703459E-02 
507	 9.84393375339694E-02 
508	 9.97004918766808E-02 
509	 0.101005832978814 
510	 0.102438713403289 
511	 0.104014137376158 
512	 0.105661488160249 
513	 0.107325855295802 
514	 0.108983314720407 
515	 0.110774766753466 
516	 0.112685076725422 
517	 0.114674021573271 
518	 0.116732915781149 
519	 0.118993849002536 
520	 0.1212196259223 
521	 0.123155099266699 
522	 0.125312231255319 
523	 0.127501686840031 
524	 0.129590957613832 
525	 0.131543773941058 
526	 0.133656418428101 
527	 0.135825834251274 
528	 0.137880130677476 
529	 0.139747614379518 
530	 0.14145745701341 
531	 0.143070422293188 
532	 0.144660860093582 
533	 0.146169586692022 
534	 0.147716109460144 
535	 0.149241267438692 
536	 0.150368866647193 
537	 0.151550687701572 
538	 0.152777574742938 
539	 0.153906337312852 
540	 0.154884936171414 
541	 0.155918932743488 
542	 0.156989111623384 
543	 0.157890170546326 
544	 0.158846468342284 
545	 0.159786914012359 
546	 0.160656704479009 
547	 0.161544522499572 
548	 0.162428647065132 
549	 0.16327553287393 
550	 0.164050182171137 
551	 0.164766040875518 
552	 0.165399413432147 
553	 0.165948210983463 
554	 0.166436297312325 
555	 0.166810128627767 
556	 0.167123793702621 
557	 0.16740182227138 
558	 0.167472816608586 
559	 0.167502426048039 
560	 0.167487478957844 
561	 0.167321043928995 
562	 0.167055228126078 
563	 0.166691108992642 
564	 0.166243404578568 
565	 0.165767093383225 
566	 0.165195647657095 
567	 0.164596239006561 
568	 0.164048545040333 
569	 0.163480332294768 
570	 0.162800202525214 
571	 0.16204784381855 
572	 0.161377177790454 
573	 0.160720893917765 
574	 0.16010826921727 
575	 0.159574286705138 
576	 0.159163079589661 
577	 0.158686282362929 
578	 0.158205142211877 
579	 0.157871022176071 
580	 0.157531058068197 
581	 0.157177985136675 
582	 0.156854450154535 
583	 0.156650930620327 
584	 0.156297796820949 
585	 0.155992353890052 
586	 0.155917232611529 
587	 0.155712472866073 
588	 0.155492241112956 
589	 0.155311346258716 
590	 0.155182592567825 
591	 0.155138623374167 
592	 0.155115565450735 
593	 0.155076543063969 
594	 0.155052415372069 
595	 0.155149796806807 
596	 0.155237217314757 
597	 0.155173793448716 
598	 0.155212197721455 
599	 0.155281980008099 
600	 0.155383516926601 
601	 0.155587045974654 
602	 0.155524928435948 
603	 0.155471913339318 
604	 0.155586127523822 
605	 0.155347616500395 
606	 0.155180020675084 
607	 0.155037456666919 
608	 0.154697601164893 
609	 0.154466289861485 
610	 0.154221072901294 
611	 0.153900032366654 
612	 0.153580910099507 
613	 0.15321416231048 
614	 0.152868200225942 
615	 0.152587212243921 
616	 0.152201264479218 
617	 0.151838994023742 
618	 0.151582734647084 
619	 0.151448777038746 
620	 0.151247448191812 
621	 0.151128004451086 
622	 0.151155150767804 
623	 0.151138932536476 
624	 0.151177739068043 
625	 0.151222837070007 
626	 0.151237974692268 
627	 0.151507500844086 
628	 0.151791085566009 
629	 0.15199598799779 
630	 0.152194942463661 
631	 0.152379646516298 
632	 0.152539701042667 
633	 0.1526408534456 
634	 0.152584946478508 
635	 0.152507230838484 
636	 0.152402749424145 
637	 0.152204229796748 
638	 0.151896661570921 
639	 0.151546523408258 
640	 0.151141012820187 
641	 0.15057138708203 
642	 0.149994470094261 
643	 0.149414546424982 
644	 0.148798357500331 
645	 0.148139505374304 
646	 0.147524416785654 
647	 0.146974476990536 
648	 0.146473460625495 
649	 0.14609118724742 
650	 0.145784050658847 
651	 0.145501912478612 
652	 0.145189146298379 
653	 0.145023319161737 
654	 0.144947353851489 
655	 0.144821162935401 
656	 0.144492178876253 
657	 0.144155484553048 
658	 0.143835727627181 
659	 0.143362773619457 
660	 0.142781668931568 
661	 0.142172460262204 
662	 0.141597606887487 
663	 0.141035771004625 
664	 0.140498770277476 
665	 0.139990771670656 
666	 0.139521149843949 
667	 0.139159117130247 
668	 0.138871818398142 
669	 0.138609284926645 
670	 0.138317288760242 
671	 0.138126316281483 
672	 0.138072772595047 
673	 0.138128284571092 
674	 0.138155968012583 
675	 0.138283870268245 
676	 0.138479831034633 
677	 0.138684000749291 
678	 0.139065615986841 
679	 0.13944360645656 
680	 0.139840240656545 
681	 0.140499347915679 
682	 0.141315643092819 
683	 0.14229391357585 
684	 0.143484594929923 
685	 0.145006890103858 
686	 0.146770599907767 
687	 0.148950983871928 
688	 0.151582168147226 
689	 0.15431763305494 
690	 0.157298610206514 
691	 0.160727673432581 
692	 0.164576264902652 
693	 0.16887695335022 
694	 0.173592872172673 
695	 0.17861582305798 
696	 0.18383669600493 
697	 0.189244662933077 
698	 0.194855756161305 
699	 0.200654780807505 
700	 0.206571390196493 
701	 0.212560739523048 
702	 0.218618084224566 
703	 0.224749335947838 
704	 0.230516856202805 
705	 0.236148378604283 
706	 0.241914768319382 
707	 0.24761779685939 
708	 0.253167567812956 
709	 0.258604951397376 
710	 0.263992332752089 
711	 0.269271547464932 
712	 0.27465456629819 
713	 0.28010415099456 
714	 0.285297766560031 
715	 0.290642687579842 
716	 0.295925451349781 
717	 0.301112634910319 
718	 0.306586055644054 
719	 0.312061094960764 
720	 0.317278980052266 
721	 0.322172521642846 
722	 0.326860486207516 
723	 0.331555064675639 
724	 0.336455186093953 
725	 0.341145177400546 
726	 0.345678073569541 
727	 0.349922863458101 
728	 0.353949116675769 
729	 0.357974664971571 
730	 0.361894162639177 
731	 0.365573061051752 
732	 0.368945086767235 
733	 0.372187648765745 
734	 0.375287280443199 
735	 0.378274512811083 
736	 0.381148657059799 
737	 0.383973705027737 
738	 0.386564311184924 
739	 0.38889504716172 
740	 0.391240954962878 
741	 0.393397703228341 
742	 0.395354535666902 
743	 0.397172017297983 
744	 0.398978113515867 
745	 0.400812881342412 
746	 0.402441243939342 
747	 0.403518002424135 
748	 0.404871344159102 
749	 0.406250438896583 
750	 0.407470829910868 
751	 0.408721688513375 
752	 0.409798548988578 
753	 0.410736521134213 
754	 0.411618832759344 
755	 0.412402472053922 
756	 0.413365557293483 
757	 0.41448279797249 
758	 0.41553531738921 
759	 0.416167072364689 
760	 0.416663074246056 
761	 0.417467130744083 
762	 0.418813990053195 
763	 0.419116905868466 
764	 0.419156034484692 
765	 0.41953318191731 
766	 0.419894181939375 
767	 0.42029008915013 
768	 0.420660844632756 
769	 0.420957938368312 
770	 0.421314594437207 
771	 0.42175158357466 
772	 0.422217475367766 
773	 0.422612384581083 
774	 0.422954019075153 
775	 0.423291781464494 
776	 0.423692702769671 
777	 0.424249534842151 
778	 0.424676974606385 
779	 0.425088653100816 
780	 0.425605976669494 
781	 0.425964316380637 
782	 0.426347988371117 
783	 0.426781253519393 
784	 0.427203897753746 
785	 0.427636463323588 
786	 0.428060744299355 
787	 0.428469338957545 
788	 0.428870915613579 
789	 0.429371264666858 
790	 0.429844417282497 
791	 0.430232816865849 
792	 0.430722150731244 
793	 0.431094426108614 
794	 0.431502009212016 
795	 0.432097293010397 
796	 0.432561909062758 
797	 0.432984832929287 
798	 0.433390286106628 
799	 0.433761379686491 
800	 0.434085124974944 
801	 0.434494955356692 
802	 0.434948956723492 
803	 0.435226144365262 
804	 0.435824453760162 
805	 0.436381968554911 
806	 0.436666363727165 
807	 0.437056284606212 
808	 0.4375483070045 
809	 0.438080554014251 
810	 0.438573855315081 
811	 0.439038003735575 
812	 0.439418391405199 
813	 0.439789828340093 
814	 0.440243173912025 
815	 0.440340122788943 
816	 0.440808778646648 
817	 0.441670460821475 
818	 0.442122586187274 
819	 0.442667169738595 
820	 0.443091707193519 
821	 0.443261996371121 
822	 0.443335892744898 
823	 0.443678966681906 
824	 0.444418366191303 
825	 0.445356577231011 
826	 0.445793325009382 
827	 0.44595816299212 
828	 0.446084885877506 
829	 0.44639461827851 
830	 0.446989861077002 
831	 0.447354834181613 
832	 0.447500692696147 
833	 0.447835294752987 
834	 0.448320673204817 
835	 0.44881278484897 
836	 0.449278886175678 
837	 0.449825657480851 
838	 0.450086254112065 
839	 0.450403264538062 
840	 0.450936235318922 
841	 0.451204265684563 
842	 0.451765976463822 
843	 0.452195164860052 
844	 0.452193789006825 
845	 0.452874684136547 
846	 0.453232275804941 
847	 0.453432428376399 
848	 0.453998472702329 
849	 0.454296531484091 
850	 0.454523044064967 
851	 0.454945775501708 
852	 0.455671700743287 
853	 0.455344193728125 
854	 0.455026177065407 
855	 0.45561497958189 
856	 0.457263271866982 
857	 0.45773307082949 
858	 0.457734113372578 
859	 0.458012619041501 
860	 0.458514762864825 
861	 0.459137477953514 
862	 0.459643444044486 
863	 0.459912303029162 
864	 0.460204395264277 
865	 0.460160641629644 
866	 0.460197403203418 
867	 0.460812110672415 
868	 0.461762262736541 
869	 0.462257961218716 
870	 0.462440023056794 
871	 0.46283525914345 
872	 0.46331993551054 
873	 0.463478300090224 
874	 0.463665902532691 
875	 0.464575058441668 
876	 0.465022579750206 
877	 0.46540972923066 
878	 0.465839873314292 
879	 0.466017256470701 
880	 0.466402165820939 
881	 0.466806000195132 
882	 0.467140805125405 
883	 0.467584626087992 
884	 0.468259316964758 
885	 0.468727776885379 
886	 0.468817572253115 
887	 0.469028514632318 
888	 0.469182839838726 
889	 0.469659905580097 
890	 0.470590244057399 
891	 0.471215464562388 
892	 0.471491641170567 
893	 0.471620612342222 
894	 0.47189873836988 
895	 0.472547166189383 
896	 0.473107107143434 
897	 0.473264219877412 
898	 0.473036582430105 
899	 0.473385165490527 
900	 0.474066047412125 
901	 0.474748323079524 
902	 0.475242185101411 
903	 0.476149639835526 
904	 0.477272980936326 
905	 0.477893478036741 
906	 0.47730770522926 
907	 0.476660577820182 
908	 0.476781074401776 
909	 0.477679023448957 
910	 0.47859563544787 
911	 0.478808871774399 
912	 0.479166836937007 
913	 0.479665390917886 
914	 0.47948415512353 
915	 0.479993834320132 
916	 0.480617419510208 
917	 0.480966415153199 
918	 0.481217688867509 
919	 0.482041834375755 
920	 0.482626026977165 
921	 0.482773773287361 
922	 0.4832735896085 
923	 0.482851320208819 
924	 0.482862353186098 
925	 0.483884236235224 
926	 0.484559123812295 
927	 0.484175949501823 
928	 0.483767003541452 
929	 0.483778825371426 
930	 0.482683717958407 
931	 0.481717599651908 
932	 0.480265145315186 
933	 0.478587231623418 
934	 0.479744579827983 
935	 0.480799825605846 
936	 0.482922462267667 
937	 0.485749446699638 
938	 0.484413843368806 
939	 0.485391903570076 
940	 0.486953457138991 
941	 0.486877807435117 
942	 0.4856709970611 
943	 0.484177236821503 
944	 0.483851316532331 
945	 0.485020779380272 
946	 0.4854299215212 
947	 0.485187968647927 
948	 0.485083906003743 
949	 0.485182267452447 
950	 0.483634942740564 
951	 0.484333278583589 
952	 0.48486931760508 
953	 0.48369784911056 
954	 0.484279033715368 
955	 0.484842304502023 
956	 0.48535829228609 
957	 0.485626260854449 
958	 0.484413180416523 
959	 0.483773879495035 
960	 0.483792504966631 
961	 0.484125680534788 
962	 0.484624873897203 
963	 0.485224413229678 
964	 0.485110638073625 
965	 0.484581146285755 
966	 0.485796555731665 
967	 0.487072063178417 
968	 0.487999753712367 
969	 0.488264415988321 
970	 0.487369333505752 
971	 0.486574300473079 
972	 0.485756593420039 
973	 0.485624502195132 
974	 0.488003042719536 
975	 0.486338500720159 
976	 0.485817292581379 
977	 0.488194081102493 
978	 0.488288636656398 
979	 0.487737983948911 
980	 0.488416100674986 
981	 0.490122016501687 
982	 0.490541688928187 
983	 0.489954863418006 
984	 0.489882029111968 
985	 0.49018163094559 
986	 0.48948983024273 
987	 0.490652038246364 
988	 0.492147673688357 
989	 0.492645635452807 
990	 0.491950141968024 
991	 0.492854316332804 
992	 0.492859105983316 
993	 0.493110830277979 
994	 0.495642434742354 
995	 0.493425568151764 
996	 0.494404539001568 
997	 0.496570712293372 
998	 0.494937211850099 
999	 0.495996309760617 
1000	 0.495122739776349 
1001	 0.496472338703366 
1002	 0.496847215979632 
1003	 0.497295985243248 
1004	 0.4977106555131 
1005	 0.498257421126012 
1006	 0.498915438773706 
1007	 0.499449066552075 
1008	 0.499975495634036 
1009	 0.500511289668091 
1010	 0.500963177970767 
1011	 0.501462288163665 
1012	 0.501965107918482 
1013	 0.502668604731158 
1014	 0.503245960124769 
1015	 0.503642367683569 
1016	 0.504084611204508 
1017	 0.504472798289861 
1018	 0.504866368400432 
1019	 0.505171616894549 
1020	 0.505594883606239 
1021	 0.5061173316225 
1022	 0.506566834465961 
1023	 0.506962841447665 
1024	 0.507525166362007 
1025	 0.508112660571648 
1026	 0.508394739496636 
1027	 0.508918261963864 
1028	 0.50961369596231 
1029	 0.509966057423445 
1030	 0.510517433718224 
1031	 0.511172136097188 
1032	 0.511623362239166 
1033	 0.512086266594765 
1034	 0.512614004224228 
1035	 0.513088646005147 
1036	 0.513424409401073 
1037	 0.51380259199805 
1038	 0.514116432301061 
1039	 0.514757069086793 
1040	 0.515392155188482 
1041	 0.515964397962303 
1042	 0.516517120550268 
1043	 0.516880030852485 
1044	 0.517222731348133 
1045	 0.517579388310089 
1046	 0.518074947928305 
1047	 0.518685720209037 
1048	 0.519224599209192 
1049	 0.519672430616085 
1050	 0.520111052112397 
1051	 0.520534674385908 
1052	 0.520985293187123 
1053	 0.521245528051603 
1054	 0.521567048222815 
1055	 0.522029663418885 
1056	 0.522264428288742 
1057	 0.522535759052983 
1058	 0.522931566867346 
1059	 0.523169000117243 
1060	 0.523441869151686 
1061	 0.523782894314205 
1062	 0.523877940501574 
1063	 0.523935749908167 
1064	 0.524127254434194 
1065	 0.524319867271003 
1066	 0.524500960260644 
1067	 0.524786056968773 
1068	 0.525093884613906 
1069	 0.525291826566612 
1070	 0.525418492358556 
1071	 0.525477439187379 
1072	 0.525656633425087 
1073	 0.525876058320538 
1074	 0.525838365813562 
1075	 0.525831504317369 
1076	 0.525920604868218 
1077	 0.525880536647322 
1078	 0.525929478001451 
1079	 0.526178323531812 
1080	 0.526356197118968 
1081	 0.526464671576359 
1082	 0.526498087806573 
1083	 0.526616129882786 
1084	 0.526687633172464 
1085	 0.52672730049256 
1086	 0.526877684415663 
1087	 0.527067768467366 
1088	 0.527158958790534 
1089	 0.527196743500479 
1090	 0.527267099259953 
1091	 0.527232044808357 
1092	 0.527251544730734 
1093	 0.527533645302945 
1094	 0.527696249934189 
1095	 0.527776308112887 
1096	 0.52788985589388 
1097	 0.527914784030871 
1098	 0.527999195945969 
1099	 0.528091082156878 
1100	 0.528340019964239 
1101	 0.528526576034911 
1102	 0.528697697941967 
1103	 0.528740423283249 
1104	 0.528835439542094 
1105	 0.528994063602802 
1106	 0.529157177109322 
1107	 0.529396511667987 
1108	 0.52946646987908 
1109	 0.52942687269574 
1110	 0.529346304010515 
1111	 0.529364869053628 
1112	 0.529405504257605 
1113	 0.529518881624356 
1114	 0.529825028749505 
1115	 0.530051835165721 
1116	 0.530316981369186 
1117	 0.530430876554295 
1118	 0.530607876655592 
1119	 0.530592790863396 
1120	 0.530509949475705 
1121	 0.530798413076778 
1122	 0.531187337737531 
1123	 0.531468067041159 
1124	 0.531648332538053 
1125	 0.531713655527485 
1126	 0.531637356699095 
1127	 0.531072716631457 
1128	 0.531045104887452 
1129	 0.531413065890819 
1130	 0.531309799104281 
1131	 0.531358516712408 
1132	 0.531106734326548 
1133	 0.530594702732169 
1134	 0.529772233324582 
1135	 0.529109589547629 
1136	 0.528355454184873 
1137	 0.527524058439604 
1138	 0.526938448451544 
1139	 0.526367256961465 
1140	 0.525839138599749 
1141	 0.525440819915339 
1142	 0.524785265418793 
1143	 0.524130791672975 
1144	 0.523422227070917 
1145	 0.52274014372877 
1146	 0.521964800024969 
1147	 0.521272136779623 
1148	 0.520627469892025 
1149	 0.520013787215462 
1150	 0.519417003072511 
1151	 0.518947232058385 
1152	 0.518689654349511 
1153	 0.518219458781592 
1154	 0.517716152593567 
1155	 0.517351383641833 
1156	 0.517160660584207 
1157	 0.51710793035261 
1158	 0.517098464113202 
1159	 0.517127760467255 
1160	 0.517112839127933 
1161	 0.516944870861131 
1162	 0.516939050559682 
1163	 0.517072001049257 
1164	 0.517134986497144 
1165	 0.517126053446705 
1166	 0.517256274120878 
1167	 0.517420398681744 
1168	 0.517632981015128 
1169	 0.517924811559964 
1170	 0.518307779376502 
1171	 0.518624935479354 
1172	 0.518914633451327 
1173	 0.519210776407032 
1174	 0.519425974717393 
1175	 0.519740217185764 
1176	 0.520046852804284 
1177	 0.520301093073272 
1178	 0.520571203851376 
1179	 0.520801253633999 
1180	 0.520936118438443 
1181	 0.521131127223301 
1182	 0.521370108148765 
1183	 0.521568986050204 
1184	 0.521756662725333 
1185	 0.521936399281031 
1186	 0.522007648079594 
1187	 0.522213770529744 
1188	 0.522483005291251 
1189	 0.522798273050623 
1190	 0.523121212194304 
1191	 0.523386945500377 
1192	 0.523564796228168 
1193	 0.523690464762947 
1194	 0.523848882396183 
1195	 0.523992927968576 
1196	 0.524184328623306 
1197	 0.524385888327672 
1198	 0.52460538401124 
1199	 0.524876472534111 
1200	 0.525130140499454 
1201	 0.525345908612957 
1202	 0.525619600059998 
1203	 0.525903521249047 
1204	 0.526235057948244 
1205	 0.526707096842562 
1206	 0.527048877650249 
1207	 0.527330102605782 
1208	 0.527633771244831 
1209	 0.527896310577529 
1210	 0.528079320621064 
1211	 0.528437216117125 
1212	 0.528740923670667 
1213	 0.529069577420637 
1214	 0.529455287511156 
1215	 0.529722280344018 
1216	 0.529914510084813 
1217	 0.530193580396156 
1218	 0.530370756451636 
1219	 0.53072498390552 
1220	 0.531304859016408 
1221	 0.531692235782441 
1222	 0.532048570688158 
1223	 0.532422030486572 
1224	 0.532720955562632 
1225	 0.533035304954399 
1226	 0.533390782621278 
1227	 0.533736601818418 
1228	 0.534056336522563 
1229	 0.534344870763939 
1230	 0.5347421790439 
1231	 0.535113167978999 
1232	 0.535494897640791 
1233	 0.535900776999678 
1234	 0.536296543249822 
1235	 0.536716909622308 
1236	 0.537051357660406 
1237	 0.53731296408041 
1238	 0.537652785750401 
1239	 0.537980828412705 
1240	 0.538322490033912 
1241	 0.538734210002281 
1242	 0.539101410393595 
1243	 0.539447742194202 
1244	 0.539760910908221 
1245	 0.540007295735128 
1246	 0.540357309685125 
1247	 0.540757727543122 
1248	 0.541100292656742 
1249	 0.541532515627601 
1250	 0.541893496518636 
1251	 0.542119973978721 
1252	 0.54240927651816 
1253	 0.542661999384522 
1254	 0.542872338962757 
1255	 0.543192113297333 
1256	 0.54353284539916 
1257	 0.543902929107598 
1258	 0.544386076084786 
1259	 0.544808477820564 
1260	 0.545219416991604 
1261	 0.545626417132646 
1262	 0.546024620544829 
1263	 0.5464427107693 
1264	 0.546843891293683 
1265	 0.547267200015958 
1266	 0.547832927202665 
1267	 0.54818567107494 
1268	 0.548368251823044 
1269	 0.548613470129244 
1270	 0.548720466058276 
1271	 0.548886974574409 
1272	 0.549101904263385 
1273	 0.549392211820284 
1274	 0.54957316481792 
1275	 0.549719504874258 
1276	 0.549823801512767 
1277	 0.549854104979087 
1278	 0.549962919473695 
1279	 0.550116106174191 
1280	 0.550148912230569 
1281	 0.550211625073519 
1282	 0.550149982140402 
1283	 0.549894540520376 
1284	 0.549750811078882 
1285	 0.54963757128945 
1286	 0.549469564986266 
1287	 0.549292653003672 
1288	 0.549106938447515 
1289	 0.548935217153486 
1290	 0.548660694559055 
1291	 0.548317738246868 
1292	 0.547988649846652 
1293	 0.547539517707079 
1294	 0.547153060137613 
1295	 0.54685018486799 
1296	 0.546496131730929 
1297	 0.546150353392203 
1298	 0.545857705384323 
1299	 0.545366846693751 
1300	 0.544754694444848 
1301	 0.544234860053122 
1302	 0.543596313627261 
1303	 0.543062196026183 
1304	 0.542677841649143 
1305	 0.542157675054551 
1306	 0.541540316012698 
1307	 0.540995112827497 
1308	 0.540481814369806 
1309	 0.539913058046093 
1310	 0.539337158357662 
1311	 0.53875732498585 
1312	 0.53814825709583 
1313	 0.53750587608516 
1314	 0.536886556774176 
1315	 0.536213014520822 
1316	 0.53551151081424 
1317	 0.534733046096313 
1318	 0.533819029702938 
1319	 0.53299330747591 
1320	 0.532126992069444 
1321	 0.531283908895735 
1322	 0.530466237430666 
1323	 0.529706114914851 
1324	 0.528946746198445 
1325	 0.528205069450113 
1326	 0.527364866927825 
1327	 0.526538963299017 
1328	 0.525625895121903 
1329	 0.524526097111661 
1330	 0.523534923828828 
1331	 0.522617539417954 
1332	 0.521603619272311 
1333	 0.520552623701586 
1334	 0.519543804589372 
1335	 0.518511492728792 
1336	 0.517484661757012 
1337	 0.516359550565849 
1338	 0.515440554584935 
1339	 0.51462701314178 
1340	 0.513738224687586 
1341	 0.512870553314777 
1342	 0.512061502732027 
1343	 0.510975612558159 
1344	 0.510091213186427 
1345	 0.509410807694004 
1346	 0.508835042681466 
1347	 0.508019578716651 
1348	 0.507154672339848 
1349	 0.506611848676938 
1350	 0.506318962598742 
1351	 0.505832908532136 
1352	 0.506331476568311 
1353	 0.506159127186177 
1354	 0.504932365572444 
1355	 0.504139118530929 
1356	 0.504804042432816 
1357	 0.503185559140996 
1358	 0.497519724377435 
1359	 0.493226205640221 
1360	 0.488994807439897 
1361	 0.482907190637074 
1362	 0.494751541777503 
1363	 0.494483256113569 
1364	 0.475895022122153 
1365	 0.471275321726878 
1366	 0.472819779566416 
1367	 0.473184733411523 
1368	 0.488445266111288 
1369	 0.486765201078515 
1370	 0.471496003072264 
1371	 0.468968288565608 
1372	 0.470225213133265 
1373	 0.467693521107562 
1374	 0.46632755709625 
1375	 0.466852571582283 
1376	 0.465106975138856 
1377	 0.458454774100719 
1378	 0.458494925442419 
1379	 0.46461937297438 
1380	 0.463098879826094 
1381	 0.46156566370983 
1382	 0.456148702044167 
1383	 0.446586969216035 
1384	 0.437357284889391 
1385	 0.428172087460453 
1386	 0.418581189735922 
1387	 0.40708025821337 
1388	 0.400380228345923 
1389	 0.395719154293003 
1390	 0.392054003690617 
1391	 0.39118434145926 
1392	 0.388426596976851 
1393	 0.386572882231714 
1394	 0.381546891614691 
1395	 0.374195654615956 
1396	 0.368014729824492 
1397	 0.360121953229486 
1398	 0.354203617792539 
1399	 0.349174686219168 
1400	 0.345349897033732 
1401	 0.34433131693702 
1402	 0.340465638710535 
1403	 0.336074227898754 
1404	 0.33172951823435 
1405	 0.326491556680949 
1406	 0.321241294846242 
1407	 0.316592892421308 
1408	 0.313709641854789 
1409	 0.310949601610872 
1410	 0.308485268641921 
1411	 0.30637541538068 
1412	 0.305291129798223 
1413	 0.303165669592956 
1414	 0.300464597195543 
1415	 0.298753556115574 
1416	 0.297393055770746 
1417	 0.295650083629 
1418	 0.294331404596357 
1419	 0.292612395157534 
1420	 0.290144552613628 
1421	 0.288714606406126 
1422	 0.287542766337833 
1423	 0.286630734580223 
1424	 0.286355194470972 
1425	 0.285483593277373 
1426	 0.284217759002784 
1427	 0.283502999149518 
1428	 0.282705396337347 
1429	 0.282160621945237 
1430	 0.282187943602837 
1431	 0.281828152047853 
1432	 0.281243785126103 
1433	 0.280762103636702 
1434	 0.280209190016127 
1435	 0.279772687622432 
1436	 0.279414495000909 
1437	 0.279086925871682 
1438	 0.27866883030808 
1439	 0.278512232201283 
1440	 0.278706110831544 
1441	 0.278641968871491 
1442	 0.278467092834375 
1443	 0.278571570340534 
1444	 0.278534665811054 
1445	 0.278024117019433 
1446	 0.278000079823539 
1447	 0.278255631588327 
1448	 0.278372186763696 
1449	 0.278563987465869 
1450	 0.278761043120509 
1451	 0.278900159889102 
1452	 0.279125871307132 
1453	 0.279440357935676 
1454	 0.27971323621313 
1455	 0.279981977715849 
1456	 0.280236375377588 
1457	 0.280464926925123 
1458	 0.280805710843073 
1459	 0.281268964404437 
1460	 0.28159364052289 
1461	 0.281932011213246 
1462	 0.282314171016354 
1463	 0.282479310369336 
1464	 0.283057610580293 
1465	 0.283971623203883 
1466	 0.284873151659051 
1467	 0.28608023193861 
1468	 0.287122129612764 
1469	 0.288000538225674 
1470	 0.289088744908468 
1471	 0.290146705313733 
1472	 0.291284184392258 
1473	 0.292507492066647 
1474	 0.293720285945372 
1475	 0.294868336636751 
1476	 0.296064106997028 
1477	 0.297232983136394 
1478	 0.2984893359154 
1479	 0.299723682339685 
1480	 0.30107626820057 
1481	 0.302531226083186 
1482	 0.303993862664215 
1483	 0.305484044688084 
1484	 0.306983083428589 
1485	 0.308525657323221 
1486	 0.309987662003971 
1487	 0.311351254036327 
1488	 0.312801910364153 
1489	 0.314137436568351 
1490	 0.315397782565792 
1491	 0.316843932872176 
1492	 0.31820837055387 
1493	 0.319554751113917 
1494	 0.321063983269535 
1495	 0.322452983309298 
1496	 0.323834165450982 
1497	 0.325179590786289 
1498	 0.326485297517216 
1499	 0.327920905090331 
1500	 0.329408051196299 
1501	 0.330912199954677 
1502	 0.332534548822344 
1503	 0.334104928187906 
1504	 0.33566267319159 
1505	 0.337187921959922 
1506	 0.338720407396051 
1507	 0.340236995010098 
1508	 0.341707874533694 
1509	 0.343173256970198 
1510	 0.344617435959281 
1511	 0.346112052815668 
1512	 0.347593893382847 
1513	 0.349118721633267 
1514	 0.35074602473829 
1515	 0.35230794925028 
1516	 0.353895851506029 
1517	 0.355398225906939 
1518	 0.356851001214338 
1519	 0.358324311223588 
1520	 0.359751364251888 
1521	 0.361194868046191 
1522	 0.362658584020396 
1523	 0.364128448853006 
1524	 0.365594119843757 
1525	 0.367061023263624 
1526	 0.368586507127079 
1527	 0.370042628721293 
1528	 0.371461982596452 
1529	 0.372867393143087 
1530	 0.374225398852426 
1531	 0.375613282754242 
1532	 0.3770454630806 
1533	 0.378397526635458 
1534	 0.379695295215473 
1535	 0.38103280540387 
1536	 0.38238733333056 
1537	 0.383650813921495 
1538	 0.384876991061376 
1539	 0.386129258336231 
1540	 0.387255316799421 
1541	 0.388493255863719 
1542	 0.389932434216774 
1543	 0.391200507146948 
1544	 0.39240812581308 
1545	 0.393600810743743 
1546	 0.394654913924719 
1547	 0.395778808759256 
1548	 0.396917075757182 
1549	 0.398100894337492 
1550	 0.399346049822408 
1551	 0.400580611541753 
1552	 0.401942368657058 
1553	 0.403146914054979 
1554	 0.404212567517292 
1555	 0.405322937912537 
1556	 0.406315574655385 
1557	 0.40738766481416 
1558	 0.408622158881945 
1559	 0.409732085302213 
1560	 0.410735286269861 
1561	 0.411820317543981 
1562	 0.412857810638989 
1563	 0.413948786180688 
1564	 0.41519563397943 
1565	 0.41640630420779 
1566	 0.417480808810929 
1567	 0.418507718773387 
1568	 0.419531756038273 
1569	 0.420456202241835 
1570	 0.421454643613628 
1571	 0.422495407105151 
1572	 0.423501832265536 
1573	 0.424467332020106 
1574	 0.425492259532495 
1575	 0.426522111215172 
1576	 0.427588501002208 
1577	 0.428716205697941 
1578	 0.42970254395414 
1579	 0.430658158694982 
1580	 0.431556877691601 
1581	 0.432316476125483 
1582	 0.433203711348698 
1583	 0.434100386347533 
1584	 0.435064137906926 
1585	 0.436116708985105 
1586	 0.437066762225509 
1587	 0.438041517490393 
1588	 0.438942792964134 
1589	 0.439732826303598 
1590	 0.440649099770647 
1591	 0.441595409346072 
1592	 0.442552139624511 
1593	 0.443589810113499 
1594	 0.444528905963793 
1595	 0.445469277366751 
1596	 0.446301519677874 
1597	 0.44699307268491 
1598	 0.447886147955963 
1599	 0.448847336386451 
1600	 0.449668846471471 
1601	 0.450524636893768 
1602	 0.451405333641471 
1603	 0.452137194458887 
1604	 0.453012124796332 
1605	 0.454114724967488 
1606	 0.454959076205905 
1607	 0.455624256521496 
1608	 0.456452144459901 
1609	 0.457332068121087 
1610	 0.458046144340781 
1611	 0.458724456232164 
1612	 0.459443813059542 
1613	 0.460003585834512 
1614	 0.460743725392418 
1615	 0.461663463298925 
1616	 0.462470009660187 
1617	 0.46327565215414 
1618	 0.463988702135652 
1619	 0.464638476839736 
1620	 0.465363197786498 
1621	 0.46606207582764 
1622	 0.466754396915755 
1623	 0.467530547160586 
1624	 0.468182596151698 
1625	 0.468739179642428 
1626	 0.469294115392051 
1627	 0.469805688551397 
1628	 0.470367265425896 
1629	 0.470881915519416 
1630	 0.471514736101397 
1631	 0.472272212762685 
1632	 0.472902138839077 
1633	 0.473592949522182 
1634	 0.474103697481966 
1635	 0.474414208023673 
1636	 0.474936364830818 
1637	 0.475481011134641 
1638	 0.475970411444443 
1639	 0.476532520232467 
1640	 0.477067035257216 
1641	 0.477532870848813 
1642	 0.477977769932761 
1643	 0.478442727131028 
1644	 0.47893297560129 
1645	 0.479395671184639 
1646	 0.479744201214191 
1647	 0.480068300586371 
1648	 0.480535739550569 
1649	 0.480927739621718 
1650	 0.481324315455805 
1651	 0.481911030507613 
1652	 0.48231175932993 
1653	 0.482521551115075 
1654	 0.48284331306151 
1655	 0.48327884460287 
1656	 0.483522738867557 
1657	 0.483646645596617 
1658	 0.4838242975666 
1659	 0.483905542556932 
1660	 0.484035524904793 
1661	 0.484043363742486 
1662	 0.483994808917448 
1663	 0.484084908039439 
1664	 0.484165262112727 
1665	 0.484335924389765 
1666	 0.484620921765834 
1667	 0.484791173001163 
1668	 0.484835920687764 
1669	 0.484957488899087 
1670	 0.485070089757738 
1671	 0.485020306930363 
1672	 0.484921210077744 
1673	 0.48473192604846 
1674	 0.484472250826739 
1675	 0.484352340091163 
1676	 0.484397948277104 
1677	 0.484502046877923 
1678	 0.484576591282247 
1679	 0.484555978923104 
1680	 0.484442502875247 
1681	 0.484245158477992 
1682	 0.483935965326998 
1683	 0.483686328029181 
1684	 0.483604246776851 
1685	 0.483553015193591 
1686	 0.483431856547258 
1687	 0.483248899693895 
1688	 0.482988315793604 
1689	 0.482775720887693 
1690	 0.482755619949205 
1691	 0.482548923340381 
1692	 0.482157507950423 
1693	 0.481829463096211 
1694	 0.481472198581012 
1695	 0.48110964874487 
1696	 0.480776928167809 
1697	 0.480466458381607 
1698	 0.480042452076737 
1699	 0.479710009445569 
1700	 0.479509259427245 
1701	 0.47926980618599 
1702	 0.479049045918933 
1703	 0.478858396101711 
1704	 0.478797711741155 
1705	 0.478459532752165 
1706	 0.477915000708021 
1707	 0.477528441882179 
1708	 0.477090058904557 
1709	 0.476592283860066 
1710	 0.476212111353627 
1711	 0.475674922553839 
1712	 0.474770640065493 
1713	 0.474251966682067 
1714	 0.474058114468205 
1715	 0.473621587453288 
1716	 0.47319141130585 
1717	 0.47276700322177 
1718	 0.472177357450833 
1719	 0.471645876843635 
1720	 0.471305724693015 
1721	 0.470776495791079 
1722	 0.469959801477822 
1723	 0.469489143960308 
1724	 0.469190633847065 
1725	 0.46874311035099 
1726	 0.468396845825364 
1727	 0.46805820285885 
1728	 0.467566983986279 
1729	 0.467187415996114 
1730	 0.46693936826589 
1731	 0.466604939664165 
1732	 0.466563647926278 
1733	 0.46630024203548 
1734	 0.465988448264209 
1735	 0.465648126095808 
1736	 0.464858005868933 
1737	 0.464155091057834 
1738	 0.463645335699552 
1739	 0.462909247848228 
1740	 0.462298972862457 
1741	 0.462019797287625 
1742	 0.461558386950354 
1743	 0.460965428359369 
1744	 0.460506418377325 
1745	 0.459958806561669 
1746	 0.459117089893951 
1747	 0.458325777611123 
1748	 0.457574813088986 
1749	 0.456784686821116 
1750	 0.456156172574182 
1751	 0.455395766720527 
1752	 0.454669367925881 
1753	 0.454056076802245 
1754	 0.453278050851521 
1755	 0.452604668470876 
1756	 0.451859159423292 
1757	 0.450723909624504 
1758	 0.44983989603338 
1759	 0.449066002619 
1760	 0.448331336985603 
1761	 0.447754094447745 
1762	 0.44700656110925 
1763	 0.446267213705785 
1764	 0.445447339153858 
1765	 0.444308792036838 
1766	 0.443548723353182 
1767	 0.442956658191826 
1768	 0.442435700409283 
1769	 0.442160021282908 
1770	 0.44180935543615 
1771	 0.441498859684614 
1772	 0.440975559409343 
1773	 0.440362722371773 
1774	 0.44005364589956 
1775	 0.43981878562222 
1776	 0.43959497945112 
1777	 0.439211607443089 
1778	 0.438809849042833 
1779	 0.438363165827618 
1780	 0.438096090530974 
1781	 0.437823286291236 
1782	 0.437153290163219 
1783	 0.436604874697661 
1784	 0.436507497272281 
1785	 0.43657660810215 
1786	 0.436635720500793 
1787	 0.436549745599168 
1788	 0.436637350690382 
1789	 0.436636256113899 
1790	 0.436766485140807 
1791	 0.437461972062993 
1792	 0.437579236391768 
1793	 0.437715201642673 
1794	 0.438076226627621 
1795	 0.437939651544464 
1796	 0.438183805031153 
1797	 0.438161842219543 
1798	 0.4378942152776 
1799	 0.438297099729189 
1800	 0.437471631806477 
1801	 0.433857948107027 
1802	 0.433477612317871 
1803	 0.434290506008999 
1804	 0.436271624805581 
1805	 0.43686635871019 
1806	 0.438032352511285 
1807	 0.438578684529549 
1808	 0.437455326353637 
1809	 0.435178145592148 
1810	 0.435264029022364 
1811	 0.4367238999998 
1812	 0.437601155805329 
1813	 0.439814327347543 
1814	 0.441492059090315 
1815	 0.443948354214009 
1816	 0.444895463490471 
1817	 0.444440423282872 
1818	 0.444574932047932 
1819	 0.444108577100236 
1820	 0.44032129418962 
1821	 0.440258055459302 
1822	 0.444773737647999 
1823	 0.444453543977017 
1824	 0.44108466662662 
1825	 0.440402377873189 
1826	 0.435471797077971 
1827	 0.434253348787784 
1828	 0.436369705647801 
1829	 0.449000733907095 
1830	 0.45918777782304 
1831	 0.479547219746916 
1832	 0.491883759773167 
1833	 0.49847730788955 
1834	 0.507515380888387 
1835	 0.485329363713889 
1836	 0.480127033632731 
1837	 0.486443909338979 
1838	 0.496022327966602 
1839	 0.513160686596531 
1840	 0.564634918701038 
1841	 0.551228018235774 
1842	 0.486107836507612 
1843	 0.483425662621785 
1844	 0.475748089896461 
1845	 0.474510336918304 
1846	 0.53474772433264 
1847	 0.55456647398389 
1848	 0.555985265505508 
1849	 0.514009904641079 
1850	 0.504451828368359 
1851	 0.494543771109877 
1852	 0.478803952173172 
1853	 0.474924881789319 
1854	 0.461664823825619 
1855	 0.442861178644544 
1856	 0.42340277386356 
1857	 0.40033074464997 
1858	 0.371201862061649 
1859	 0.377249965880032 
1860	 0.389572530406627 
1861	 0.40753784305298 
1862	 0.466518546955565 
1863	 0.481971660966789 
1864	 0.486293953632962 
1865	 0.487658913312654 
1866	 0.468557622563449 
1867	 0.445818928378735 
1868	 0.440097608730147 
1869	 0.366695297608773 
1870	 0.346503675089323 
1871	 0.330944496403076 
1872	 0.332590432224001 
1873	 0.401789186405429 
1874	 0.394912004418983 
1875	 0.364308179705282 
1876	 0.337503187090466 
1877	 0.288358613750157 
1878	 0.268462018356527 
1879	 0.264955389138655 
1880	 0.268260675939587 
1881	 0.274451237181883 
1882	 0.293341987615552 
1883	 0.297562078367312 
1884	 0.302540099477894 
1885	 0.300064153174167 
1886	 0.292532283811574 
1887	 0.283120628699058 
1888	 0.265044302152235 
1889	 0.25352161902836 
1890	 0.246705018861811 
1891	 0.239783508609328 
1892	 0.235177427278321 
1893	 0.23487391021239 
1894	 0.238826944815517 
1895	 0.250969019640652 
1896	 0.257605505304781 
1897	 0.279929517030058 
1898	 0.284109080855501 
1899	 0.258630152892759 
1900	 0.23800078685564 
1901	 0.222955533795313 
1902	 0.204567285448999 
1903	 0.183302575337354 
1904	 0.162020112250397 
1905	 0.158388400437927 
1906	 0.158599870532818 
1907	 0.165173988173372 
1908	 0.199754634570129 
1909	 0.23247741438435 
1910	 0.217461591091766 
1911	 0.215707850015865 
1912	 0.210908576536903 
1913	 0.203464379757409 
1914	 0.197208231616366 
1915	 0.190112110566329 
1916	 0.187107056619936 
1917	 0.186478504955593 
1918	 0.182538375595205 
1919	 0.178444121344093 
1920	 0.176057596475594 
1921	 0.173801648923245 
1922	 0.173666575031765 
1923	 0.173833580134243 
1924	 0.177631059369783 
1925	 0.178197263677356 
1926	 0.176440881735598 
1927	 0.176426888172635 
1928	 0.176726267839523 
1929	 0.178061295274894 
1930	 0.177740024398034 
1931	 0.174686855455294 
1932	 0.172376653853561 
1933	 0.171351694534088 
1934	 0.171467324011438 
1935	 0.173782600887413 
1936	 0.174189339063135 
1937	 0.174938259499935 
1938	 0.174465464224434 
1939	 0.172346955629531 
1940	 0.171999625447244 
1941	 0.172847532202988 
1942	 0.171104774641895 
1943	 0.170730966439962 
1944	 0.171983291455428 
1945	 0.172880354542511 
1946	 0.175519520462492 
1947	 0.176972143292669 
1948	 0.178873561803448 
1949	 0.179664530567932 
1950	 0.179661915458649 
1951	 0.179084713677353 
1952	 0.179344529227618 
1953	 0.179346325951217 
1954	 0.178922490688914 
1955	 0.179229554029536 
1956	 0.180177480414873 
1957	 0.18172595519151 
1958	 0.183082221776115 
1959	 0.185583446136701 
1960	 0.186444554661718 
1961	 0.186561238437254 
1962	 0.186112716767499 
1963	 0.186459830622658 
1964	 0.186870695103496 
1965	 0.187477856320335 
1966	 0.188668989229584 
1967	 0.189881036130646 
1968	 0.190928726811209 
1969	 0.191717826244909 
1970	 0.192578264234002 
1971	 0.193433619787789 
1972	 0.194093317430381 
1973	 0.194502011381575 
1974	 0.195571045136557 
1975	 0.196757736912763 
1976	 0.197574287995422 
1977	 0.198646879428034 
1978	 0.199960028201859 
1979	 0.201003386456759 
1980	 0.202083509085754 
1981	 0.203014569871496 
1982	 0.203904926049098 
1983	 0.204611741650907 
1984	 0.20537169139832 
1985	 0.206103732327236 
1986	 0.20714161000554 
1987	 0.208280035763026 
1988	 0.209189427454148 
1989	 0.210012551371021 
1990	 0.210896813598393 
1991	 0.211753059381279 
1992	 0.212277200363478 
1993	 0.21275182639486 
1994	 0.21340450488293 
1995	 0.214073794420428 
1996	 0.214545193769785 
1997	 0.215423285148276 
1998	 0.216776256096005 
1999	 0.217834708009668 
2000	 0.218690296321132 
2001	 0.220183017003947 
2002	 0.22184982045548 
2003	 0.223020363464992 
2004	 0.22445884607226 
2005	 0.225528052289783 
2006	 0.226356890940689 
2007	 0.226602782180343 
2008	 0.226835699840081 
2009	 0.22711235936739 
2010	 0.228591420300326 
2011	 0.229432170746486 
2012	 0.231012086493547 
2013	 0.233530821806749 
2014	 0.234379071372564 
2015	 0.235343383541252 
2016	 0.23615109112819 
2017	 0.23675586866511 
2018	 0.237661672267647 
2019	 0.238262628676247 
2020	 0.238675641372201 
2021	 0.239515234971903 
2022	 0.240421767739058 
2023	 0.240942937646885 
2024	 0.242059613383282 
2025	 0.242807512248702 
2026	 0.242795208031861 
2027	 0.243281603712753 
2028	 0.243501872023803 
2029	 0.243933407089744 
2030	 0.244688162941245 
2031	 0.245288721416547 
2032	 0.245848750998808 
2033	 0.246463846197669 
2034	 0.246672417933283 
2035	 0.247173681252496 
2036	 0.247494834983489 
2037	 0.247436740460035 
2038	 0.247896670674753 
2039	 0.248562514179481 
2040	 0.249163731060713 
2041	 0.24956679204144 
2042	 0.250136513950264 
2043	 0.250365091146905 
2044	 0.250466519702789 
2045	 0.250873552145695 
2046	 0.251714534913975 
2047	 0.25223041609193 
2048	 0.252606476294398 
2049	 0.252595735658839 
2050	 0.252314999809703 
2051	 0.25247915674872 
2052	 0.252807373302482 
2053	 0.25387241609891 
2054	 0.255039363110298 
2055	 0.25559902513624 
2056	 0.256031017598318 
2057	 0.256405018231642 
2058	 0.257022476713176 
2059	 0.257594194539683 
2060	 0.258358076135447 
2061	 0.259092357143966 
2062	 0.259676809007922 
2063	 0.259742702126217 
2064	 0.260062586272556 
2065	 0.261008590730228 
2066	 0.261195480265733 
2067	 0.261555923914545 
2068	 0.262602985551606 
2069	 0.262524633709166 
2070	 0.262698693276585 
2071	 0.263247451030704 
2072	 0.263529824793247 
2073	 0.26332670669372 
2074	 0.263821641152874 
2075	 0.264272338818642 
2076	 0.264537838703507 
2077	 0.265447471593017 
2078	 0.266184934153774 
2079	 0.266837567205027 
2080	 0.267593263545577 
2081	 0.267895843843517 
2082	 0.268349116379581 
2083	 0.269033353379224 
2084	 0.269676114641515 
2085	 0.270580225906913 
2086	 0.271298240920215 
2087	 0.271998832527321 
2088	 0.272635329197695 
2089	 0.273566790255052 
2090	 0.274091393465399 
2091	 0.27448511472159 
2092	 0.275150455273335 
2093	 0.275804341696612 
2094	 0.276548174659298 
2095	 0.277564847405691 
2096	 0.278338315343457 
2097	 0.278614035343302 
2098	 0.27908803683372 
2099	 0.279467342937041 
2100	 0.279719665505914 
2101	 0.280695127790684 
2102	 0.281636859427669 
2103	 0.282808327051147 
2104	 0.283791864103582 
2105	 0.284827817901857 
2106	 0.285535051201403 
2107	 0.28603164424706 
2108	 0.286514321771264 
2109	 0.287021262245225 
2110	 0.287732848920682 
2111	 0.288434938766553 
2112	 0.288919463210485 
2113	 0.2895900006806 
2114	 0.290121977747329 
2115	 0.290393992200258 
2116	 0.290914290161967 
2117	 0.291569066716241 
2118	 0.292193795709179 
2119	 0.293103305123569 
2120	 0.294240782143394 
2121	 0.295718103165134 
2122	 0.296801156911941 
2123	 0.297771260399116 
2124	 0.298706157476645 
2125	 0.298924944236972 
2126	 0.299333992929898 
2127	 0.299684520760748 
2128	 0.30021712555203 
2129	 0.301059521649216 
2130	 0.301853858019114 
2131	 0.303127563330173 
2132	 0.30415281663419 
2133	 0.304986083684429 
2134	 0.305670701995268 
2135	 0.306291010465293 
2136	 0.306695870407162 
2137	 0.307242282342052 
2138	 0.307677034194716 
2139	 0.308232319740281 
2140	 0.309028909923582 
2141	 0.309601905831037 
2142	 0.310030180137693 
2143	 0.311001396882481 
2144	 0.311786941028028 
2145	 0.311947013299852 
2146	 0.312479141274683 
2147	 0.312931495860666 
2148	 0.313222714356416 
2149	 0.313956555051844 
2150	 0.314725086020933 
2151	 0.31526439365953 
2152	 0.315596494130765 
2153	 0.3159542524805 
2154	 0.316274801521412 
2155	 0.316470279190206 
2156	 0.316203467446945 
2157	 0.316013911882601 
2158	 0.316441478790477 
2159	 0.316709371038411 
2160	 0.317266794293957 
2161	 0.317924309867508 
2162	 0.318023675083529 
2163	 0.318590831305825 
2164	 0.318813896273874 
2165	 0.319328716605825 
2166	 0.32036338406644 
2167	 0.320587951383306 
2168	 0.320774315712245 
2169	 0.320921913732831 
2170	 0.321106222464309 
2171	 0.320920705114396 
2172	 0.321115720633828 
2173	 0.321832815546137 
2174	 0.323012044217755 
2175	 0.32379011501027 
2176	 0.32405285617611 
2177	 0.323880325640481 
2178	 0.323716637618995 
2179	 0.323684500068521 
2180	 0.323792444737014 
2181	 0.324068216298302 
2182	 0.324568745584259 
2183	 0.325077571033149 
2184	 0.325269288796118 
2185	 0.325951721248594 
2186	 0.326225789034072 
2187	 0.326306073189612 
2188	 0.326243459321829 
2189	 0.326568480048959 
2190	 0.326787416064154 
2191	 0.32689191587689 
2192	 0.327817806082283 
2193	 0.327939798026823 
2194	 0.327971275982644 
2195	 0.328183500946361 
2196	 0.327865162516141 
2197	 0.32785571921969 
2198	 0.327712457864367 
2199	 0.328147061613304 
2200	 0.329168914532574 
2201	 0.329703417651782 
2202	 0.330332296756904 
2203	 0.33013446594446 
2204	 0.329619501502051 
2205	 0.330071190142 
2206	 0.330431392094181 
2207	 0.330803964054076 
2208	 0.330713944281258 
2209	 0.329873869261023 
2210	 0.3296174218611 
2211	 0.329308312305861 
2212	 0.328960491198165 
2213	 0.329392119978512 
2214	 0.330069449492251 
2215	 0.329941137133954 
2216	 0.330080382180131 
2217	 0.330347373969706 
2218	 0.329957162022305 
2219	 0.330114837730388 
2220	 0.330349707270202 
2221	 0.330059848098741 
2222	 0.330224457902246 
2223	 0.330004135716972 
2224	 0.329856920423522 
2225	 0.329710718900987 
2226	 0.328682556231874 
2227	 0.328287665705199 
2228	 0.328084888229735 
2229	 0.327631334323756 
2230	 0.327612747912018 
2231	 0.327448419240785 
2232	 0.326808174311892 
2233	 0.326205238260041 
2234	 0.32560964890949 
2235	 0.325655094254232 
2236	 0.324918940832853 
2237	 0.323996537726507 
2238	 0.323334205992863 
2239	 0.32189283617463 
2240	 0.320410051939836 
2241	 0.319302910922806 
2242	 0.318188992543212 
2243	 0.317419063724046 
2244	 0.317168932901019 
2245	 0.316802355747282 
2246	 0.316470740994378 
2247	 0.315743629258693 
2248	 0.314318679383299 
2249	 0.312798500479565 
2250	 0.311011452986796 
2251	 0.309809332835622 
2252	 0.308641224574367 
2253	 0.30731100621242 
2254	 0.306901500155011 
2255	 0.306120263419159 
2256	 0.305118667874035 
2257	 0.303963543293538 
2258	 0.30346300418372 
2259	 0.303163796176735 
2260	 0.302161774385983 
2261	 0.301516672585018 
2262	 0.300833853393412 
2263	 0.298744176540265 
2264	 0.297799260247691 
2265	 0.297401623475846 
2266	 0.297023999196331 
2267	 0.297127239258074 
2268	 0.297102076091673 
2269	 0.29699698089229 
2270	 0.296162039160162 
2271	 0.295106443632012 
2272	 0.293936120044106 
2273	 0.292066795284565 
2274	 0.290678650131155 
2275	 0.290763004742678 
2276	 0.290737564067856 
2277	 0.291220042712132 
2278	 0.291643066524269 
2279	 0.290474255270891 
2280	 0.290204662419108 
2281	 0.289689122781435 
2282	 0.288378276351993 
2283	 0.288369673804175 
2284	 0.287994812847489 
2285	 0.287169560519895 
2286	 0.286796661246654 
2287	 0.28735983124912 
2288	 0.287142538707394 
2289	 0.285969465402187 
2290	 0.285175941041381 
2291	 0.284418038754525 
2292	 0.283857907034944 
2293	 0.283471508181954 
2294	 0.28318787562912 
2295	 0.2831000544742 
2296	 0.282206720272948 
2297	 0.281443402327723 
2298	 0.280500599167271 
2299	 0.278257935844606 
2300	 0.276109190453037 
2301	 0.275364494575168 
2302	 0.275998361878074 
2303	 0.275865238821014 
2304	 0.275546948344537 
2305	 0.274733774246621 
2306	 0.272384570496474 
2307	 0.271291649351256 
2308	 0.270752634886161 
2309	 0.269664905099008 
2310	 0.268762473473609 
2311	 0.267778363467442 
2312	 0.266754776654354 
2313	 0.265806591995977 
2314	 0.265265573838879 
2315	 0.264633525111021 
2316	 0.264296774110544 
2317	 0.265407888898394 
2318	 0.265300875146105 
2319	 0.26415840424423 
2320	 0.263678512659329 
2321	 0.263223589814042 
2322	 0.262290340404677 
2323	 0.262088678166493 
2324	 0.262745208626409 
2325	 0.262878014564259 
2326	 0.262051782291464 
2327	 0.261139921516931 
2328	 0.261083835591393 
2329	 0.261388544879171 
2330	 0.261507113340917 
2331	 0.261499312490105 
2332	 0.26005642298634 
2333	 0.257944974677628 
2334	 0.257163374148856 
2335	 0.255938420632685 
2336	 0.257201581191633 
2337	 0.257798007435432 
2338	 0.255579615343074 
2339	 0.255784089221524 
2340	 0.254728090036547 
2341	 0.253206817487352 
2342	 0.253296493259227 
2343	 0.253267214035871 
2344	 0.253559158383105 
2345	 0.253211798399957 
2346	 0.253503108277388 
2347	 0.252812797303417 
2348	 0.250935177964586 
2349	 0.250206478342986 
2350	 0.250285793204207 
2351	 0.250099598991899 
2352	 0.24824286791637 
2353	 0.247767374315768 
2354	 0.246463644220999 
2355	 0.2447842214472 
2356	 0.246847069633312 
2357	 0.245821194602773 
2358	 0.24353742461195 
2359	 0.244757657498193 
2360	 0.242960126435693 
2361	 0.240636178213847 
2362	 0.241504430184931 
2363	 0.240464642742159 
2364	 0.239419348043455 
2365	 0.240532106207506 
2366	 0.240140598936412 
2367	 0.238324452543644 
2368	 0.238603633221505 
2369	 0.239718649344373 
2370	 0.238293153505331 
2371	 0.238544376748639 
2372	 0.239187562638734 
2373	 0.23864190935572 
2374	 0.238666992367877 
2375	 0.240905199438307 
2376	 0.240415505349856 
2377	 0.238452926726192 
2378	 0.237063368489795 
2379	 0.235230174849121 
2380	 0.235367753883799 
2381	 0.235918699410682 
2382	 0.236230659683488 
2383	 0.238029340183419 
2384	 0.237799834716612 
2385	 0.236368035679513 
2386	 0.234386736518915 
2387	 0.231100766017433 
2388	 0.227347762855184 
2389	 0.22136509396892 
2390	 0.219908317912745 
2391	 0.221149339727562 
2392	 0.221929151093657 
2393	 0.226102359637257 
2394	 0.227708313188815 
2395	 0.227753329272391 
2396	 0.226312094941951 
2397	 0.222199893482532 
2398	 0.220569623877725 
2399	 0.217862660361051 
2400	 0.21789068490966 
2401	 0.221985918898182 
2402	 0.224006456816101 
2403	 0.224173078396745 
2404	 0.22493718472567 
2405	 0.221974938136935 
2406	 0.217686810818734 
2407	 0.217020116460864 
2408	 0.218762958110401 
2409	 0.223063876884007 
2410	 0.228642298978607 
2411	 0.230787156866803 
2412	 0.228049599566967 
2413	 0.220740556164564 
2414	 0.217040188401075 
2415	 0.2153382631775 
2416	 0.212719491471679 
2417	 0.214886253187772 
2418	 0.216319049495346 
2419	 0.218994865455934 
2420	 0.21956875621446 
2421	 0.216320539518462 
2422	 0.215849971120256 
2423	 0.213893621132037 
2424	 0.210990868388577 
2425	 0.209318644326838 
2426	 0.203878273956334 
2427	 0.197069721749801 
2428	 0.195619105568955 
2429	 0.195557049748129 
2430	 0.197342421162243 
2431	 0.198984390165865 
2432	 0.197180826400823 
2433	 0.196643764320459 
2434	 0.197549309026511 
2435	 0.202843153683198 
2436	 0.204450265662401 
2437	 0.203711044852297 
2438	 0.202830214849125 
2439	 0.198972221411804 
2440	 0.196452480610376 
2441	 0.19697503574357 
2442	 0.195269440661515 
2443	 0.188923764798758 
2444	 0.187415411804499 
2445	 0.190143927012513 
2446	 0.185528877368424 
2447	 0.175841183206327 
2448	 0.175067240548097 
2449	 0.173160692397061 
2450	 0.173549399134367 
2451	 0.189621969543255 
2452	 0.194907728880985 
2453	 0.190518900947152 
2454	 0.191044482995443 
2455	 0.189622343672802 
2456	 0.187763095064066 
2457	 0.186485406963564 
2458	 0.186422779460721 
2459	 0.18963506294812 
2460	 0.188642130141108 
2461	 0.187259024519008 
2462	 0.184030601376953 
2463	 0.17080450326351 
2464	 0.167513821839221 
2465	 0.171414539042254 
2466	 0.168058295778011 
2467	 0.168322139582006 
2468	 0.167627187187355 
2469	 0.157425054281293 
2470	 0.156579808837185 
2471	 0.166732653009941 
2472	 0.167171902888913 
2473	 0.16120800060453 
2474	 0.169128912081882 
2475	 0.183917052773847 
2476	 0.187061350035039 
2477	 0.20018872480068 
2478	 0.206902182857702 
2479	 0.192467127291526 
2480	 0.186159786682012 
2481	 0.179886105140106 
2482	 0.185072433922293 
2483	 0.201345035277895 
2484	 0.197444171923837 
2485	 0.205271090126467 
2486	 0.19331406593833 
2487	 0.143745060574948 
2488	 0.184332137916135 
2489	 0.191972255284065 
2490	 0.166651378275573 
2491	 0.198818780706273 
2492	 0.150914151724055 
2493	 0.116527183863221 
2494	 0.114632424166568 
2495	 8.40328634013412E-02 
2496	 0.104105519089792 
2497	 0.159480573118984 
2498	 0.189759585598811 
2499	 0.221204052232066 
2500	 0.252303079518941 
