Wavelength	ref00116.asd
350	 2.38355091641495 
351	 2.40838190105365 
352	 2.49439857827683 
353	 2.46622531381482 
354	 2.50991552410384 
355	 2.56491453640069 
356	 2.56327440199328 
357	 2.51816880098485 
358	 2.58987383486407 
359	 2.65654512256928 
360	 2.58211278727254 
361	 2.58620423598575 
362	 2.63137840987525 
363	 2.66994366080155 
364	 2.66007994227025 
365	 2.65987829700867 
366	 2.67511442473725 
367	 2.69485847178706 
368	 2.69574348442014 
369	 2.70372848169654 
370	 2.71645758945174 
371	 2.72262800546751 
372	 2.70222212077568 
373	 2.68180066870181 
374	 2.67931350208786 
375	 2.70092087685959 
376	 2.70385993797658 
377	 2.69469493359968 
378	 2.68288017469112 
379	 2.67429595031397 
380	 2.66177833688768 
381	 2.64560582573273 
382	 2.63104079736587 
383	 2.6334946885678 
384	 2.62977866765697 
385	 2.6213720666735 
386	 2.61640327861523 
387	 2.59301122485344 
388	 2.54982068912768 
389	 2.51398579604317 
390	 2.52889250752076 
391	 2.50421994571345 
392	 2.48099692936269 
393	 2.48350334623016 
394	 2.45100434722914 
395	 2.41659943702813 
396	 2.38863203653229 
397	 2.3646087473514 
398	 2.33229434446336 
399	 2.31172775180282 
400	 2.29597200759772 
401	 2.26095969136373 
402	 2.24483510466542 
403	 2.23162708917978 
404	 2.20854099032422 
405	 2.18149241785185 
406	 2.15806513107085 
407	 2.1371513209519 
408	 2.11522872619991 
409	 2.09478172336817 
410	 2.07389715842506 
411	 2.05321350992394 
412	 2.03573788935069 
413	 2.02143277414045 
414	 2.01002796324943 
415	 1.998706540842 
416	 1.97878769533407 
417	 1.96428708392481 
418	 1.95524121704114 
419	 1.94727081760745 
420	 1.93941475822607 
421	 1.92989542420847 
422	 1.91955118073835 
423	 1.91139768712686 
424	 1.90552064896778 
425	 1.8997449017256 
426	 1.89537776438372 
427	 1.90320542308972 
428	 1.9027170615221 
429	 1.89749763465335 
430	 1.89702733616195 
431	 1.89241204745871 
432	 1.89351562347847 
433	 1.90012209363457 
434	 1.90377838131125 
435	 1.91333173711634 
436	 1.92555729959505 
437	 1.93773427251501 
438	 1.9513847676426 
439	 1.96982936747391 
440	 1.98992352989057 
441	 2.00771128869899 
442	 2.03033897433293 
443	 2.05476648858856 
444	 2.08092578613404 
445	 2.11212471158029 
446	 2.14128830877995 
447	 2.17095989312969 
448	 2.20263084210442 
449	 2.22998953272031 
450	 2.25638153650044 
451	 2.28406045891629 
452	 2.31361466404329 
453	 2.33693895264478 
454	 2.36025973204866 
455	 2.38552903620567 
456	 2.40829010955569 
457	 2.42829686663477 
458	 2.44715660692458 
459	 2.46628026633882 
460	 2.48474005587285 
461	 2.50330449892343 
462	 2.521006581385 
463	 2.53660645028433 
464	 2.55525407194733 
465	 2.56979042153879 
466	 2.57952620007102 
467	 2.59509866347024 
468	 2.60762198206903 
469	 2.61756386403268 
470	 2.62718057964183 
471	 2.63532118687688 
472	 2.64070462057292 
473	 2.64527842763057 
474	 2.65239891622082 
475	 2.6541707078232 
476	 2.65634210845346 
477	 2.66116941889277 
478	 2.66092318574965 
479	 2.66075661797069 
480	 2.66146033732144 
481	 2.66244225728218 
482	 2.66335247867369 
483	 2.66594620601769 
484	 2.66917282782919 
485	 2.66933479491916 
486	 2.66910614330335 
487	 2.66868125649978 
488	 2.66816471073421 
489	 2.66891397556326 
490	 2.6667533807239 
491	 2.66453418356941 
492	 2.66653610539392 
493	 2.66580911834794 
494	 2.66414923983808 
495	 2.66243325000136 
496	 2.65963208999636 
497	 2.65706725880744 
498	 2.65352032086312 
499	 2.64858343925991 
500	 2.64709519543767 
501	 2.64007863082616 
502	 2.62919178570218 
503	 2.62194366941798 
504	 2.61470502549547 
505	 2.60375429773502 
506	 2.59051557700827 
507	 2.58460399411506 
508	 2.57456197052604 
509	 2.56106148687865 
510	 2.54774088833278 
511	 2.53448190265228 
512	 2.51793761527905 
513	 2.49829162795558 
514	 2.47854540415763 
515	 2.45913568502619 
516	 2.43899031615129 
517	 2.416723587285 
518	 2.39124308343164 
519	 2.36120337309586 
520	 2.32943721618104 
521	 2.2991453534901 
522	 2.26631997005558 
523	 2.23451193130105 
524	 2.20422371107198 
525	 2.17282382884166 
526	 2.13898255970549 
527	 2.10367867195357 
528	 2.06899372548071 
529	 2.03874506214416 
530	 2.00951790803494 
531	 1.98109640428919 
532	 1.95457068545008 
533	 1.92776000861497 
534	 1.90342703468326 
535	 1.88244795983517 
536	 1.86190426488125 
537	 1.84072396311103 
538	 1.82219464441285 
539	 1.80889973139313 
540	 1.79459419696439 
541	 1.7808319735944 
542	 1.76858517583863 
543	 1.75818338495124 
544	 1.75128510443479 
545	 1.74612215222854 
546	 1.74170485300518 
547	 1.74014621295982 
548	 1.74043760412827 
549	 1.742055526746 
550	 1.7445346050793 
551	 1.74687552937624 
552	 1.75001816305086 
553	 1.75445441980552 
554	 1.75994934955363 
555	 1.76201310172178 
556	 1.76352677592865 
557	 1.76687169337833 
558	 1.76630054504523 
559	 1.76501573610672 
560	 1.76344102075213 
561	 1.76030937388996 
562	 1.75696016052268 
563	 1.75148176993114 
564	 1.74387267736877 
565	 1.7382160342683 
566	 1.73109383042541 
567	 1.72111969301288 
568	 1.70858793503252 
569	 1.69791147259577 
570	 1.68727116932506 
571	 1.67613194733474 
572	 1.66546905240878 
573	 1.65784818646619 
574	 1.65200732297526 
575	 1.6474635866766 
576	 1.64763554101729 
577	 1.65145458711256 
578	 1.65963609408176 
579	 1.67330136620686 
580	 1.69072800970416 
581	 1.71314901973267 
582	 1.74157122357498 
583	 1.7765505822938 
584	 1.81651764665759 
585	 1.86166552667135 
586	 1.91205298812168 
587	 1.96612869413618 
588	 2.02524628129781 
589	 2.08938358933599 
590	 2.15623572043105 
591	 2.22473150727236 
592	 2.2943789029747 
593	 2.36512280552034 
594	 2.43265012046192 
595	 2.50228356711889 
596	 2.57156110048529 
597	 2.63671284329554 
598	 2.70029485092054 
599	 2.76101297057153 
600	 2.81922295803316 
601	 2.876694987776 
602	 2.93191399443813 
603	 2.98533536531731 
604	 3.03741480936969 
605	 3.08813130381746 
606	 3.13587604538932 
607	 3.18182908398029 
608	 3.22784197018649 
609	 3.26943867071055 
610	 3.30733464491457 
611	 3.34275556630911 
612	 3.37700296361371 
613	 3.41077344635551 
614	 3.44249235593791 
615	 3.470570000626 
616	 3.49649049087829 
617	 3.5210099126307 
618	 3.54390312462857 
619	 3.56456502621977 
620	 3.58150482614241 
621	 3.59671891229238 
622	 3.61156487847516 
623	 3.62526558907507 
624	 3.63874368893011 
625	 3.6502748015978 
626	 3.65852544872591 
627	 3.66925073248368 
628	 3.67769747084088 
629	 3.68364215590156 
630	 3.69141215943114 
631	 3.69907251545421 
632	 3.70498566913988 
633	 3.70917765421172 
634	 3.71558759479322 
635	 3.72376320408397 
636	 3.73199224510457 
637	 3.73844001129396 
638	 3.74593879415752 
639	 3.75434002663249 
640	 3.76298736488518 
641	 3.77069488325895 
642	 3.77958974913314 
643	 3.78827499290505 
644	 3.79521779856227 
645	 3.8009045933026 
646	 3.80712002502208 
647	 3.8134409127983 
648	 3.81835560902609 
649	 3.8245877321983 
650	 3.83034232376322 
651	 3.83404375233047 
652	 3.83561442341288 
653	 3.83666555758174 
654	 3.83810487096055 
655	 3.84059219187636 
656	 3.84470796685327 
657	 3.84883959602169 
658	 3.85189244677342 
659	 3.85447968275295 
660	 3.86039389035845 
661	 3.86655305071201 
662	 3.87081868364964 
663	 3.87487462333721 
664	 3.88097915842296 
665	 3.88684443977866 
666	 3.8900209072522 
667	 3.8957725249147 
668	 3.90228973738062 
669	 3.90781365254342 
670	 3.91125465090084 
671	 3.91553956453668 
672	 3.91895246653334 
673	 3.92042614160198 
674	 3.92251994401076 
675	 3.9239740312701 
676	 3.9233258145697 
677	 3.92022741437325 
678	 3.92099441642621 
679	 3.92167142909101 
680	 3.91935049977066 
681	 3.91320760700305 
682	 3.9086161101411 
683	 3.90071135209456 
684	 3.88673012421106 
685	 3.87426847218351 
686	 3.86150726207786 
687	 3.84437456477842 
688	 3.82105837369419 
689	 3.80316346176892 
690	 3.78166252035007 
691	 3.75429447892191 
692	 3.72838234480307 
693	 3.69904453258198 
694	 3.6688649700478 
695	 3.64117183885505 
696	 3.61704721309571 
697	 3.59475075556513 
698	 3.57132132867104 
699	 3.54476607084034 
700	 3.52128833969318 
701	 3.49754811504004 
702	 3.47325648123184 
703	 3.45228495489279 
704	 3.43282588444315 
705	 3.4138420675957 
706	 3.39459681970725 
707	 3.37505001128386 
708	 3.35700245333785 
709	 3.33976897999888 
710	 3.32196954786002 
711	 3.30502350982083 
712	 3.28780662103503 
713	 3.27065607819367 
714	 3.25550480930675 
715	 3.23680665186781 
716	 3.21630780020875 
717	 3.19602433891084 
718	 3.17560914479146 
719	 3.15958442195539 
720	 3.14652821329168 
721	 3.13243660347411 
722	 3.12091604382487 
723	 3.10744582580085 
724	 3.0903818543258 
725	 3.07323550462303 
726	 3.05813967444915 
727	 3.04421800714165 
728	 3.03004768672298 
729	 3.01589129983016 
730	 3.00143434988202 
731	 2.9878658688552 
732	 2.97621925750895 
733	 2.9647992888448 
734	 2.95187277366648 
735	 2.93763434178297 
736	 2.92417801878375 
737	 2.91201021199113 
738	 2.89955899392705 
739	 2.88624415976557 
740	 2.87483018452875 
741	 2.86387105063529 
742	 2.85264102985115 
743	 2.84093456954162 
744	 2.82932617744801 
745	 2.81724167772897 
746	 2.80527340519653 
747	 2.79471390490961 
748	 2.78413763851863 
749	 2.7726941645842 
750	 2.76053137747528 
751	 2.74923593601803 
752	 2.73875486523361 
753	 2.7291639170626 
754	 2.72002275613814 
755	 2.70916508289333 
756	 2.69968986150747 
757	 2.69112026692109 
758	 2.68140584691816 
759	 2.67672230955453 
760	 2.67223033104124 
761	 2.66391792326768 
762	 2.65616357186733 
763	 2.65347900246254 
764	 2.65093985437779 
765	 2.64681819108677 
766	 2.64730947073524 
767	 2.64416311847016 
768	 2.64019557505611 
769	 2.63958893208327 
770	 2.63800438621345 
771	 2.63581930819603 
772	 2.6341630082518 
773	 2.63416201730278 
774	 2.63074686356631 
775	 2.6278595823017 
776	 2.62720157987758 
777	 2.62443360600638 
778	 2.62100757624976 
779	 2.61804892644238 
780	 2.61605363261559 
781	 2.61349657575396 
782	 2.61057780917232 
783	 2.6076415585561 
784	 2.60477274653627 
785	 2.59969607676083 
786	 2.59473163633599 
787	 2.59063085061159 
788	 2.58608118742512 
789	 2.58028848213351 
790	 2.57533823919858 
791	 2.57183600690083 
792	 2.56621142728943 
793	 2.56103808249235 
794	 2.5566061778805 
795	 2.55212839920958 
796	 2.54546143286737 
797	 2.54025419304045 
798	 2.53612634129325 
799	 2.53060143326184 
800	 2.52530767133546 
801	 2.51952322822283 
802	 2.51353700369091 
803	 2.5087709348172 
804	 2.50379702839678 
805	 2.49773989405143 
806	 2.49107504833753 
807	 2.48677740558769 
808	 2.48018688670909 
809	 2.47348249759721 
810	 2.46893354400912 
811	 2.46026900312129 
812	 2.45160572655547 
813	 2.44382507560401 
814	 2.43592056996081 
815	 2.4283314009957 
816	 2.42038527430622 
817	 2.41225300458602 
818	 2.40505544411612 
819	 2.40060164433023 
820	 2.3966957775122 
821	 2.39130735073613 
822	 2.38384524010128 
823	 2.37719258636842 
824	 2.37052593628099 
825	 2.36309577649641 
826	 2.356884546577 
827	 2.35033443202621 
828	 2.34351900407951 
829	 2.33687372139274 
830	 2.32761009551675 
831	 2.32040020517207 
832	 2.31495453132276 
833	 2.30759797944347 
834	 2.30090106647578 
835	 2.29563512457105 
836	 2.29130245759641 
837	 2.28627326799891 
838	 2.28191133992906 
839	 2.27699328279444 
840	 2.27079816545252 
841	 2.26431670991944 
842	 2.26082392114456 
843	 2.25746158807363 
844	 2.25144798882008 
845	 2.24654040234263 
846	 2.2414534253847 
847	 2.23668857081257 
848	 2.23292189886225 
849	 2.22791610777179 
850	 2.22188571981704 
851	 2.21620774412376 
852	 2.21261978274323 
853	 2.2098052765115 
854	 2.20531682811636 
855	 2.19859456733485 
856	 2.19163563195071 
857	 2.1886232632423 
858	 2.1849001319647 
859	 2.17888724137817 
860	 2.17606412636275 
861	 2.17064805639029 
862	 2.16553427905257 
863	 2.16309828460473 
864	 2.15914110367848 
865	 2.15379671506213 
866	 2.14893071592003 
867	 2.14566512311295 
868	 2.13964980308096 
869	 2.1328366029012 
870	 2.12753242376204 
871	 2.12466913470809 
872	 2.11859200344755 
873	 2.11384827210365 
874	 2.11000085118599 
875	 2.10340258838033 
876	 2.09679591595888 
877	 2.09159995333291 
878	 2.08705512371089 
879	 2.08066816444985 
880	 2.07389526129843 
881	 2.06755421839483 
882	 2.06201996551305 
883	 2.0570498889529 
884	 2.05050353735338 
885	 2.04423174849161 
886	 2.03904180202584 
887	 2.03246121782149 
888	 2.02458392783499 
889	 2.01774859321084 
890	 2.01257324132084 
891	 2.00403128933082 
892	 1.99568141421746 
893	 1.98791129141558 
894	 1.98022126404894 
895	 1.97265567265509 
896	 1.96697963252226 
897	 1.96140977268668 
898	 1.95398735602919 
899	 1.94935257888029 
900	 1.94337910016659 
901	 1.9368020197818 
902	 1.93229294572246 
903	 1.9279344880223 
904	 1.92122160020416 
905	 1.91376334411098 
906	 1.90892039693584 
907	 1.90458620489609 
908	 1.89561764622456 
909	 1.88513297172477 
910	 1.88128718733271 
911	 1.87354540819923 
912	 1.86612497838338 
913	 1.85952465237549 
914	 1.85021448332844 
915	 1.84598682326965 
916	 1.83985610687808 
917	 1.83184273909076 
918	 1.8303807232173 
919	 1.82410874756667 
920	 1.81784289433235 
921	 1.8127003183282 
922	 1.80283317862091 
923	 1.79779343820063 
924	 1.7922795745865 
925	 1.7833854297396 
926	 1.77579821851665 
927	 1.76607780495098 
928	 1.75844082379949 
929	 1.75345506060935 
930	 1.74217557122025 
931	 1.73729136965772 
932	 1.72972817697686 
933	 1.71417575624776 
934	 1.70683413437419 
935	 1.70346491358453 
936	 1.69705686173341 
937	 1.68702716497853 
938	 1.68519759499388 
939	 1.67920076629601 
940	 1.67577222980161 
941	 1.67757106211581 
942	 1.67230143410078 
943	 1.66492474461069 
944	 1.65885332986796 
945	 1.65306249019116 
946	 1.63817998646817 
947	 1.62633664647867 
948	 1.61196517185487 
949	 1.59449865411682 
950	 1.59150054655051 
951	 1.58450617993477 
952	 1.57096671188957 
953	 1.55395267796262 
954	 1.53807262203987 
955	 1.52824826689387 
956	 1.51952492717057 
957	 1.50810303934698 
958	 1.49784724170545 
959	 1.48877097504129 
960	 1.48290926907525 
961	 1.47941329988524 
962	 1.47210822616016 
963	 1.47310154430491 
964	 1.4701532452747 
965	 1.46042203013125 
966	 1.46385111442062 
967	 1.46127333343142 
968	 1.45783808660846 
969	 1.45715954921819 
970	 1.45299942544488 
971	 1.45562688002377 
972	 1.45491086439372 
973	 1.44840001515403 
974	 1.44924848105101 
975	 1.44714650071899 
976	 1.4441094885735 
977	 1.44438733378403 
978	 1.45057572818791 
979	 1.44733497129038 
980	 1.44682597314187 
981	 1.45124153244444 
982	 1.44870579236263 
983	 1.44690538610259 
984	 1.44723093874956 
985	 1.45039074135516 
986	 1.45620306461749 
987	 1.45950252082587 
988	 1.4562217909934 
989	 1.45337279530076 
990	 1.46163800021434 
991	 1.46247172209158 
992	 1.46664535525746 
993	 1.47296510920443 
994	 1.47387673522702 
995	 1.47866336091862 
996	 1.4765831987183 
997	 1.47672686013587 
998	 1.48910823281967 
999	 1.48454432651725 
1000	 1.48449768821525 
1001	 1.50412962342975 
1002	 1.50713855354555 
1003	 1.51033363742728 
1004	 1.5136317587186 
1005	 1.51676111872194 
1006	 1.5205587747803 
1007	 1.52365000835259 
1008	 1.52593681367612 
1009	 1.5285685626441 
1010	 1.53146922115913 
1011	 1.53375628382844 
1012	 1.53563310704824 
1013	 1.53868675562146 
1014	 1.54197684350829 
1015	 1.54542015992473 
1016	 1.54916596888619 
1017	 1.55259059958411 
1018	 1.55630964856098 
1019	 1.55994423585215 
1020	 1.56374731660321 
1021	 1.56815039991388 
1022	 1.57203665852466 
1023	 1.57565833899208 
1024	 1.57910436565981 
1025	 1.58273908007521 
1026	 1.58636569408961 
1027	 1.59017653080073 
1028	 1.59441984266173 
1029	 1.59823372189894 
1030	 1.60161442007807 
1031	 1.60560400206057 
1032	 1.60916317970979 
1033	 1.61260617008084 
1034	 1.61631465485513 
1035	 1.61989681346921 
1036	 1.62292341868293 
1037	 1.62609386604358 
1038	 1.62938197151912 
1039	 1.63269449728478 
1040	 1.63557430803414 
1041	 1.63865372886308 
1042	 1.64257763644084 
1043	 1.64691187261609 
1044	 1.65086404021929 
1045	 1.65462201035943 
1046	 1.65812198014515 
1047	 1.66100941722637 
1048	 1.66431866916568 
1049	 1.66895629904773 
1050	 1.67321529286669 
1051	 1.67793267162055 
1052	 1.68166759898604 
1053	 1.68530837837176 
1054	 1.68900829072151 
1055	 1.69268756097774 
1056	 1.69671833865277 
1057	 1.70055912032652 
1058	 1.70412526807375 
1059	 1.70717809629309 
1060	 1.70980705773266 
1061	 1.71301683073369 
1062	 1.71590486613969 
1063	 1.71869247159927 
1064	 1.72199202113699 
1065	 1.72449793570794 
1066	 1.72654562595848 
1067	 1.72851594936633 
1068	 1.73044134774473 
1069	 1.73156943337868 
1070	 1.73326387300818 
1071	 1.73481437126595 
1072	 1.73576571953921 
1073	 1.73748720774489 
1074	 1.73914888158213 
1075	 1.73958697779128 
1076	 1.73924555573517 
1077	 1.73893616958683 
1078	 1.73847489528911 
1079	 1.7384539250729 
1080	 1.73940682707475 
1081	 1.73926035396803 
1082	 1.73862510182402 
1083	 1.73705060172033 
1084	 1.73618599735053 
1085	 1.73543771798994 
1086	 1.73425327249006 
1087	 1.73333519038488 
1088	 1.73176797405871 
1089	 1.72828320521678 
1090	 1.72485260942098 
1091	 1.72242812385654 
1092	 1.71944588150224 
1093	 1.7160163306839 
1094	 1.7127600088064 
1095	 1.70925477280627 
1096	 1.70567429208626 
1097	 1.70224033471844 
1098	 1.69827002688972 
1099	 1.69419771997434 
1100	 1.68940374642954 
1101	 1.68407887539942 
1102	 1.67918363300339 
1103	 1.67482267155305 
1104	 1.67005237932142 
1105	 1.66549502259872 
1106	 1.6607640088111 
1107	 1.65532908144752 
1108	 1.65005274479226 
1109	 1.64465094194492 
1110	 1.6384179127702 
1111	 1.63172709883458 
1112	 1.62400075401342 
1113	 1.61660040146855 
1114	 1.60868043748917 
1115	 1.60007097966199 
1116	 1.5913477767624 
1117	 1.58171864764103 
1118	 1.57074203630337 
1119	 1.55810368227865 
1120	 1.5444355769586 
1121	 1.53003509688352 
1122	 1.51551010011756 
1123	 1.50183287498141 
1124	 1.48823602169034 
1125	 1.4741439708259 
1126	 1.45875810729133 
1127	 1.44371283838952 
1128	 1.42591581364118 
1129	 1.40792751587464 
1130	 1.38838912754046 
1131	 1.36751590261048 
1132	 1.34635899558497 
1133	 1.32466848718797 
1134	 1.30249673934749 
1135	 1.28052814004793 
1136	 1.25791289288107 
1137	 1.23559913531247 
1138	 1.21370025082268 
1139	 1.19113467255588 
1140	 1.16832081626005 
1141	 1.14547612202835 
1142	 1.12326404866642 
1143	 1.10131016414264 
1144	 1.07969427352392 
1145	 1.05782747114163 
1146	 1.03576453178519 
1147	 1.01451359053084 
1148	 0.993238744121625 
1149	 0.974292804465071 
1150	 0.957514402008636 
1151	 0.941722558336893 
1152	 0.927665993704332 
1153	 0.915118878246463 
1154	 0.904081083278128 
1155	 0.89443223367189 
1156	 0.885579546642562 
1157	 0.877690175018627 
1158	 0.870497147333403 
1159	 0.862942957835234 
1160	 0.856384607299613 
1161	 0.850567629089683 
1162	 0.845080591365536 
1163	 0.839907262657722 
1164	 0.835126916065025 
1165	 0.830543583740792 
1166	 0.826271338448063 
1167	 0.82207341623598 
1168	 0.818407427715192 
1169	 0.815076637890817 
1170	 0.81219830174091 
1171	 0.809398725422251 
1172	 0.806654749480519 
1173	 0.803748092915805 
1174	 0.800467289832997 
1175	 0.797165734327644 
1176	 0.793821230538138 
1177	 0.790456402113837 
1178	 0.787124141759391 
1179	 0.783611882281986 
1180	 0.779983189627429 
1181	 0.776287555822252 
1182	 0.772143974799034 
1183	 0.768584334342208 
1184	 0.765171925320796 
1185	 0.762003793030172 
1186	 0.759454617189727 
1187	 0.756669873759627 
1188	 0.753786150208253 
1189	 0.751081786091545 
1190	 0.748645366754859 
1191	 0.746398286827328 
1192	 0.744705548085677 
1193	 0.7432686217121 
1194	 0.741857199888782 
1195	 0.740646620865837 
1196	 0.739498571389825 
1197	 0.738394956053048 
1198	 0.737447448480465 
1199	 0.736703484906408 
1200	 0.735900110673478 
1201	 0.735048751614608 
1202	 0.734546708491134 
1203	 0.734001572848276 
1204	 0.733886081694423 
1205	 0.734295766961482 
1206	 0.73465432574574 
1207	 0.735138618063233 
1208	 0.735840388889277 
1209	 0.736416406580643 
1210	 0.737447010203316 
1211	 0.739189478923611 
1212	 0.741268488082903 
1213	 0.743646865367948 
1214	 0.746521212934175 
1215	 0.749671335909196 
1216	 0.752870727640194 
1217	 0.756916834427151 
1218	 0.761943250373886 
1219	 0.766532233022567 
1220	 0.771341463212151 
1221	 0.77636201148983 
1222	 0.781246190693167 
1223	 0.786541639087422 
1224	 0.792693815931523 
1225	 0.798266391733042 
1226	 0.803853336729704 
1227	 0.80917970152012 
1228	 0.814220753011671 
1229	 0.818995299638737 
1230	 0.824061088346213 
1231	 0.829058367192032 
1232	 0.833864509190923 
1233	 0.83884247008035 
1234	 0.843272443875984 
1235	 0.847229407297384 
1236	 0.851343626227646 
1237	 0.855332881171778 
1238	 0.859184980538499 
1239	 0.863168001699648 
1240	 0.866702871579401 
1241	 0.86976035037875 
1242	 0.873007032749894 
1243	 0.876212268408407 
1244	 0.879194140837372 
1245	 0.882224328972027 
1246	 0.885013461694634 
1247	 0.88750426425242 
1248	 0.889868416337189 
1249	 0.892151024705257 
1250	 0.894240689001103 
1251	 0.896101389825286 
1252	 0.897869184179169 
1253	 0.89941886025778 
1254	 0.900800759518425 
1255	 0.902052834152985 
1256	 0.903192460472439 
1257	 0.903980645207797 
1258	 0.904452455391754 
1259	 0.904986392756343 
1260	 0.90529378639994 
1261	 0.90550599746792 
1262	 0.90580586307933 
1263	 0.905773118177049 
1264	 0.905299472115212 
1265	 0.904928329105227 
1266	 0.904530298881254 
1267	 0.903947875877722 
1268	 0.903256855216728 
1269	 0.902489705514875 
1270	 0.901756365474607 
1271	 0.900663153322615 
1272	 0.899274789410441 
1273	 0.897952597712247 
1274	 0.896355651336382 
1275	 0.894363405854127 
1276	 0.89259997911399 
1277	 0.890847464063167 
1278	 0.889049034270897 
1279	 0.887296372003834 
1280	 0.885316887633492 
1281	 0.883327000905034 
1282	 0.881043576347971 
1283	 0.878550781634724 
1284	 0.875900567719411 
1285	 0.872942164090541 
1286	 0.870087893156814 
1287	 0.867334347174187 
1288	 0.86417534853608 
1289	 0.860895667401109 
1290	 0.857407619438341 
1291	 0.853419594127275 
1292	 0.849527320274779 
1293	 0.845688001523636 
1294	 0.841593589763978 
1295	 0.837480286308927 
1296	 0.832977749612735 
1297	 0.828172142367562 
1298	 0.823041213795376 
1299	 0.817701794042459 
1300	 0.811996802668819 
1301	 0.806152257810782 
1302	 0.79988756707063 
1303	 0.79389712711962 
1304	 0.78795685305643 
1305	 0.781601941851797 
1306	 0.775248900445959 
1307	 0.768578983128919 
1308	 0.761325979966832 
1309	 0.754200872273903 
1310	 0.747060222079011 
1311	 0.739766481428922 
1312	 0.732424423958346 
1313	 0.724785053294357 
1314	 0.716903606079515 
1315	 0.709021349811679 
1316	 0.700764951811734 
1317	 0.692749918419211 
1318	 0.684893668648005 
1319	 0.676969625043255 
1320	 0.668858450071178 
1321	 0.661096802426382 
1322	 0.653007003805271 
1323	 0.64465844916176 
1324	 0.636411517849377 
1325	 0.627884629977797 
1326	 0.619561023736124 
1327	 0.611310871974283 
1328	 0.602729623188701 
1329	 0.593988176359905 
1330	 0.585209495893759 
1331	 0.576096635922396 
1332	 0.56735946674386 
1333	 0.55873398353643 
1334	 0.550612230114302 
1335	 0.542727426268244 
1336	 0.535405361821138 
1337	 0.528534395598102 
1338	 0.522009914780302 
1339	 0.515689212044897 
1340	 0.509697903353503 
1341	 0.503590297154121 
1342	 0.497942782058921 
1343	 0.492276013969059 
1344	 0.486881170443403 
1345	 0.481903339437071 
1346	 0.476445898983448 
1347	 0.471110839761224 
1348	 0.465189983875174 
1349	 0.459502655036108 
1350	 0.453973604551444 
1351	 0.447560237889786 
1352	 0.441773822013265 
1353	 0.435407187352527 
1354	 0.430295080136092 
1355	 0.423390979952273 
1356	 0.423626439093735 
1357	 0.417573474445583 
1358	 0.408779880507946 
1359	 0.398549102188109 
1360	 0.395567546023759 
1361	 0.378399865519448 
1362	 0.357944485552878 
1363	 0.333721422693479 
1364	 0.286904747720109 
1365	 0.285431783754817 
1366	 0.372577762676887 
1367	 0.376382824096213 
1368	 0.365262477313169 
1369	 0.353490452706989 
1370	 0.310167410789278 
1371	 0.290099804564236 
1372	 0.285597914169052 
1373	 0.278413868140764 
1374	 0.271187717216073 
1375	 0.260388667658884 
1376	 0.254413052322242 
1377	 0.257547286868406 
1378	 0.253150324401987 
1379	 0.252817805131394 
1380	 0.239738986845729 
1381	 0.211547083368108 
1382	 0.20267714327035 
1383	 0.197889348709023 
1384	 0.19137588724883 
1385	 0.198594836752967 
1386	 0.190663857094007 
1387	 0.169370426316617 
1388	 0.163820268154944 
1389	 0.164622429395565 
1390	 0.160035159149461 
1391	 0.155532943552313 
1392	 0.154784576939112 
1393	 0.154399829682092 
1394	 0.151336373914249 
1395	 0.152155053904433 
1396	 0.149929742802008 
1397	 0.14094200255281 
1398	 0.135925176494875 
1399	 0.133812854292438 
1400	 0.13066660873326 
1401	 0.126951464096104 
1402	 0.124129383490746 
1403	 0.121627171023627 
1404	 0.120132122293514 
1405	 0.119249758037752 
1406	 0.119223979979941 
1407	 0.119375566972276 
1408	 0.117510158109359 
1409	 0.117220397112247 
1410	 0.117709841304828 
1411	 0.117169259901549 
1412	 0.117062427358341 
1413	 0.116856136383441 
1414	 0.116459374633991 
1415	 0.114730424327283 
1416	 0.112554952402878 
1417	 0.111208321439099 
1418	 0.108491414434665 
1419	 0.108400766018217 
1420	 0.110519464079385 
1421	 0.110998758262114 
1422	 0.11172326637661 
1423	 0.11151747184927 
1424	 0.110041543176885 
1425	 0.109822257106345 
1426	 0.10999851411319 
1427	 0.110002629366524 
1428	 0.110564788201662 
1429	 0.11063583337348 
1430	 0.110644538389177 
1431	 0.109987269720322 
1432	 0.10831217980998 
1433	 0.107747031661937 
1434	 0.107025900810973 
1435	 0.106780931610227 
1436	 0.107947132275318 
1437	 0.108280323413169 
1438	 0.107903010079534 
1439	 0.108011231632803 
1440	 0.108455328281101 
1441	 0.108559288787614 
1442	 0.108710426802868 
1443	 0.108881734495133 
1444	 0.108540496935533 
1445	 0.107499783549619 
1446	 0.107769693307452 
1447	 0.108346940950196 
1448	 0.108409927419924 
1449	 0.108870752714879 
1450	 0.108806282594207 
1451	 0.108099119211846 
1452	 0.107826089437011 
1453	 0.107644708339211 
1454	 0.107729787459175 
1455	 0.107898544440228 
1456	 0.10800179066893 
1457	 0.108351092750174 
1458	 0.108461194460612 
1459	 0.108440955243881 
1460	 0.108383520701598 
1461	 0.108236145053765 
1462	 0.108216320125291 
1463	 0.108074045926452 
1464	 0.10808584315173 
1465	 0.108447125788399 
1466	 0.108521675090332 
1467	 0.108207675927808 
1468	 0.108387393798649 
1469	 0.108848857726432 
1470	 0.109089826722851 
1471	 0.10967081596776 
1472	 0.10992012823701 
1473	 0.10945535820861 
1474	 0.109673285763053 
1475	 0.110345396489501 
1476	 0.110720304611787 
1477	 0.111428002379787 
1478	 0.111691443056871 
1479	 0.111461268121275 
1480	 0.111378022333998 
1481	 0.110874915717562 
1482	 0.111014192517502 
1483	 0.111750663461001 
1484	 0.112089728097008 
1485	 0.1125808383454 
1486	 0.113006030961357 
1487	 0.113357620173258 
1488	 0.113220531781484 
1489	 0.113359576250112 
1490	 0.113605731749332 
1491	 0.113881761050535 
1492	 0.114424363812007 
1493	 0.115066808497562 
1494	 0.115403768776874 
1495	 0.115584987997811 
1496	 0.115413863218424 
1497	 0.11562440804137 
1498	 0.115802802184538 
1499	 0.116288763784634 
1500	 0.117167195741064 
1501	 0.117525689650794 
1502	 0.117710990440611 
1503	 0.118186880974018 
1504	 0.118638394742522 
1505	 0.118911047722159 
1506	 0.119354354145429 
1507	 0.119684042880473 
1508	 0.119550637092094 
1509	 0.119923351018061 
1510	 0.120695102484212 
1511	 0.121246676267262 
1512	 0.121844961822022 
1513	 0.1223491855132 
1514	 0.122832774101067 
1515	 0.123237613174502 
1516	 0.12347141473459 
1517	 0.123927985042333 
1518	 0.124429015407183 
1519	 0.124958247317656 
1520	 0.125683594642322 
1521	 0.126252904593049 
1522	 0.12667323428552 
1523	 0.12725914523509 
1524	 0.127917201678341 
1525	 0.128534139693391 
1526	 0.129238992281106 
1527	 0.129876436355013 
1528	 0.130327907282712 
1529	 0.131029037220176 
1530	 0.132003842691859 
1531	 0.132705699562222 
1532	 0.133415020138618 
1533	 0.13405928541194 
1534	 0.134378318291504 
1535	 0.134938478145845 
1536	 0.135649364125997 
1537	 0.136362605588997 
1538	 0.137179198455292 
1539	 0.13794049124108 
1540	 0.138739626260957 
1541	 0.139474100662526 
1542	 0.140060345294607 
1543	 0.140803239642626 
1544	 0.141636928142137 
1545	 0.142418457918617 
1546	 0.14337728007864 
1547	 0.144145806881637 
1548	 0.144718783231759 
1549	 0.145342706061685 
1550	 0.145733584975463 
1551	 0.14642328248531 
1552	 0.147403302412136 
1553	 0.148243521789869 
1554	 0.149224444208795 
1555	 0.150127789337796 
1556	 0.150855489913286 
1557	 0.151634229288191 
1558	 0.152644188460757 
1559	 0.153346415664355 
1560	 0.153592823461602 
1561	 0.154207780875336 
1562	 0.154848698693383 
1563	 0.155526649701614 
1564	 0.156407158770017 
1565	 0.157618917895758 
1566	 0.158142307100612 
1567	 0.158701364663759 
1568	 0.159472165771083 
1569	 0.160211634819208 
1570	 0.161069227921817 
1571	 0.162235021184781 
1572	 0.163051316895921 
1573	 0.163663570400987 
1574	 0.164476405471042 
1575	 0.165258027828792 
1576	 0.166128106176008 
1577	 0.167119409684958 
1578	 0.168006426704918 
1579	 0.168863874925412 
1580	 0.169709086931663 
1581	 0.17055097375103 
1582	 0.171321524047597 
1583	 0.172019537436626 
1584	 0.172809939464212 
1585	 0.173594972491194 
1586	 0.174386350705604 
1587	 0.175251307330142 
1588	 0.176042845497681 
1589	 0.176801533565912 
1590	 0.177506846175971 
1591	 0.178178004473699 
1592	 0.178875231690591 
1593	 0.179533415941593 
1594	 0.180190819915175 
1595	 0.180837968059771 
1596	 0.181601624763158 
1597	 0.182323361850301 
1598	 0.183237688906378 
1599	 0.184458630250976 
1600	 0.185297313238084 
1601	 0.186102622311122 
1602	 0.186749513157849 
1603	 0.186972499751817 
1604	 0.187773185294872 
1605	 0.188784359368195 
1606	 0.189746097428878 
1607	 0.19114175368076 
1608	 0.191859817487477 
1609	 0.192154552679175 
1610	 0.192680746839811 
1611	 0.1929457288171 
1612	 0.193521709763694 
1613	 0.194303281098907 
1614	 0.195095150710734 
1615	 0.19608299739336 
1616	 0.196667167447633 
1617	 0.197186928101447 
1618	 0.197629013061175 
1619	 0.197621459699143 
1620	 0.198182495556492 
1621	 0.199065753440538 
1622	 0.199714360121715 
1623	 0.200504592314793 
1624	 0.201128799531566 
1625	 0.201564937701117 
1626	 0.202129468374151 
1627	 0.202763113708333 
1628	 0.203327614991708 
1629	 0.203862371497141 
1630	 0.204423625401188 
1631	 0.204939985311013 
1632	 0.205522153812303 
1633	 0.206239347335805 
1634	 0.206685586776234 
1635	 0.20691584670396 
1636	 0.207570651225239 
1637	 0.208367264925338 
1638	 0.208863524842853 
1639	 0.209542881142756 
1640	 0.21001845307452 
1641	 0.21005933897125 
1642	 0.21036655795089 
1643	 0.210926628112901 
1644	 0.211193098932093 
1645	 0.211118877016291 
1646	 0.211557648339617 
1647	 0.212305611556517 
1648	 0.21261679280264 
1649	 0.213053923355944 
1650	 0.213162974260312 
1651	 0.212742203961559 
1652	 0.212737617393129 
1653	 0.212910337139094 
1654	 0.21295016970451 
1655	 0.213074333758063 
1656	 0.212844475373883 
1657	 0.212391957737853 
1658	 0.211855444669064 
1659	 0.211423961063399 
1660	 0.21103499614103 
1661	 0.210589664434826 
1662	 0.209624952609374 
1663	 0.208897793276929 
1664	 0.208667920105114 
1665	 0.208259584179598 
1666	 0.208003075638083 
1667	 0.207516357371696 
1668	 0.206111707946935 
1669	 0.204651898964964 
1670	 0.203905927784052 
1671	 0.203328760459846 
1672	 0.202681097520235 
1673	 0.202066295331153 
1674	 0.200990645520994 
1675	 0.199590698422736 
1676	 0.198569931530403 
1677	 0.197993574100592 
1678	 0.19729103657226 
1679	 0.196188052944738 
1680	 0.194774322056942 
1681	 0.193247844452584 
1682	 0.191967172720249 
1683	 0.191007755278244 
1684	 0.190142196590956 
1685	 0.189394894958572 
1686	 0.188545564723501 
1687	 0.187416069734889 
1688	 0.186453968599663 
1689	 0.185423451345637 
1690	 0.183967808837976 
1691	 0.182982741643432 
1692	 0.182213760058999 
1693	 0.181421976572357 
1694	 0.180993975941713 
1695	 0.180449293763516 
1696	 0.179750474074341 
1697	 0.179165456101762 
1698	 0.178781564187756 
1699	 0.178151825371065 
1700	 0.177330216092604 
1701	 0.176680739928621 
1702	 0.176059589901185 
1703	 0.175313440311756 
1704	 0.174569682350728 
1705	 0.173859239884406 
1706	 0.172879980481445 
1707	 0.172318190760015 
1708	 0.172266850508344 
1709	 0.171743440259111 
1710	 0.171213302870684 
1711	 0.170499418436347 
1712	 0.169511978412982 
1713	 0.168475217496055 
1714	 0.167183221149873 
1715	 0.166203181499304 
1716	 0.165183666305951 
1717	 0.164306394707047 
1718	 0.163655953843174 
1719	 0.163078062918293 
1720	 0.162670612842101 
1721	 0.162045546648768 
1722	 0.161519351393024 
1723	 0.160959687717692 
1724	 0.160148426532114 
1725	 0.159372998044292 
1726	 0.158659616553486 
1727	 0.158149238485178 
1728	 0.157470517403799 
1729	 0.157267442534463 
1730	 0.157497686656943 
1731	 0.157315529345948 
1732	 0.157619837798581 
1733	 0.157398425530362 
1734	 0.157235318250188 
1735	 0.157154272449998 
1736	 0.156619197953738 
1737	 0.155926611435057 
1738	 0.155369704195174 
1739	 0.155040624704672 
1740	 0.15479766067927 
1741	 0.154659670460134 
1742	 0.154922059405472 
1743	 0.154949388431549 
1744	 0.154597587368033 
1745	 0.15481932001967 
1746	 0.154912088877011 
1747	 0.154329107355378 
1748	 0.154344792330526 
1749	 0.15425424306556 
1750	 0.15329596331848 
1751	 0.153187834286707 
1752	 0.152980313417455 
1753	 0.151996154816009 
1754	 0.152067062291114 
1755	 0.151880258732036 
1756	 0.151115862555133 
1757	 0.151108153187491 
1758	 0.150727231802183 
1759	 0.150280900162038 
1760	 0.150038567144654 
1761	 0.149723386675075 
1762	 0.149268527791776 
1763	 0.148702790707874 
1764	 0.148184820397705 
1765	 0.147495765285436 
1766	 0.147200493256197 
1767	 0.147496822292038 
1768	 0.147515758815831 
1769	 0.147436704025658 
1770	 0.147282858735338 
1771	 0.146794459773349 
1772	 0.146375135493729 
1773	 0.146281098420822 
1774	 0.145476369084524 
1775	 0.145287733112631 
1776	 0.145993727463229 
1777	 0.145771334036861 
1778	 0.146008877155754 
1779	 0.145952666328088 
1780	 0.145316257136754 
1781	 0.144891144853943 
1782	 0.144015644901598 
1783	 0.144207125067423 
1784	 0.144152716048867 
1785	 0.143669108496617 
1786	 0.144538723968913 
1787	 0.144507245511542 
1788	 0.144264491289672 
1789	 0.144506841083098 
1790	 0.143997561473081 
1791	 0.143883577131929 
1792	 0.143167724402904 
1793	 0.142630066668427 
1794	 0.143586957433552 
1795	 0.143617502103394 
1796	 0.143943442691213 
1797	 0.144888113311508 
1798	 0.144266388795565 
1799	 0.143269215414797 
1800	 0.143641640041158 
1801	 0.13835663014347 
1802	 0.139036212836045 
1803	 0.138944120946329 
1804	 0.137997247661194 
1805	 0.136928339443472 
1806	 0.133411477973972 
1807	 0.132115476961989 
1808	 0.130096250489115 
1809	 0.131791007189324 
1810	 0.134247536922383 
1811	 0.141569943564042 
1812	 0.143471886369905 
1813	 0.145909709880833 
1814	 0.145257961099705 
1815	 0.134747549692242 
1816	 0.132143233414147 
1817	 0.13220798074853 
1818	 0.132867740729143 
1819	 0.136114883290561 
1820	 0.148629366691258 
1821	 0.152844464210363 
1822	 0.153699247018237 
1823	 0.155895514845236 
1824	 0.152344342908054 
1825	 0.15410330605619 
1826	 0.164694245058423 
1827	 0.168872510013292 
1828	 0.171374101760353 
1829	 0.174006095976474 
1830	 0.175677038088485 
1831	 0.157831330902411 
1832	 0.161342082364943 
1833	 0.196649734924287 
1834	 0.223229453798468 
1835	 0.27198381646402 
1836	 0.297052357395271 
1837	 0.276925360893709 
1838	 0.257605791055129 
1839	 0.223290004929425 
1840	 0.135304138192878 
1841	 9.35740274963532E-02 
1842	 5.26185956692504E-02 
1843	 0.059157920814977 
1844	 0.155675384683318 
1845	 0.160755807515901 
1846	 0.137291053637498 
1847	 0.128929688096578 
1848	 0.110299373957595 
1849	 1.74536932185487E-02 
1850	 3.34202550806764E-02 
1851	 0.121776981282437 
1852	 0.175962665927145 
1853	 0.317500598693821 
1854	 0.334889339518556 
1855	 0.262874779121681 
1856	 0.236095028506308 
1857	 0.173021127334009 
1858	 0.118379807081308 
1859	 0.111317757789015 
1860	 0.145712291160509 
1861	 0.153666799549114 
1862	 0.175240015320627 
1863	 0.178886541236881 
1864	 0.160807904890967 
1865	 0.166090121235467 
1866	 0.167814773896452 
1867	 0.192662248634672 
1868	 0.256600834165639 
1869	 0.306858528285304 
1870	 0.377786662259536 
1871	 0.517339593095487 
1872	 0.505030069996852 
1873	 0.413602628021311 
1874	 0.370645703501143 
1875	 0.278454846238808 
1876	 0.222407773464307 
1877	 0.221081385913781 
1878	 0.19746031078715 
1879	 0.121160204204483 
1880	 0.072394180034585 
1881	 6.99768033421805E-02 
1882	 0.100229500908571 
1883	 0.11285147045796 
1884	 0.152454467317931 
1885	 0.163118899948661 
1886	 0.163751395950151 
1887	 0.144307018060445 
1888	 0.11924713845195 
1889	 0.131623097126218 
1890	 0.13465940068068 
1891	 0.141098701528811 
1892	 0.137331736163541 
1893	 0.136126410204688 
1894	 0.129162721846432 
1895	 9.11560359538232E-02 
1896	 8.85161191843835E-02 
1897	 0.113564040697666 
1898	 0.148547652571591 
1899	 0.179099782610001 
1900	 0.188695729046458 
1901	 0.230982039932088 
1902	 0.270700958611191 
1903	 0.296160156945867 
1904	 0.369823431433423 
1905	 0.384435176979669 
1906	 0.347272711381168 
1907	 0.224495014367377 
1908	 0.205604932149053 
1909	 0.195746949013318 
1910	 0.15044268523629 
1911	 0.146848095134638 
1912	 0.145446142707095 
1913	 0.134955825204931 
1914	 0.136787291327503 
1915	 0.158752137880816 
1916	 0.158450223627592 
1917	 0.148286877588029 
1918	 0.143182300443456 
1919	 0.135903151789368 
1920	 0.132294366282037 
1921	 0.129033176180767 
1922	 0.124361882236268 
1923	 0.131601836461235 
1924	 0.15462631267565 
1925	 0.158100078322974 
1926	 0.160329493298379 
1927	 0.157921380031804 
1928	 0.143838185631523 
1929	 0.133537157409377 
1930	 0.127529583861584 
1931	 0.1231705657956 
1932	 0.12471760671989 
1933	 0.118073192109064 
1934	 0.113572454042701 
1935	 0.109380383275035 
1936	 0.108337378509948 
1937	 0.108871809252015 
1938	 0.108095470266353 
1939	 0.106424185431286 
1940	 0.109197414009032 
1941	 0.111415918675733 
1942	 0.107267091377484 
1943	 0.105061254619088 
1944	 0.102386780005081 
1945	 0.103941938669179 
1946	 0.106765743541292 
1947	 0.107333911073287 
1948	 0.111472524138812 
1949	 0.112672567980698 
1950	 0.110396074011025 
1951	 0.106446732192576 
1952	 0.109334674016203 
1953	 0.106223925096835 
1954	 0.102853773015166 
1955	 0.100855329793363 
1956	 9.56788036723925E-02 
1957	 9.40451041876754E-02 
1958	 0.09414041982159 
1959	 9.79430868976396E-02 
1960	 9.81368025263983E-02 
1961	 0.098693831163375 
1962	 9.69387675391913E-02 
1963	 9.63310343484953E-02 
1964	 9.70418816860771E-02 
1965	 9.74458636049886E-02 
1966	 9.94526505657865E-02 
1967	 9.92891433787947E-02 
1968	 9.68257970008721E-02 
1969	 9.62160932921721E-02 
1970	 9.63084827528467E-02 
1971	 0.095898488560644 
1972	 0.095134863362619 
1973	 9.60818586201557E-02 
1974	 9.69746653773461E-02 
1975	 9.72655688012632E-02 
1976	 9.75288918444205E-02 
1977	 9.73627022834068E-02 
1978	 9.58284277829287E-02 
1979	 9.32354253295278E-02 
1980	 9.29934516253736E-02 
1981	 9.35743633712722E-02 
1982	 9.34710644652422E-02 
1983	 9.37105332879173E-02 
1984	 9.45059273875232E-02 
1985	 9.35213323510173E-02 
1986	 9.21254469877492E-02 
1987	 9.17435403085873E-02 
1988	 9.14605421193188E-02 
1989	 9.09498601613244E-02 
1990	 9.04444724014081E-02 
1991	 8.97913716982493E-02 
1992	 8.84652630749011E-02 
1993	 8.86162013641892E-02 
1994	 9.09369544870024E-02 
1995	 9.23284482034033E-02 
1996	 9.39577846896952E-02 
1997	 9.65228422397033E-02 
1998	 9.85080705668634E-02 
1999	 9.63877862536716E-02 
2000	 9.47701519678995E-02 
2001	 9.39078488034931E-02 
2002	 0.091542233505715 
2003	 9.28815223929624E-02 
2004	 9.53458423942303E-02 
2005	 9.39185414912865E-02 
2006	 9.32776391143589E-02 
2007	 0.092913839121433 
2008	 9.15836576823227E-02 
2009	 9.09114648462793E-02 
2010	 9.38073066714252E-02 
2011	 9.49346958273333E-02 
2012	 0.094687451648238 
2013	 9.38974590799351E-02 
2014	 9.14685746905925E-02 
2015	 9.00208244647713E-02 
2016	 9.03961463630444E-02 
2017	 8.87643236079394E-02 
2018	 8.73489265807141E-02 
2019	 8.74306193274767E-02 
2020	 8.88781732448323E-02 
2021	 8.82326018281701E-02 
2022	 8.81027855830818E-02 
2023	 0.08856402235846 
2024	 8.75396230242555E-02 
2025	 0.088341333029732 
2026	 8.92119175586356E-02 
2027	 8.83971954703896E-02 
2028	 8.87497815006906E-02 
2029	 8.95331145494134E-02 
2030	 9.00636719803086E-02 
2031	 9.06582459338406E-02 
2032	 9.07694759660546E-02 
2033	 9.05091379430971E-02 
2034	 0.089164108485334 
2035	 8.88285486597334E-02 
2036	 9.03328043512371E-02 
2037	 9.06790573528775E-02 
2038	 9.04092379978028E-02 
2039	 8.97354806513493E-02 
2040	 8.78078414074407E-02 
2041	 8.69069953555725E-02 
2042	 0.086911614139935 
2043	 8.72448491998126E-02 
2044	 8.79467062868641E-02 
2045	 8.87782517131047E-02 
2046	 9.03437596459934E-02 
2047	 9.10915214846828E-02 
2048	 9.10352512107625E-02 
2049	 9.12098170413694E-02 
2050	 9.02373345358641E-02 
2051	 9.04285216302315E-02 
2052	 9.17988887279405E-02 
2053	 9.24019387251081E-02 
2054	 9.29950491394766E-02 
2055	 9.28274784904584E-02 
2056	 9.18935044789439E-02 
2057	 9.17631808909524E-02 
2058	 9.13217351305243E-02 
2059	 9.11101575875665E-02 
2060	 9.08904939114179E-02 
2061	 9.22789980217243E-02 
2062	 9.33158186444647E-02 
2063	 9.40310726129146E-02 
2064	 9.53182411385147E-02 
2065	 9.53508780906517E-02 
2066	 9.40937848395753E-02 
2067	 9.24784795430333E-02 
2068	 9.03380078247644E-02 
2069	 0.088459840397104 
2070	 8.70930894134466E-02 
2071	 0.086694352166089 
2072	 8.69924533550947E-02 
2073	 8.87253708433235E-02 
2074	 8.93939433231333E-02 
2075	 8.97681446534049E-02 
2076	 9.01788940840187E-02 
2077	 0.089288883387605 
2078	 8.92128231282788E-02 
2079	 8.98604008774755E-02 
2080	 9.01915395744472E-02 
2081	 9.08495538189796E-02 
2082	 0.091306307754007 
2083	 9.11969306413135E-02 
2084	 9.10647533507351E-02 
2085	 9.12812957608767E-02 
2086	 9.23525560464345E-02 
2087	 0.092677897545213 
2088	 9.29453911801424E-02 
2089	 9.24469470552198E-02 
2090	 0.092375668808544 
2091	 9.19830231758282E-02 
2092	 9.20759220503286E-02 
2093	 0.093041780965269 
2094	 9.34544570945496E-02 
2095	 9.32709735829284E-02 
2096	 9.32515899203195E-02 
2097	 9.31210661572913E-02 
2098	 9.26274442460605E-02 
2099	 9.20210218199028E-02 
2100	 9.08253189221409E-02 
2101	 9.03233665583341E-02 
2102	 9.00293857577049E-02 
2103	 9.01844855896144E-02 
2104	 9.00671435448762E-02 
2105	 9.01279908923192E-02 
2106	 8.99795203366692E-02 
2107	 9.07780550262208E-02 
2108	 9.24511571674568E-02 
2109	 9.31483018590037E-02 
2110	 9.35965107465503E-02 
2111	 9.33364058474523E-02 
2112	 0.092253792012355 
2113	 9.26206177509529E-02 
2114	 9.29321610018649E-02 
2115	 9.23264142723598E-02 
2116	 9.23830998911139E-02 
2117	 9.26196647064139E-02 
2118	 9.34467450418734E-02 
2119	 9.27438770207821E-02 
2120	 9.16699034642977E-02 
2121	 9.06088251029361E-02 
2122	 8.84575879547974E-02 
2123	 8.74474546930152E-02 
2124	 0.088621432480049 
2125	 8.91072627446855E-02 
2126	 0.089051996501767 
2127	 9.04669360846664E-02 
2128	 9.09277979658409E-02 
2129	 8.99524143319606E-02 
2130	 9.06522214129135E-02 
2131	 9.04017515515753E-02 
2132	 0.088865807126983 
2133	 8.90986659119347E-02 
2134	 8.93239352837558E-02 
2135	 8.95820290595281E-02 
2136	 0.089111190156009 
2137	 9.00310064350992E-02 
2138	 9.12009361565253E-02 
2139	 9.08367958788009E-02 
2140	 0.090055391923151 
2141	 9.02012938044514E-02 
2142	 9.00352902587517E-02 
2143	 8.91486116728141E-02 
2144	 8.94968267005316E-02 
2145	 8.99724214302927E-02 
2146	 8.85273997249773E-02 
2147	 8.83561019644293E-02 
2148	 0.088780345200848 
2149	 8.79725560757736E-02 
2150	 8.88762191185836E-02 
2151	 0.08980081598125 
2152	 9.20851902367221E-02 
2153	 9.21860039748371E-02 
2154	 9.16638003256785E-02 
2155	 0.090798999104611 
2156	 0.088318518417362 
2157	 8.61159773068766E-02 
2158	 8.61923401087332E-02 
2159	 8.59871729454464E-02 
2160	 8.66456521607213E-02 
2161	 8.66056154028762E-02 
2162	 8.56962518542053E-02 
2163	 8.57809242483288E-02 
2164	 8.51433972682216E-02 
2165	 0.085687852915027 
2166	 8.76966327773735E-02 
2167	 8.73702628951061E-02 
2168	 8.70526579809883E-02 
2169	 8.69986501066541E-02 
2170	 8.63354837292671E-02 
2171	 8.44495814012204E-02 
2172	 8.31150522541917E-02 
2173	 8.29865333661516E-02 
2174	 8.14681802008013E-02 
2175	 8.11656562752384E-02 
2176	 8.35272943835255E-02 
2177	 8.56276782353387E-02 
2178	 8.68704263859863E-02 
2179	 8.76843081146757E-02 
2180	 8.84218647288333E-02 
2181	 8.82876389078034E-02 
2182	 8.75636469193121E-02 
2183	 8.77705852040464E-02 
2184	 8.72669859936528E-02 
2185	 8.64313825912063E-02 
2186	 8.63195022755681E-02 
2187	 8.58005381226085E-02 
2188	 8.47215614743813E-02 
2189	 8.43595832244437E-02 
2190	 8.40652174528088E-02 
2191	 8.43011104482374E-02 
2192	 8.42007090886326E-02 
2193	 8.33734116629045E-02 
2194	 8.27995880441008E-02 
2195	 0.082788292257931 
2196	 8.40696442385039E-02 
2197	 8.46768244242008E-02 
2198	 8.56400821016695E-02 
2199	 8.71187389300428E-02 
2200	 8.71339535238353E-02 
2201	 8.87155346500793E-02 
2202	 8.96038220663578E-02 
2203	 8.84378015706979E-02 
2204	 8.92390744763861E-02 
2205	 8.97102706090238E-02 
2206	 0.088866372152875 
2207	 0.088407817074199 
2208	 8.78992585303758E-02 
2209	 8.57733438651504E-02 
2210	 8.55465542672888E-02 
2211	 8.65247294737718E-02 
2212	 8.81776296478746E-02 
2213	 0.088082802116797 
2214	 8.69646975792905E-02 
2215	 8.60927164832503E-02 
2216	 0.083794609941141 
2217	 8.33327405459735E-02 
2218	 8.38958618520071E-02 
2219	 0.083047289495222 
2220	 8.31601751737942E-02 
2221	 8.36861684240255E-02 
2222	 8.43217636840848E-02 
2223	 8.47805488625111E-02 
2224	 8.47762505104282E-02 
2225	 8.51310879976148E-02 
2226	 8.33550933459512E-02 
2227	 8.18056550531397E-02 
2228	 8.31656925081511E-02 
2229	 8.25947113033366E-02 
2230	 8.24780383815756E-02 
2231	 8.31073004785383E-02 
2232	 8.41181187625149E-02 
2233	 8.46002656932525E-02 
2234	 8.51912408820879E-02 
2235	 8.68270006832219E-02 
2236	 8.84023557767609E-02 
2237	 8.80831289879765E-02 
2238	 8.70576082519771E-02 
2239	 8.67673574345855E-02 
2240	 8.56933708959962E-02 
2241	 8.41086749450149E-02 
2242	 0.083714790475208 
2243	 8.40663343964533E-02 
2244	 8.30875935544416E-02 
2245	 0.084454800727987 
2246	 8.63589428963062E-02 
2247	 8.54972859189704E-02 
2248	 8.62443033168701E-02 
2249	 8.58620278611013E-02 
2250	 8.48919588285999E-02 
2251	 8.57060758956251E-02 
2252	 8.48684415355028E-02 
2253	 8.34972100243748E-02 
2254	 8.41925477992037E-02 
2255	 8.63826287134862E-02 
2256	 8.75487275588627E-02 
2257	 8.87890987605334E-02 
2258	 9.16136574126064E-02 
2259	 9.34170586910231E-02 
2260	 9.21908400924302E-02 
2261	 9.12657345556566E-02 
2262	 8.97452245698037E-02 
2263	 8.81174223619478E-02 
2264	 8.67774716323931E-02 
2265	 8.58473330733792E-02 
2266	 8.59465592899132E-02 
2267	 8.62337382130764E-02 
2268	 8.67066679322649E-02 
2269	 8.80692967606681E-02 
2270	 8.95889899931377E-02 
2271	 8.98135183886562E-02 
2272	 0.087757831063268 
2273	 0.086779564634283 
2274	 0.087086820895505 
2275	 8.52781774009234E-02 
2276	 8.56194565296418E-02 
2277	 8.59627437427287E-02 
2278	 8.42382128124774E-02 
2279	 8.46741175700354E-02 
2280	 8.57445116536731E-02 
2281	 8.51861509359642E-02 
2282	 8.41584741642849E-02 
2283	 8.38332885055901E-02 
2284	 8.32144644855276E-02 
2285	 8.23400538915672E-02 
2286	 8.15546751196158E-02 
2287	 8.13106650891705E-02 
2288	 8.09645826166916E-02 
2289	 8.12638393681956E-02 
2290	 8.20281175326677E-02 
2291	 8.37178399161073E-02 
2292	 8.64060521145701E-02 
2293	 8.67566348163416E-02 
2294	 8.84844643725423E-02 
2295	 9.18863251329365E-02 
2296	 9.09137186346359E-02 
2297	 9.01095485368841E-02 
2298	 8.99473665911814E-02 
2299	 8.93299179967737E-02 
2300	 8.95504192844484E-02 
2301	 9.01112100086083E-02 
2302	 0.090710673409189 
2303	 9.04751494801374E-02 
2304	 9.09684450381616E-02 
2305	 9.13870874862663E-02 
2306	 9.11077084401813E-02 
2307	 8.85877819963854E-02 
2308	 8.44889045899556E-02 
2309	 8.27350077305916E-02 
2310	 8.31770760251491E-02 
2311	 8.37788455364958E-02 
2312	 8.50776500536267E-02 
2313	 8.78029490250298E-02 
2314	 8.84675507203396E-02 
2315	 8.87142961697674E-02 
2316	 9.10365993337779E-02 
2317	 9.22803742120233E-02 
2318	 9.31229296860323E-02 
2319	 9.16177592013524E-02 
2320	 8.91255591619936E-02 
2321	 8.91737156985137E-02 
2322	 8.99386918436429E-02 
2323	 8.96362938400315E-02 
2324	 9.10795107677288E-02 
2325	 9.28458328373436E-02 
2326	 8.83617316450585E-02 
2327	 8.40483150287263E-02 
2328	 8.47514257699718E-02 
2329	 8.64611789540023E-02 
2330	 0.088579041599386 
2331	 0.094482713917138 
2332	 9.85258592128476E-02 
2333	 9.82172235453494E-02 
2334	 0.098499311832825 
2335	 9.46071919664203E-02 
2336	 9.13004976799117E-02 
2337	 8.85818316305557E-02 
2338	 8.41239627286997E-02 
2339	 8.75167813567629E-02 
2340	 8.63132392195104E-02 
2341	 8.42935902347529E-02 
2342	 9.20601315666364E-02 
2343	 0.093015951359146 
2344	 8.89289056925668E-02 
2345	 9.00286505204743E-02 
2346	 8.69925203617431E-02 
2347	 8.01228103025747E-02 
2348	 8.36787082745366E-02 
2349	 8.71017474741267E-02 
2350	 8.67061277411013E-02 
2351	 9.24648875212079E-02 
2352	 9.26960304861283E-02 
2353	 8.94187314408165E-02 
2354	 8.80959931232044E-02 
2355	 8.56876019881739E-02 
2356	 8.68334438633201E-02 
2357	 8.82211946880291E-02 
2358	 9.05407607140218E-02 
2359	 0.092785548514314 
2360	 9.04189412584984E-02 
2361	 9.20283853061729E-02 
2362	 9.53796501366451E-02 
2363	 9.79535310798313E-02 
2364	 0.104861572376019 
2365	 0.107843796652449 
2366	 0.104225619684933 
2367	 0.1000429277462 
2368	 0.09197815309161 
2369	 8.68110515448711E-02 
2370	 9.20547076424431E-02 
2371	 9.57162420176146E-02 
2372	 0.09690985929892 
2373	 0.102286468297474 
2374	 0.101037122460589 
2375	 8.85316144383728E-02 
2376	 8.81089464693208E-02 
2377	 9.34208220754758E-02 
2378	 9.66908101305665E-02 
2379	 0.106392611364528 
2380	 0.105745495914615 
2381	 9.76680874959637E-02 
2382	 8.86725486373046E-02 
2383	 7.13339563783938E-02 
2384	 6.83557970680088E-02 
2385	 7.37644640548156E-02 
2386	 7.48851566025502E-02 
2387	 8.24313830838668E-02 
2388	 8.15093769284336E-02 
2389	 6.58790047741662E-02 
2390	 6.64385962741748E-02 
2391	 7.80123596366924E-02 
2392	 8.42272873527742E-02 
2393	 9.93547370714021E-02 
2394	 0.106112463123033 
2395	 0.101672624142816 
2396	 0.105168528824612 
2397	 0.111549408695214 
2398	 0.111067026810327 
2399	 0.113412899386866 
2400	 0.110143236896543 
2401	 9.89891676567847E-02 
2402	 8.63236169148814E-02 
2403	 8.02032015998789E-02 
2404	 6.64734544545641E-02 
2405	 5.81504524846863E-02 
2406	 6.69850795154716E-02 
2407	 6.41376940755139E-02 
2408	 6.94473796053092E-02 
2409	 8.66704438060105E-02 
2410	 8.56389291186019E-02 
2411	 9.98132025216949E-02 
2412	 0.117822175425073 
2413	 0.100791871458546 
2414	 9.46757123973613E-02 
2415	 9.71874462021299E-02 
2416	 8.88947021770486E-02 
2417	 9.67752656410054E-02 
2418	 0.100334092270848 
2419	 8.97036869999611E-02 
2420	 0.084148122441457 
2421	 8.61529970906321E-02 
2422	 9.71742049175816E-02 
2423	 0.108489348819732 
2424	 0.112258916814713 
2425	 0.110795957721143 
2426	 0.110307921669564 
2427	 0.124785937055353 
2428	 0.129814067426296 
2429	 0.113567371223123 
2430	 0.102329419221846 
2431	 8.11274546937051E-02 
2432	 6.79906264433386E-02 
2433	 9.57141527599355E-02 
2434	 0.107623285573862 
2435	 0.125699568826368 
2436	 0.136551964014853 
2437	 0.137171544548589 
2438	 0.136704569731772 
2439	 0.134649025955976 
2440	 0.120085876161234 
2441	 8.90186307107338E-02 
2442	 7.34573106840928E-02 
2443	 4.49594598544041E-02 
2444	 4.47059452421242E-02 
2445	 8.12740678213005E-02 
2446	 9.98363654391571E-02 
2447	 0.144552772075689 
2448	 0.158501432428919 
2449	 0.134055958701979 
2450	 0.127813112955927 
2451	 0.10872341454211 
2452	 9.47089500399566E-02 
2453	 9.59030118097794E-02 
2454	 9.65059706841645E-02 
2455	 8.38970587711351E-02 
2456	 9.50397424087435E-02 
2457	 0.132538274496196 
2458	 0.139975904927838 
2459	 0.137811475308571 
2460	 0.146552115972172 
2461	 0.15035357328253 
2462	 0.146852972260412 
2463	 0.159597729267465 
2464	 0.155819641087054 
2465	 0.105148011392462 
2466	 0.104265329635923 
2467	 0.139212852718531 
2468	 0.156399569387352 
2469	 0.221764050713405 
2470	 0.224820883696563 
2471	 0.154407261329748 
2472	 0.1407011722611 
2473	 9.42931028600876E-02 
2474	 0.101097963884365 
2475	 0.210788680501723 
2476	 0.259067901519799 
2477	 0.330620438362796 
2478	 0.332849140092664 
2479	 0.208176216313771 
2480	 0.185936274887066 
2481	 0.17145325679085 
2482	 0.181322281980808 
2483	 0.323121945700682 
2484	 0.33333773664931 
2485	 0.219826470558978 
2486	 0.10518573106984 
2487	 2.69307360423857E-02 
2488	 0.247645009226486 
2489	 0.463278357237803 
2490	 0.62608820436159 
2491	 0.866724034187568 
2492	 0.361629063307242 
2493	 5.43237726600066E-02 
2494	 0.146277643974116 
2495	 0.461525948878108 
2496	 0.842342841994134 
2497	 1.0415653487605 
2498	 0.803627608298314 
2499	 0.272367555371265 
2500	-0.168951803411472 
