Wavelength	ref00135.asd
350	 0.2987897029461 
351	 0.295429566521161 
352	 0.295788259865285 
353	 0.310053525945957 
354	 0.282269804582481 
355	 0.259355844522535 
356	 0.273231483209564 
357	 0.27993655035068 
358	 0.282565993537181 
359	 0.274080870001659 
360	 0.255852743896424 
361	 0.263657409624239 
362	 0.26606708148014 
363	 0.26335645129498 
364	 0.27366443537356 
365	 0.263163225284137 
366	 0.25019558527909 
367	 0.24752307980675 
368	 0.251831381238594 
369	 0.255214633065086 
370	 0.250284939743907 
371	 0.238077639322321 
372	 0.243936561414181 
373	 0.241378756474747 
374	 0.232709621606579 
375	 0.231618555466541 
376	 0.223032321844245 
377	 0.214212791110195 
378	 0.213124101143748 
379	 0.225801309029791 
380	 0.225265233643452 
381	 0.217541886931452 
382	 0.212472180912963 
383	 0.208540612895328 
384	 0.212830835297567 
385	 0.216180489057815 
386	 0.206886688354123 
387	 0.204749588950736 
388	 0.209208225911693 
389	 0.212810078560585 
390	 0.204666403805635 
391	 0.202153562261214 
392	 0.198207673969552 
393	 0.189070704568129 
394	 0.188858397193363 
395	 0.193396620887973 
396	 0.195270958927312 
397	 0.189616011155913 
398	 0.189005612673926 
399	 0.185701424347371 
400	 0.180763193298334 
401	 0.182352069625002 
402	 0.184920307865494 
403	 0.183791335560671 
404	 0.179033445231121 
405	 0.179672576524007 
406	 0.178527211540858 
407	 0.17648581659413 
408	 0.176256508039477 
409	 0.176043628778266 
410	 0.175767251448772 
411	 0.175624587539386 
412	 0.175820701242922 
413	 0.173779405831019 
414	 0.171525612176466 
415	 0.170725736966187 
416	 0.170838023993062 
417	 0.172474900790027 
418	 0.172572720805111 
419	 0.168788109024314 
420	 0.16734252066981 
421	 0.170941266586117 
422	 0.17684004444071 
423	 0.178230212458885 
424	 0.176385309146872 
425	 0.174035703506739 
426	 0.172912565387418 
427	 0.172044148314613 
428	 0.171367967527483 
429	 0.171951761275862 
430	 0.174080146986576 
431	 0.172288954766858 
432	 0.172551296737479 
433	 0.174889017265374 
434	 0.174298583526029 
435	 0.174056762455935 
436	 0.174452829895912 
437	 0.17515741972134 
438	 0.175869613203818 
439	 0.173830176114518 
440	 0.17211798927848 
441	 0.174206306151519 
442	 0.174146188601193 
443	 0.173652811314599 
444	 0.173640184043083 
445	 0.173887197095021 
446	 0.175736337841304 
447	 0.176476837841421 
448	 0.175148872054703 
449	 0.176717268748182 
450	 0.176884985195081 
451	 0.175926313902092 
452	 0.175809729452848 
453	 0.176284373991525 
454	 0.176666771078318 
455	 0.176595668280153 
456	 0.176140253767232 
457	 0.176528835029462 
458	 0.176286307712666 
459	 0.174561114819189 
460	 0.173952621651034 
461	 0.174191646494904 
462	 0.174474507164054 
463	 0.173864291945169 
464	 0.17315633016431 
465	 0.17329469984889 
466	 0.173989900806264 
467	 0.173188323590262 
468	 0.172009512757683 
469	 0.171087936769884 
470	 0.170742643554282 
471	 0.170617202562145 
472	 0.170518037749018 
473	 0.170296864467441 
474	 0.16989703165186 
475	 0.169812171562446 
476	 0.169743285148189 
477	 0.16931713233673 
478	 0.168100819058675 
479	 0.168329145653745 
480	 0.169237883684344 
481	 0.169193778773318 
482	 0.167821271782478 
483	 0.167194773129042 
484	 0.16780464405564 
485	 0.168410197255588 
486	 0.167853242328891 
487	 0.166537543669076 
488	 0.165513830251727 
489	 0.166447373433249 
490	 0.168180531917438 
491	 0.16904810830314 
492	 0.167894916939912 
493	 0.167861378384408 
494	 0.168515549957592 
495	 0.16979579460199 
496	 0.172392887506654 
497	 0.173171342717059 
498	 0.173785878703027 
499	 0.176051171426312 
500	 0.178283711384374 
501	 0.180810640321497 
502	 0.183409202633944 
503	 0.185740819564009 
504	 0.189148827927258 
505	 0.192889263548301 
506	 0.196380766835324 
507	 0.199719408381472 
508	 0.203593766140039 
509	 0.208022262623485 
510	 0.213000412319202 
511	 0.21954422766309 
512	 0.225342014303035 
513	 0.23026309643446 
514	 0.236165732023502 
515	 0.243498875110524 
516	 0.251537279364152 
517	 0.259566365540517 
518	 0.267556930074141 
519	 0.275552163023885 
520	 0.283135190885329 
521	 0.290057187483264 
522	 0.297609922107588 
523	 0.304785040036699 
524	 0.311710595115654 
525	 0.319730879020601 
526	 0.327830173853475 
527	 0.335050401016428 
528	 0.341250984988496 
529	 0.34856046120831 
530	 0.35476191619662 
531	 0.359611826828673 
532	 0.364050466657679 
533	 0.368401506372341 
534	 0.373070961012204 
535	 0.377731810324778 
536	 0.380957651540676 
537	 0.383227414566815 
538	 0.385161824376201 
539	 0.387408065197004 
540	 0.390378330789249 
541	 0.392743602588411 
542	 0.393912674784617 
543	 0.394165189042563 
544	 0.396170300644604 
545	 0.398102340310031 
546	 0.398716338285595 
547	 0.399756240249174 
548	 0.400993961708718 
549	 0.402340475651648 
550	 0.403589809091409 
551	 0.403971697613023 
552	 0.403329276305852 
553	 0.401941634274182 
554	 0.40050388145344 
555	 0.398738807544539 
556	 0.396976779909706 
557	 0.395240052078419 
558	 0.392172195964584 
559	 0.38893158832884 
560	 0.385344540507993 
561	 0.380579649011335 
562	 0.37660690959349 
563	 0.372468603675902 
564	 0.367543963526257 
565	 0.36238360219042 
566	 0.358194084014624 
567	 0.353721193678154 
568	 0.347677093517735 
569	 0.342938448461732 
570	 0.337782684626624 
571	 0.332081997194834 
572	 0.327247371954134 
573	 0.32185964621367 
574	 0.316925708516237 
575	 0.312954737853248 
576	 0.30817278073559 
577	 0.303695322946559 
578	 0.299752133973915 
579	 0.296109823148088 
580	 0.292478048639191 
581	 0.288970194694168 
582	 0.285865723451185 
583	 0.283605538698324 
584	 0.280603299550863 
585	 0.277610213888201 
586	 0.27546442379357 
587	 0.272793622992698 
588	 0.270446124686962 
589	 0.26822929384855 
590	 0.265358675043196 
591	 0.263164787624717 
592	 0.261655353450679 
593	 0.260397494066907 
594	 0.258697202862322 
595	 0.256805913648693 
596	 0.255164203529734 
597	 0.254039838171822 
598	 0.25249050173506 
599	 0.250927158711825 
600	 0.249649980731804 
601	 0.248744641811172 
602	 0.247201253817955 
603	 0.245282947545342 
604	 0.243373990610915 
605	 0.241402896982528 
606	 0.239357688661909 
607	 0.237130052050668 
608	 0.23462118000277 
609	 0.232194700631306 
610	 0.229488748144976 
611	 0.226659276223688 
612	 0.224644792079312 
613	 0.221936144306549 
614	 0.219264045332763 
615	 0.217277872416674 
616	 0.21383590426747 
617	 0.211048435463862 
618	 0.20927181987895 
619	 0.207514344212287 
620	 0.20563585204808 
621	 0.203907059572854 
622	 0.202521391651497 
623	 0.20144407004018 
624	 0.19987096383143 
625	 0.198475796714165 
626	 0.198160961999654 
627	 0.198122760015271 
628	 0.197307553899886 
629	 0.196112143927854 
630	 0.196200951333453 
631	 0.195447130176929 
632	 0.194447325660237 
633	 0.193691020533265 
634	 0.192004588707431 
635	 0.190031535276904 
636	 0.188063981228932 
637	 0.186203608847969 
638	 0.184227702720401 
639	 0.181857132481281 
640	 0.179082374190162 
641	 0.176302708178721 
642	 0.173392050439371 
643	 0.170548808666622 
644	 0.167882652171951 
645	 0.165130606848677 
646	 0.162085235279261 
647	 0.159134410837274 
648	 0.156933320702587 
649	 0.154830022841854 
650	 0.152496485425639 
651	 0.150297507589916 
652	 0.149503669734442 
653	 0.148366217798897 
654	 0.146873480780017 
655	 0.145401992633837 
656	 0.143851353322848 
657	 0.141984069631609 
658	 0.140010501841776 
659	 0.138099277847103 
660	 0.136113199202577 
661	 0.133451529843501 
662	 0.130392922039171 
663	 0.128923416690629 
664	 0.126696718058 
665	 0.123818520570181 
666	 0.121269815833192 
667	 0.119766118839118 
668	 0.118236317036376 
669	 0.116709545915593 
670	 0.116129571833292 
671	 0.114247812019968 
672	 0.113060135866731 
673	 0.11353005842254 
674	 0.112354955847893 
675	 0.111931263852644 
676	 0.112006751155598 
677	 0.111597975747934 
678	 0.111556669487691 
679	 0.112041335468248 
680	 0.112945142340507 
681	 0.113958111830596 
682	 0.11569285914405 
683	 0.118284578579918 
684	 0.121555782682368 
685	 0.12477666235992 
686	 0.129024045814048 
687	 0.13493003188902 
688	 0.14216593793739 
689	 0.149730354256037 
690	 0.157834012907845 
691	 0.167345680182867 
692	 0.17901832241718 
693	 0.191001865666016 
694	 0.203976763477595 
695	 0.218588656989218 
696	 0.234263360528925 
697	 0.250269007828145 
698	 0.266858347404663 
699	 0.284419160482445 
700	 0.30197430795411 
701	 0.319904470555323 
702	 0.338021015273921 
703	 0.355482758685082 
704	 0.373657276920489 
705	 0.391602845821423 
706	 0.408964565966631 
707	 0.427836167730413 
708	 0.446199747161815 
709	 0.464095701124126 
710	 0.482328020312192 
711	 0.50114903387194 
712	 0.519954097012258 
713	 0.538602593206633 
714	 0.557620365752763 
715	 0.576221765245942 
716	 0.593829419471935 
717	 0.61098661243304 
718	 0.629214132442785 
719	 0.649678563869551 
720	 0.671970802749708 
721	 0.694638645443773 
722	 0.716464397327363 
723	 0.736656326570902 
724	 0.756273327905078 
725	 0.776055018478074 
726	 0.796159764172566 
727	 0.816307932148872 
728	 0.836760732801054 
729	 0.857850335846459 
730	 0.877773814885882 
731	 0.897217972365883 
732	 0.917521398396268 
733	 0.937089923796326 
734	 0.954988005842845 
735	 0.971354744696707 
736	 0.986877193856144 
737	 1.00234992231009 
738	 1.01687311929206 
739	 1.03014458497437 
740	 1.04312581791684 
741	 1.0554906118358 
742	 1.06685959258187 
743	 1.07696370310337 
744	 1.08671766530882 
745	 1.09503109226497 
746	 1.10235376957652 
747	 1.11010992321447 
748	 1.11663023222356 
749	 1.1218895698366 
750	 1.12644138632027 
751	 1.13141431864306 
752	 1.13478764915782 
753	 1.13786821941081 
754	 1.14176804738693 
755	 1.14351582518023 
756	 1.14502389149652 
757	 1.14660870957755 
758	 1.14772856865009 
759	 1.14918234015568 
760	 1.15024916799153 
761	 1.15024422046205 
762	 1.15011153107227 
763	 1.14954506380128 
764	 1.14862094081715 
765	 1.14790988328772 
766	 1.14903779228796 
767	 1.14863539915293 
768	 1.14765708509524 
769	 1.14763302109466 
770	 1.14689807164753 
771	 1.14589346854669 
772	 1.14501114749828 
773	 1.14440578720944 
774	 1.14266692761695 
775	 1.14115796657473 
776	 1.14042969484957 
777	 1.13896491521906 
778	 1.13766537134542 
779	 1.13649702052833 
780	 1.13525674584505 
781	 1.13394777878363 
782	 1.13332065976059 
783	 1.13258087600413 
784	 1.13047658469172 
785	 1.12872041581485 
786	 1.12723642266637 
787	 1.12539869070754 
788	 1.12233753106851 
789	 1.12031217404668 
790	 1.11902179641795 
791	 1.11782990111993 
792	 1.1165291784715 
793	 1.11522260510228 
794	 1.11412752682386 
795	 1.11312101123894 
796	 1.11048746431915 
797	 1.10904364991681 
798	 1.10867717436471 
799	 1.10756129946488 
800	 1.10564526393166 
801	 1.1037339002063 
802	 1.1022709573708 
803	 1.10111812696585 
804	 1.10034472432588 
805	 1.09911497857422 
806	 1.09740731737354 
807	 1.09725746696628 
808	 1.09536254601813 
809	 1.09284270077607 
810	 1.09119935239463 
811	 1.08755096347648 
812	 1.08375255901894 
813	 1.08014198767059 
814	 1.076152567775 
815	 1.07154079076767 
816	 1.06833487508386 
817	 1.06702961412363 
818	 1.06621588993621 
819	 1.06679292990856 
820	 1.06769626660391 
821	 1.06768690811949 
822	 1.06572488132162 
823	 1.06402626222758 
824	 1.06318535367749 
825	 1.06304573337895 
826	 1.06294301846295 
827	 1.06175798250331 
828	 1.06028928315606 
829	 1.05975832814034 
830	 1.05845742818221 
831	 1.05756805602627 
832	 1.05712472953329 
833	 1.0563732322833 
834	 1.05639885790182 
835	 1.05626609507656 
836	 1.05584858566955 
837	 1.05615921678854 
838	 1.05620417264181 
839	 1.05552789863805 
840	 1.05422065672964 
841	 1.05313391448232 
842	 1.05286831099733 
843	 1.05245496099637 
844	 1.05119321423455 
845	 1.05095528994594 
846	 1.05002225363175 
847	 1.04897791494492 
848	 1.0488331480745 
849	 1.04703791177662 
850	 1.04545465606102 
851	 1.04484655078274 
852	 1.04476985022869 
853	 1.04398298500962 
854	 1.04255124751801 
855	 1.04090120275989 
856	 1.03965568944857 
857	 1.03924345846556 
858	 1.03879934100592 
859	 1.03768073450336 
860	 1.03593988207044 
861	 1.03510421965377 
862	 1.03462043588271 
863	 1.03388162030808 
864	 1.0337114433017 
865	 1.03272853286611 
866	 1.03138216710944 
867	 1.03036248095694 
868	 1.02850560283151 
869	 1.02746733475268 
870	 1.026665221271 
871	 1.02498860673612 
872	 1.02451578327422 
873	 1.02472468865983 
874	 1.02425612594221 
875	 1.02187313972863 
876	 1.0208189136535 
877	 1.01978196681851 
878	 1.01827471147445 
879	 1.01707162662129 
880	 1.01645205949608 
881	 1.01497226577578 
882	 1.01290378976631 
883	 1.01289536013482 
884	 1.01160010965902 
885	 1.01006544359278 
886	 1.00923655489506 
887	 1.00826015407595 
888	 1.00638753111573 
889	 1.00441684087809 
890	 1.00282780435691 
891	 1.00018574591717 
892	 0.998166387878084 
893	 0.995834367504697 
894	 0.991910139099557 
895	 0.986803435430282 
896	 0.984263301337247 
897	 0.982134181568026 
898	 0.977515344170721 
899	 0.976911315631672 
900	 0.977316913331932 
901	 0.976739367519947 
902	 0.974919417744622 
903	 0.976076895722314 
904	 0.975986081871928 
905	 0.974111100862035 
906	 0.972416537658396 
907	 0.971210889801103 
908	 0.96697256371669 
909	 0.961955576442735 
910	 0.962159022229644 
911	 0.961410848845908 
912	 0.959982937830537 
913	 0.95784891405905 
914	 0.954575412954782 
915	 0.954539466584048 
916	 0.954218595963228 
917	 0.95308189163879 
918	 0.954579194314992 
919	 0.954201034977161 
920	 0.954095929203417 
921	 0.954255688089716 
922	 0.951175014020595 
923	 0.950894855221742 
924	 0.948902988074821 
925	 0.944062415343945 
926	 0.942889234014171 
927	 0.93741916935727 
928	 0.931974217006737 
929	 0.928266888287849 
930	 0.918200519354933 
931	 0.911395385107233 
932	 0.905233494761378 
933	 0.896429136195419 
934	 0.887868121334042 
935	 0.884597561723483 
936	 0.884297988460989 
937	 0.883674684803549 
938	 0.882534009668574 
939	 0.882330898401768 
940	 0.883362244960122 
941	 0.884285217100341 
942	 0.881416837548044 
943	 0.880541354548064 
944	 0.879474593382243 
945	 0.876069055355098 
946	 0.872920125084352 
947	 0.866668443874262 
948	 0.861053821597169 
949	 0.859372720509084 
950	 0.859781239215172 
951	 0.858864043263051 
952	 0.854669604657027 
953	 0.849006809431167 
954	 0.849356230697951 
955	 0.847900936722616 
956	 0.845748570524028 
957	 0.844581750653312 
958	 0.842700027194122 
959	 0.841783383287886 
960	 0.841013563580373 
961	 0.840899643984455 
962	 0.845083289957444 
963	 0.847074998093663 
964	 0.843672962653372 
965	 0.838485634064921 
966	 0.843299316261448 
967	 0.846844323133678 
968	 0.84514103749613 
969	 0.840471437811809 
970	 0.841370576904638 
971	 0.847805779898834 
972	 0.849099721338443 
973	 0.843056671454666 
974	 0.842056445689768 
975	 0.842365913860434 
976	 0.84207728733568 
977	 0.840525564756696 
978	 0.838714768923816 
979	 0.840380637028965 
980	 0.841283276306234 
981	 0.841101664128945 
982	 0.844006258459009 
983	 0.84089602356872 
984	 0.841551571461748 
985	 0.84622095934276 
986	 0.845862219270415 
987	 0.84911175355063 
988	 0.848349009637652 
989	 0.845097624523141 
990	 0.847194944057467 
991	 0.848024963484877 
992	 0.847858216550016 
993	 0.849504594440218 
994	 0.854651019198997 
995	 0.853510796608507 
996	 0.850729666767592 
997	 0.849791568451813 
998	 0.851834160022025 
999	 0.854366947945994 
1000	 0.848534395130239 
1001	 0.864937044139786 
1002	 0.865758225216264 
1003	 0.866390706717548 
1004	 0.867114505814564 
1005	 0.867845828567313 
1006	 0.868781924283884 
1007	 0.869269443419784 
1008	 0.869500021827708 
1009	 0.869834226014851 
1010	 0.86999470466518 
1011	 0.869963795579135 
1012	 0.870380488521074 
1013	 0.871477915379342 
1014	 0.872135645518991 
1015	 0.872518670593141 
1016	 0.873032615278716 
1017	 0.873432902190516 
1018	 0.874038360064277 
1019	 0.87516344187723 
1020	 0.87583198362626 
1021	 0.876144454006174 
1022	 0.876607865159777 
1023	 0.877008099980758 
1024	 0.877427202750311 
1025	 0.877949792797053 
1026	 0.878971900251421 
1027	 0.879814159825165 
1028	 0.880054593539432 
1029	 0.880035646098755 
1030	 0.879885942393265 
1031	 0.879841727280082 
1032	 0.88028540602312 
1033	 0.88064085561841 
1034	 0.881356333344355 
1035	 0.881701199240399 
1036	 0.881750773333177 
1037	 0.881900311130501 
1038	 0.881921339162116 
1039	 0.882208350277263 
1040	 0.882641897859863 
1041	 0.883056344451953 
1042	 0.883497339056707 
1043	 0.883834491805095 
1044	 0.884050062740627 
1045	 0.884296624816186 
1046	 0.884017138877993 
1047	 0.883661418542813 
1048	 0.883732121565282 
1049	 0.883995311301577 
1050	 0.884299241036693 
1051	 0.88514532079207 
1052	 0.88541639909734 
1053	 0.8854978605405 
1054	 0.885567459465419 
1055	 0.885180058503911 
1056	 0.885623326325247 
1057	 0.885632464578173 
1058	 0.885516788358143 
1059	 0.885931655509481 
1060	 0.885595497125811 
1061	 0.885547844331102 
1062	 0.88542711311891 
1063	 0.88518238072887 
1064	 0.885548206196113 
1065	 0.885335013724636 
1066	 0.884903295331374 
1067	 0.884543301214764 
1068	 0.884376955089207 
1069	 0.88349901125734 
1070	 0.883337487571246 
1071	 0.883512719146982 
1072	 0.882737607229588 
1073	 0.882339533883026 
1074	 0.882220202242733 
1075	 0.881225117276577 
1076	 0.880277880068416 
1077	 0.879633217589564 
1078	 0.878524128408526 
1079	 0.877794012581685 
1080	 0.877432213786058 
1081	 0.876727795314729 
1082	 0.875859726521105 
1083	 0.87493023072696 
1084	 0.873773339800998 
1085	 0.872831477287338 
1086	 0.872036075220612 
1087	 0.871115258139651 
1088	 0.870604731803471 
1089	 0.869544528473387 
1090	 0.867607169549387 
1091	 0.866180127494782 
1092	 0.864736211461888 
1093	 0.862789401139359 
1094	 0.861044558844467 
1095	 0.859344481694032 
1096	 0.857602259720902 
1097	 0.855792256850913 
1098	 0.853811391180636 
1099	 0.851937319290898 
1100	 0.849705480128035 
1101	 0.846944161663422 
1102	 0.844422221355609 
1103	 0.842457329882769 
1104	 0.840379983565241 
1105	 0.838319274781834 
1106	 0.836267180997549 
1107	 0.833548111472668 
1108	 0.830586175034833 
1109	 0.827678539091459 
1110	 0.824061390595253 
1111	 0.820154537295976 
1112	 0.815491984976286 
1113	 0.811085631344482 
1114	 0.806177696786771 
1115	 0.801278557040466 
1116	 0.796542482531521 
1117	 0.791171527798892 
1118	 0.785371105352947 
1119	 0.779169141180473 
1120	 0.773103423510926 
1121	 0.767814933060759 
1122	 0.762919021805591 
1123	 0.75878718510776 
1124	 0.755363722745731 
1125	 0.751931377587887 
1126	 0.749353626099515 
1127	 0.748205100568128 
1128	 0.746103130791916 
1129	 0.744608801086176 
1130	 0.742344677272343 
1131	 0.739256383681133 
1132	 0.736627597567802 
1133	 0.733947836146686 
1134	 0.731603400263541 
1135	 0.729448744330737 
1136	 0.726459410151629 
1137	 0.72330603434702 
1138	 0.71981922270954 
1139	 0.715437681791731 
1140	 0.710877314206589 
1141	 0.705819495237783 
1142	 0.70066877811022 
1143	 0.695570801052273 
1144	 0.69018764380382 
1145	 0.685115637691005 
1146	 0.680118451486721 
1147	 0.675307318816478 
1148	 0.670297835734913 
1149	 0.666493565355334 
1150	 0.663384503784632 
1151	 0.660723249575371 
1152	 0.658815560282489 
1153	 0.6575547884247 
1154	 0.656496283529757 
1155	 0.655837250734581 
1156	 0.655053497227468 
1157	 0.654380274708919 
1158	 0.653965613939083 
1159	 0.65303898267369 
1160	 0.652762343792714 
1161	 0.653066147007636 
1162	 0.653068977338316 
1163	 0.653422670670817 
1164	 0.653175162078616 
1165	 0.652440973141597 
1166	 0.651879497239183 
1167	 0.650949815888877 
1168	 0.650370730126893 
1169	 0.649957686483929 
1170	 0.649824787480271 
1171	 0.649483377443525 
1172	 0.648878669848297 
1173	 0.648117628500143 
1174	 0.647143477328211 
1175	 0.646247942825323 
1176	 0.645547164606915 
1177	 0.644744681905871 
1178	 0.64406236658085 
1179	 0.643176717220164 
1180	 0.64208688281474 
1181	 0.641110731347805 
1182	 0.640101394079001 
1183	 0.639100463187005 
1184	 0.638012375415642 
1185	 0.637196095811181 
1186	 0.636508385907403 
1187	 0.635874333848812 
1188	 0.635436062171381 
1189	 0.635034726413412 
1190	 0.634683141388283 
1191	 0.634116120792611 
1192	 0.63359743711339 
1193	 0.633221859622474 
1194	 0.632834838378222 
1195	 0.632453231891613 
1196	 0.632020866435731 
1197	 0.63166851255248 
1198	 0.631189168034122 
1199	 0.630452408579709 
1200	 0.630082950213732 
1201	 0.629862579125614 
1202	 0.629600181187638 
1203	 0.629365730809765 
1204	 0.629358746046464 
1205	 0.629453668383604 
1206	 0.629583490955568 
1207	 0.630049662408156 
1208	 0.630372158432341 
1209	 0.630580152997543 
1210	 0.630745350815984 
1211	 0.631112345143862 
1212	 0.631525156680859 
1213	 0.63194452105663 
1214	 0.632332935333303 
1215	 0.633047469505631 
1216	 0.633849244246363 
1217	 0.634808999452322 
1218	 0.636281184623277 
1219	 0.637230562253598 
1220	 0.637899891025428 
1221	 0.638813148376777 
1222	 0.639524273158308 
1223	 0.640520680443808 
1224	 0.642167190878784 
1225	 0.643178942491141 
1226	 0.643867301483751 
1227	 0.644649273532141 
1228	 0.645214517593255 
1229	 0.645555866123392 
1230	 0.646480533977285 
1231	 0.647592689755865 
1232	 0.648415909335233 
1233	 0.649304815105717 
1234	 0.650012784743168 
1235	 0.650425189521955 
1236	 0.651084705967317 
1237	 0.651869228125301 
1238	 0.652481032940077 
1239	 0.653148782694373 
1240	 0.653657833197945 
1241	 0.65389570066395 
1242	 0.654331761560181 
1243	 0.654915080824869 
1244	 0.655254693720698 
1245	 0.655523400250732 
1246	 0.655820999500157 
1247	 0.655858981699389 
1248	 0.656070963134483 
1249	 0.65659296666856 
1250	 0.656857815330086 
1251	 0.656815919914195 
1252	 0.657152393742178 
1253	 0.657322370968834 
1254	 0.657330798429409 
1255	 0.657487378714695 
1256	 0.657932395324664 
1257	 0.657886725645311 
1258	 0.657572118566894 
1259	 0.657395120672029 
1260	 0.656870618761649 
1261	 0.6567213269605 
1262	 0.656914438567362 
1263	 0.656899544157008 
1264	 0.657027028563288 
1265	 0.656928436170207 
1266	 0.656475103309918 
1267	 0.656327498191605 
1268	 0.656347795548378 
1269	 0.656182480082727 
1270	 0.65623234351334 
1271	 0.656026233488063 
1272	 0.655552138832536 
1273	 0.654934333843801 
1274	 0.654429941690248 
1275	 0.653848185610153 
1276	 0.653399661832945 
1277	 0.653087684990718 
1278	 0.652563312093826 
1279	 0.652038250644787 
1280	 0.651400927299831 
1281	 0.650612845790755 
1282	 0.649803362896963 
1283	 0.649009957449189 
1284	 0.648057930622522 
1285	 0.646966624010517 
1286	 0.64584558528749 
1287	 0.644605790789521 
1288	 0.643380183271666 
1289	 0.642186919897864 
1290	 0.640840946092287 
1291	 0.639377766829355 
1292	 0.637917579604065 
1293	 0.636422925891792 
1294	 0.634775801306514 
1295	 0.633066312896645 
1296	 0.63130666107506 
1297	 0.629285462188129 
1298	 0.626971295022554 
1299	 0.624776155720934 
1300	 0.622449307096733 
1301	 0.620171623920929 
1302	 0.618011238650696 
1303	 0.61553199496829 
1304	 0.612863330518483 
1305	 0.610194171326886 
1306	 0.607270605651876 
1307	 0.60449160403402 
1308	 0.601952032749755 
1309	 0.598997895048885 
1310	 0.595708461821386 
1311	 0.592617323481859 
1312	 0.589556702097722 
1313	 0.586194258410686 
1314	 0.58272845008643 
1315	 0.5793569044917 
1316	 0.575694218830389 
1317	 0.572116089818713 
1318	 0.568946536024593 
1319	 0.565438202535754 
1320	 0.561538500473863 
1321	 0.557674546568267 
1322	 0.553845391698246 
1323	 0.549913477191625 
1324	 0.545860141179144 
1325	 0.54179068884746 
1326	 0.537497534277267 
1327	 0.532798395699277 
1328	 0.528264292858821 
1329	 0.523647274974912 
1330	 0.519075463653507 
1331	 0.514521455157868 
1332	 0.510011221331559 
1333	 0.505399194898956 
1334	 0.501244355333612 
1335	 0.497488970134086 
1336	 0.493633864874273 
1337	 0.489848485153106 
1338	 0.486320875868478 
1339	 0.482968497055228 
1340	 0.479212920513949 
1341	 0.475017066512359 
1342	 0.471075109647502 
1343	 0.466136881005157 
1344	 0.46149635280637 
1345	 0.45698102626779 
1346	 0.452302079121739 
1347	 0.447095118130284 
1348	 0.441584789794538 
1349	 0.435598224221293 
1350	 0.429001550840053 
1351	 0.422066274221712 
1352	 0.415018475960667 
1353	 0.406737088905236 
1354	 0.400571462609784 
1355	 0.390345454860289 
1356	 0.380066715748266 
1357	 0.366206777002138 
1358	 0.355534712167569 
1359	 0.337131095802143 
1360	 0.330904677089649 
1361	 0.313332076365407 
1362	 0.301045586626698 
1363	 0.290881207362938 
1364	 0.30948117444385 
1365	 0.309650800939763 
1366	 0.31379942542991 
1367	 0.310009807811236 
1368	 0.295801800476761 
1369	 0.287304059712532 
1370	 0.287514665284346 
1371	 0.279550863383121 
1372	 0.262849587959802 
1373	 0.255768673099128 
1374	 0.248838330255482 
1375	 0.244808754507968 
1376	 0.240566647497106 
1377	 0.239962162979032 
1378	 0.238221966865784 
1379	 0.235716227399834 
1380	 0.230420550024852 
1381	 0.228318124705156 
1382	 0.217523400549931 
1383	 0.195536769669208 
1384	 0.188720190042183 
1385	 0.185668534662428 
1386	 0.183132089324309 
1387	 0.188893907717376 
1388	 0.187580716542148 
1389	 0.183635751422001 
1390	 0.179160112050967 
1391	 0.17344910295493 
1392	 0.169330858552403 
1393	 0.162739646182008 
1394	 0.159486133809371 
1395	 0.162733596296084 
1396	 0.157914274958328 
1397	 0.148161622447615 
1398	 0.142606743508145 
1399	 0.132072382388123 
1400	 0.127501595823905 
1401	 0.131158360751498 
1402	 0.13057789873456 
1403	 0.128926158401554 
1404	 0.128329312482909 
1405	 0.128885706121475 
1406	 0.126631200818384 
1407	 0.122281381166156 
1408	 0.12009726705885 
1409	 0.117602727177013 
1410	 0.1141823587089 
1411	 0.113716835498473 
1412	 0.116347984553444 
1413	 0.115797539485196 
1414	 0.114690982739396 
1415	 0.113802200809317 
1416	 0.112272563160742 
1417	 0.11134156986312 
1418	 0.110465018529723 
1419	 0.110154756706387 
1420	 0.110143885356869 
1421	 0.110025944515338 
1422	 0.110945616785208 
1423	 0.110076421530392 
1424	 0.107642739368877 
1425	 0.106733707135427 
1426	 0.105588316588557 
1427	 0.105056523643492 
1428	 0.105737881942584 
1429	 0.105848869472548 
1430	 0.105965828544377 
1431	 0.105514434740774 
1432	 0.104587307486389 
1433	 0.10417089895166 
1434	 0.103015877971962 
1435	 0.102844327647343 
1436	 0.1043919916772 
1437	 0.104510147931631 
1438	 0.103988632931169 
1439	 0.103901609488274 
1440	 0.102971147618747 
1441	 0.102710721128558 
1442	 0.103309784232521 
1443	 0.103785542677655 
1444	 0.10399665021953 
1445	 0.104334539792677 
1446	 0.104012923788587 
1447	 0.104285947234726 
1448	 0.104723774698475 
1449	 0.105309860122042 
1450	 0.105643331128859 
1451	 0.106190196318813 
1452	 0.106462577111445 
1453	 0.106433104197678 
1454	 0.10663690170209 
1455	 0.107069762974648 
1456	 0.107140932928785 
1457	 0.106843698851131 
1458	 0.107103565306458 
1459	 0.107677508580371 
1460	 0.107787966099358 
1461	 0.107950064160929 
1462	 0.10816691113214 
1463	 0.107874193447347 
1464	 0.108044309440647 
1465	 0.108958306114873 
1466	 0.109317347363582 
1467	 0.109322638557115 
1468	 0.109583227224861 
1469	 0.109748963396439 
1470	 0.110015341971911 
1471	 0.109932099708079 
1472	 0.110806472372394 
1473	 0.112425995581476 
1474	 0.113599737674813 
1475	 0.115248751878268 
1476	 0.116615707546596 
1477	 0.117485574386153 
1478	 0.118376746561269 
1479	 0.119203221717276 
1480	 0.120279951306925 
1481	 0.121074365763873 
1482	 0.122294041931675 
1483	 0.12430475854075 
1484	 0.125727565372705 
1485	 0.126753374346323 
1486	 0.128117852302604 
1487	 0.129539081226991 
1488	 0.130587520785894 
1489	 0.132192912761701 
1490	 0.133834520325604 
1491	 0.13494531745156 
1492	 0.136106798022783 
1493	 0.137566293562181 
1494	 0.138880438598775 
1495	 0.140332715367195 
1496	 0.142129955608654 
1497	 0.14351857133926 
1498	 0.144709709735807 
1499	 0.146035855351255 
1500	 0.147381696370939 
1501	 0.148594673025488 
1502	 0.149710487581001 
1503	 0.15107350312241 
1504	 0.152483478532351 
1505	 0.153805032813649 
1506	 0.155286877313937 
1507	 0.15662467175589 
1508	 0.157653739678664 
1509	 0.159040615504117 
1510	 0.160742714771965 
1511	 0.162128333229911 
1512	 0.163455161120016 
1513	 0.164803128240192 
1514	 0.165980404313299 
1515	 0.167298794159679 
1516	 0.16890310488683 
1517	 0.17016876078251 
1518	 0.171201723915128 
1519	 0.172423816173382 
1520	 0.173541250615052 
1521	 0.174757880088455 
1522	 0.176158264423166 
1523	 0.177503718169173 
1524	 0.178740628832368 
1525	 0.180160412439578 
1526	 0.181828522684087 
1527	 0.183252410296234 
1528	 0.184675105788258 
1529	 0.186033768136753 
1530	 0.187137213269374 
1531	 0.188443626588628 
1532	 0.190041427048745 
1533	 0.191264204621694 
1534	 0.192190339774702 
1535	 0.193394559040767 
1536	 0.19454222881851 
1537	 0.195703267869639 
1538	 0.1971551589117 
1539	 0.198452678119385 
1540	 0.199420290789496 
1541	 0.200647078289221 
1542	 0.202209884000423 
1543	 0.203484991802648 
1544	 0.20468013494552 
1545	 0.205893234308633 
1546	 0.206823103301032 
1547	 0.207962554608454 
1548	 0.209464198568094 
1549	 0.210661696681268 
1550	 0.211730794895726 
1551	 0.212809387149386 
1552	 0.213559539273287 
1553	 0.214573153133521 
1554	 0.215857561145037 
1555	 0.217041215608352 
1556	 0.218414080232855 
1557	 0.219565948864934 
1558	 0.220417703598132 
1559	 0.221428698467611 
1560	 0.222417889063039 
1561	 0.223410867097162 
1562	 0.2245278382894 
1563	 0.225625506634025 
1564	 0.226588629258037 
1565	 0.227751579395696 
1566	 0.229005125807347 
1567	 0.229959258749885 
1568	 0.230933157857965 
1569	 0.231779566991668 
1570	 0.232829526470603 
1571	 0.233897230430503 
1572	 0.234930355969073 
1573	 0.236066999809922 
1574	 0.237142340425517 
1575	 0.238134865535361 
1576	 0.239072884814254 
1577	 0.240026653196642 
1578	 0.240936438151885 
1579	 0.241691580037974 
1580	 0.242547006155398 
1581	 0.243473636916338 
1582	 0.244361349082336 
1583	 0.245160174663039 
1584	 0.246149757880977 
1585	 0.247308021041531 
1586	 0.248223332444106 
1587	 0.249121106141862 
1588	 0.250029524000554 
1589	 0.250744603390396 
1590	 0.251719274707941 
1591	 0.252942750034003 
1592	 0.253883795353477 
1593	 0.254893527152712 
1594	 0.255528779107586 
1595	 0.255757363003009 
1596	 0.256415818000573 
1597	 0.256997910075138 
1598	 0.257793584247137 
1599	 0.259028961556526 
1600	 0.259804176766881 
1601	 0.260369764600468 
1602	 0.261075861779479 
1603	 0.261668800823306 
1604	 0.26239835937622 
1605	 0.263193227811297 
1606	 0.264108194388616 
1607	 0.265189412182358 
1608	 0.265987931157697 
1609	 0.266875385148441 
1610	 0.267453613860354 
1611	 0.267550738972821 
1612	 0.268150796698001 
1613	 0.268908417631128 
1614	 0.269507672587053 
1615	 0.270230569149962 
1616	 0.270890181118056 
1617	 0.271354776162932 
1618	 0.272024701736362 
1619	 0.272889169774097 
1620	 0.273624851944121 
1621	 0.274332142658091 
1622	 0.274992553077113 
1623	 0.275653047795298 
1624	 0.276274681367581 
1625	 0.276867459161799 
1626	 0.277356173227658 
1627	 0.277755963155274 
1628	 0.27823812159752 
1629	 0.278650663328466 
1630	 0.279172236903464 
1631	 0.279913495731731 
1632	 0.280249568474748 
1633	 0.280364290114083 
1634	 0.280698170671949 
1635	 0.280918788238413 
1636	 0.281226501531544 
1637	 0.281726761660891 
1638	 0.282048198395999 
1639	 0.282180186054766 
1640	 0.282536720451676 
1641	 0.28307010240204 
1642	 0.283443224585077 
1643	 0.283907635308696 
1644	 0.283912364148395 
1645	 0.283527822993478 
1646	 0.283606313747866 
1647	 0.283600902452991 
1648	 0.28379405893236 
1649	 0.284410058841268 
1650	 0.284563975500108 
1651	 0.284505141401772 
1652	 0.28442534705062 
1653	 0.284308550408332 
1654	 0.284084718719542 
1655	 0.283621832635571 
1656	 0.283503987331592 
1657	 0.283502263045174 
1658	 0.283354692004977 
1659	 0.283330949666203 
1660	 0.282987631649288 
1661	 0.282433061173136 
1662	 0.282213752087512 
1663	 0.281909517757576 
1664	 0.281689177860483 
1665	 0.281972593229103 
1666	 0.282229878365995 
1667	 0.282530998804395 
1668	 0.282903167912165 
1669	 0.282779743255797 
1670	 0.282474292667786 
1671	 0.282377712001968 
1672	 0.28249308839844 
1673	 0.282837840986911 
1674	 0.283187151431241 
1675	 0.283268460831376 
1676	 0.28306145049116 
1677	 0.283171195460034 
1678	 0.283412653331698 
1679	 0.283436030554903 
1680	 0.283613624217195 
1681	 0.28340027427542 
1682	 0.283241194488073 
1683	 0.283512330760075 
1684	 0.283438304176556 
1685	 0.283246103175847 
1686	 0.282779716190845 
1687	 0.282324816549893 
1688	 0.282224836566126 
1689	 0.281944682470487 
1690	 0.28182830065306 
1691	 0.281534311371454 
1692	 0.281113026225198 
1693	 0.280665547481308 
1694	 0.28007576408252 
1695	 0.279473848902052 
1696	 0.278694831396233 
1697	 0.278170327784746 
1698	 0.277767979080736 
1699	 0.277371643043365 
1700	 0.277418451583806 
1701	 0.276959309825168 
1702	 0.276036318237973 
1703	 0.275373310350388 
1704	 0.27446785742245 
1705	 0.273792636445225 
1706	 0.273775696610677 
1707	 0.273034505280573 
1708	 0.271692351203866 
1709	 0.270811631450983 
1710	 0.269677275464692 
1711	 0.268818730910879 
1712	 0.268595205569595 
1713	 0.267960298504482 
1714	 0.267102735023486 
1715	 0.266332833845785 
1716	 0.265382229533857 
1717	 0.264731287074837 
1718	 0.264141883186433 
1719	 0.263650153631738 
1720	 0.263701099907425 
1721	 0.263062717377817 
1722	 0.262164152059311 
1723	 0.261258472444508 
1724	 0.259838028509393 
1725	 0.258956302213339 
1726	 0.258439698661982 
1727	 0.257529683682792 
1728	 0.256442570015693 
1729	 0.255564331052622 
1730	 0.254453603686444 
1731	 0.253993896888015 
1732	 0.254129648513364 
1733	 0.253826851573075 
1734	 0.253152351590816 
1735	 0.252942402340794 
1736	 0.252685685490828 
1737	 0.252419749215055 
1738	 0.252636795917134 
1739	 0.252435731459 
1740	 0.251392670766068 
1741	 0.250307631894329 
1742	 0.249171705441522 
1743	 0.248035672495227 
1744	 0.247306746476528 
1745	 0.246924513846515 
1746	 0.246885850268621 
1747	 0.246588595536124 
1748	 0.246123541763111 
1749	 0.245269234448838 
1750	 0.243988411145684 
1751	 0.242897982146006 
1752	 0.241749288115001 
1753	 0.241334587731788 
1754	 0.241078109775192 
1755	 0.24039476113952 
1756	 0.239747080399178 
1757	 0.238336342157135 
1758	 0.237328895255154 
1759	 0.236746700260772 
1760	 0.235770621441169 
1761	 0.234488151806081 
1762	 0.23363539460985 
1763	 0.232602830157565 
1764	 0.231745956528497 
1765	 0.231733981307093 
1766	 0.231117826229379 
1767	 0.230061680680399 
1768	 0.229009701825635 
1769	 0.227343742105647 
1770	 0.226463779961164 
1771	 0.22611945889908 
1772	 0.225918471979939 
1773	 0.226524045773454 
1774	 0.226623910988214 
1775	 0.22585081298145 
1776	 0.224343038497228 
1777	 0.222199503192187 
1778	 0.220780932705353 
1779	 0.220376278521237 
1780	 0.220502380393311 
1781	 0.221468505029303 
1782	 0.221889382808739 
1783	 0.221326111841975 
1784	 0.220621680817102 
1785	 0.219869654103703 
1786	 0.219196691893541 
1787	 0.218300044685434 
1788	 0.217649153978675 
1789	 0.217699445058384 
1790	 0.217293552427762 
1791	 0.216854820141173 
1792	 0.216765507609198 
1793	 0.215516461623948 
1794	 0.213979978479016 
1795	 0.213042837864317 
1796	 0.211976391432954 
1797	 0.211459541906991 
1798	 0.211563823739644 
1799	 0.211503757784992 
1800	 0.211871851692594 
1801	 0.207668456831254 
1802	 0.205770950287982 
1803	 0.204641941506257 
1804	 0.202883683898869 
1805	 0.202032326649155 
1806	 0.20333378435345 
1807	 0.203271422216447 
1808	 0.20160650463755 
1809	 0.202006647399363 
1810	 0.20187807448908 
1811	 0.200452174387272 
1812	 0.201351558886747 
1813	 0.205781729829588 
1814	 0.20725826687907 
1815	 0.207930982428655 
1816	 0.209867846196402 
1817	 0.21324184376524 
1818	 0.212520288093634 
1819	 0.210086200592055 
1820	 0.206323378330595 
1821	 0.204623622782288 
1822	 0.192750111968344 
1823	 0.195492907803049 
1824	 0.222653320747043 
1825	 0.230738101615151 
1826	 0.233546131131925 
1827	 0.241162983855203 
1828	 0.245854417756637 
1829	 0.226594085349335 
1830	 0.226344390502791 
1831	 0.252542050276997 
1832	 0.265885028312393 
1833	 0.290505287813137 
1834	 0.283375527799339 
1835	 0.202132430705086 
1836	 0.175650974834302 
1837	 0.140170541353532 
1838	 0.122868273340389 
1839	 0.136552073817277 
1840	 0.275140437265961 
1841	 0.303895935192654 
1842	 0.261966309925319 
1843	 0.272036391263816 
1844	 0.277271879302618 
1845	 0.276032658042663 
1846	 0.305445858717835 
1847	 0.30466443088281 
1848	 0.287457184700766 
1849	 0.234706411197722 
1850	 0.212706194718048 
1851	 0.180945971205305 
1852	 0.1718577757321 
1853	 0.185646701518242 
1854	 0.182214261548768 
1855	 0.16763445297484 
1856	 0.179525426749714 
1857	 0.19474401279096 
1858	 0.227557179792194 
1859	 0.234484881972173 
1860	 0.259931669517581 
1861	 0.256743735701951 
1862	 0.208003192026141 
1863	 0.202425162931754 
1864	 0.203888807235496 
1865	 0.214577982197636 
1866	 0.26268347868236 
1867	 0.311914183576575 
1868	 0.327874193602664 
1869	 0.333233066758552 
1870	 0.32418074085018 
1871	 0.265397826833914 
1872	 0.232273057469828 
1873	 0.234950095403193 
1874	 0.196834675776542 
1875	 0.139467037237725 
1876	 0.116477945355775 
1877	 0.121500792757937 
1878	 6.27240550785765E-02 
1879	 4.60967184195002E-02 
1880	 8.09763549561029E-02 
1881	 8.80792934513779E-02 
1882	 9.23941210729086E-02 
1883	 0.102714444016989 
1884	 0.123229845501517 
1885	 0.120245188974467 
1886	 9.67810961987293E-02 
1887	 0.111119329656719 
1888	 9.02405099110504E-02 
1889	 0.073548587527048 
1890	 7.83207405884238E-02 
1891	 9.53519268994538E-02 
1892	 0.110143398300854 
1893	 0.157651849713381 
1894	 0.176226551096717 
1895	 0.18480879815912 
1896	 0.19731494565131 
1897	 0.197618740931869 
1898	 0.185782825524141 
1899	 0.221154964287881 
1900	 0.191128794973513 
1901	 0.196104017449501 
1902	 0.233724799401888 
1903	 0.259436859003484 
1904	 0.313333234927103 
1905	 0.31977738165463 
1906	 0.310816406349888 
1907	 0.244200249870524 
1908	 0.199283447325707 
1909	 0.118500455984005 
1910	 0.127621150006273 
1911	 0.141002520401636 
1912	 0.131558226698388 
1913	 0.117053362103742 
1914	 0.115132626941534 
1915	 0.113974189984925 
1916	 0.105552649183437 
1917	 9.47400553367734E-02 
1918	 9.23346609296699E-02 
1919	 9.61634784050011E-02 
1920	 9.83873691021891E-02 
1921	 9.61312524305267E-02 
1922	 9.05540611717271E-02 
1923	 8.79204771722685E-02 
1924	 7.83739961335543E-02 
1925	 7.46255507465216E-02 
1926	 7.79120078057508E-02 
1927	 7.74301539253789E-02 
1928	 7.54172818373886E-02 
1929	 7.01671495928047E-02 
1930	 6.32743318611918E-02 
1931	 6.35479941478865E-02 
1932	 6.25085602294015E-02 
1933	 5.78496482530442E-02 
1934	 5.67723278400735E-02 
1935	 5.64725115251539E-02 
1936	 5.71411842856154E-02 
1937	 5.84528881501607E-02 
1938	 5.95793505866424E-02 
1939	 0.060250824555202 
1940	 6.76657639186057E-02 
1941	 6.65717895730191E-02 
1942	 0.0620450119289 
1943	 5.85744756953106E-02 
1944	 5.17487595451792E-02 
1945	 4.42208321321462E-02 
1946	 4.35870829720321E-02 
1947	 4.43884406827604E-02 
1948	 4.78038662913588E-02 
1949	 4.91863454386358E-02 
1950	 0.05434770308394 
1951	 5.39040382103064E-02 
1952	 0.051382345465762 
1953	 5.30864282566165E-02 
1954	 0.049400445729912 
1955	 4.76968431528083E-02 
1956	 4.99673154067574E-02 
1957	 4.78133710210715E-02 
1958	 4.72865141280144E-02 
1959	 4.96021955923731E-02 
1960	 5.13444674094436E-02 
1961	 5.29073951338231E-02 
1962	 5.13895886217575E-02 
1963	 5.39004657755187E-02 
1964	 5.40701962556874E-02 
1965	 5.08263135211406E-02 
1966	 5.08036576792478E-02 
1967	 4.93187545006094E-02 
1968	 0.046881314775149 
1969	 0.04659977000125 
1970	 4.82919193538345E-02 
1971	 0.048144016320053 
1972	 4.78648234058495E-02 
1973	 4.82721454779491E-02 
1974	 4.76668769652021E-02 
1975	 4.64379592995306E-02 
1976	 4.62673627467035E-02 
1977	 4.66652634915866E-02 
1978	 4.65226883276247E-02 
1979	 4.80115809744175E-02 
1980	 5.00289972783406E-02 
1981	 5.09903144157273E-02 
1982	 5.19717949510678E-02 
1983	 5.30545168563152E-02 
1984	 5.36408037822898E-02 
1985	 5.40274035428252E-02 
1986	 5.47161186746429E-02 
1987	 5.59646191526027E-02 
1988	 5.54700751754338E-02 
1989	 5.47364192173417E-02 
1990	 5.62235757659815E-02 
1991	 5.57250269451312E-02 
1992	 5.52623077610016E-02 
1993	 5.58996138755142E-02 
1994	 5.42629230074348E-02 
1995	 5.39692288780908E-02 
1996	 5.42384720558636E-02 
1997	 0.056241646374975 
1998	 5.77619747875448E-02 
1999	 5.92864105948562E-02 
2000	 5.93527460724605E-02 
2001	 6.06120378706046E-02 
2002	 0.061210732708889 
2003	 6.16289787334544E-02 
2004	 6.44518712382779E-02 
2005	 6.60118107303659E-02 
2006	 6.69602260871579E-02 
2007	 6.76304257569684E-02 
2008	 6.77023746378933E-02 
2009	 0.069250446997762 
2010	 6.95816315550413E-02 
2011	 6.74321827321766E-02 
2012	 6.80656351287975E-02 
2013	 6.70564017003155E-02 
2014	 6.61993022817224E-02 
2015	 6.86028267767198E-02 
2016	 6.93345231554371E-02 
2017	 6.68559146341441E-02 
2018	 6.60252214845654E-02 
2019	 6.55329401899045E-02 
2020	 6.44193350455841E-02 
2021	 6.41655161747661E-02 
2022	 6.60106027647272E-02 
2023	 6.51813530006645E-02 
2024	 6.53286948565243E-02 
2025	 6.65631571813677E-02 
2026	 6.71718720969767E-02 
2027	 6.90317277020368E-02 
2028	 6.98831816205978E-02 
2029	 6.96909979679184E-02 
2030	 7.02275608129687E-02 
2031	 7.07236999834894E-02 
2032	 7.11374698119647E-02 
2033	 7.15701906720885E-02 
2034	 7.28825349074793E-02 
2035	 7.29125062523779E-02 
2036	 7.17917406497037E-02 
2037	 7.19715631071803E-02 
2038	 7.21871950225079E-02 
2039	 7.23819939485535E-02 
2040	 7.36155343970312E-02 
2041	 7.43332538534127E-02 
2042	 0.074581115990134 
2043	 7.55239805041095E-02 
2044	 7.65881261736218E-02 
2045	 7.71039731699617E-02 
2046	 7.74466671657982E-02 
2047	 7.76963841882559E-02 
2048	 7.75528603602235E-02 
2049	 7.76466205218805E-02 
2050	 7.80369500922983E-02 
2051	 7.76553952958646E-02 
2052	 7.89504682780893E-02 
2053	 7.91096452494138E-02 
2054	 7.90393321320314E-02 
2055	 0.080728015406237 
2056	 7.96368585016647E-02 
2057	 7.99575285409342E-02 
2058	 8.14537857781222E-02 
2059	 8.21902640993835E-02 
2060	 8.25359824334424E-02 
2061	 8.40224899501644E-02 
2062	 8.41044658770124E-02 
2063	 8.43335373430589E-02 
2064	 8.45730618571158E-02 
2065	 8.43778540568513E-02 
2066	 8.53312563029056E-02 
2067	 8.55341725726001E-02 
2068	 8.65346802090216E-02 
2069	 0.088443890746024 
2070	 8.90435852246135E-02 
2071	 8.94922113507418E-02 
2072	 8.98922778597158E-02 
2073	 8.99288890323622E-02 
2074	 8.96024752186052E-02 
2075	 9.00319013555057E-02 
2076	 9.13942400763017E-02 
2077	 9.28352431080114E-02 
2078	 9.28156837897766E-02 
2079	 9.21781244086638E-02 
2080	 9.13883259037433E-02 
2081	 9.06722115054072E-02 
2082	 9.00002088247677E-02 
2083	 9.00194920044358E-02 
2084	 9.13197660203221E-02 
2085	 9.14497189707791E-02 
2086	 9.22901345983139E-02 
2087	 9.32180852061552E-02 
2088	 9.47469155711271E-02 
2089	 9.46710823722505E-02 
2090	 9.49012153206306E-02 
2091	 9.54446215919688E-02 
2092	 9.62044558900603E-02 
2093	 9.64619302107842E-02 
2094	 9.72203771252118E-02 
2095	 9.73161690788445E-02 
2096	 9.58790205690692E-02 
2097	 9.55645100138422E-02 
2098	 9.58454208743694E-02 
2099	 9.68864973033044E-02 
2100	 9.91995180204431E-02 
2101	 0.101028741374877 
2102	 0.102115638088832 
2103	 0.1026638609544 
2104	 0.102877035622505 
2105	 0.102790359331288 
2106	 0.103421001079535 
2107	 0.10428522098924 
2108	 0.104020308206744 
2109	 0.103525597173148 
2110	 0.10298508087081 
2111	 0.101466815005932 
2112	 0.101998343274859 
2113	 0.103714141091401 
2114	 0.103446986323941 
2115	 0.103698488616462 
2116	 0.104231191590797 
2117	 0.104504734322187 
2118	 0.104286736711954 
2119	 0.104670520224601 
2120	 0.105824846857657 
2121	 0.105418922779427 
2122	 0.105057208700839 
2123	 0.105767854438246 
2124	 0.106134739207876 
2125	 0.106405309818526 
2126	 0.107494418753182 
2127	 0.108228717366414 
2128	 0.107614149366847 
2129	 0.10877335127742 
2130	 0.11014013600216 
2131	 0.109543445499385 
2132	 0.109741330857931 
2133	 0.109700134619251 
2134	 0.109305145031193 
2135	 0.108014140045 
2136	 0.107396326296789 
2137	 0.108044696062825 
2138	 0.108738589792962 
2139	 0.108144952036224 
2140	 0.108949623883227 
2141	 0.109269036044001 
2142	 0.108496159937684 
2143	 0.10962796782684 
2144	 0.111233307437783 
2145	 0.112039356519497 
2146	 0.113867739447406 
2147	 0.116185207657677 
2148	 0.116340965798819 
2149	 0.11598823487959 
2150	 0.115535814767281 
2151	 0.115227245716114 
2152	 0.113891022561596 
2153	 0.114384888103723 
2154	 0.116421612279157 
2155	 0.117561114812081 
2156	 0.118027287757187 
2157	 0.118914431543926 
2158	 0.118288488140787 
2159	 0.116610504857834 
2160	 0.116835885854309 
2161	 0.117815047554719 
2162	 0.117610701861416 
2163	 0.117948538541865 
2164	 0.118472396487527 
2165	 0.118141337084237 
2166	 0.118854920708868 
2167	 0.120744683930045 
2168	 0.121435453945898 
2169	 0.12155201723212 
2170	 0.121255169742238 
2171	 0.11971187556557 
2172	 0.119619861078508 
2173	 0.121323132626902 
2174	 0.121874015059258 
2175	 0.124266070908117 
2176	 0.125584989891149 
2177	 0.123825167486522 
2178	 0.124812275071209 
2179	 0.125221858921134 
2180	 0.123531003127807 
2181	 0.12306817945508 
2182	 0.12217388416967 
2183	 0.121395771221065 
2184	 0.121590877925106 
2185	 0.121584799003258 
2186	 0.121951455146128 
2187	 0.12223370126463 
2188	 0.121574965942789 
2189	 0.122569536219312 
2190	 0.124646865184699 
2191	 0.126750342444111 
2192	 0.128815512098754 
2193	 0.130868196855399 
2194	 0.131938684233739 
2195	 0.131277718054997 
2196	 0.129867602767199 
2197	 0.128881179765185 
2198	 0.128668205898314 
2199	 0.129248675068386 
2200	 0.130649200349173 
2201	 0.130901303620491 
2202	 0.130165331200272 
2203	 0.129916059566764 
2204	 0.129495242346879 
2205	 0.129942005014953 
2206	 0.130016932922818 
2207	 0.12940278302528 
2208	 0.129181792077228 
2209	 0.127496414140018 
2210	 0.12793857230268 
2211	 0.130059681889175 
2212	 0.132349237182785 
2213	 0.131783852602704 
2214	 0.13371615294216 
2215	 0.134366166339718 
2216	 0.131037598316328 
2217	 0.131037557609612 
2218	 0.131469119103385 
2219	 0.129298192489778 
2220	 0.129317316160724 
2221	 0.130435244187497 
2222	 0.1294549141774 
2223	 0.128780322548565 
2224	 0.130713021006952 
2225	 0.131383829801327 
2226	 0.131027186219602 
2227	 0.132600319435643 
2228	 0.133389106788208 
2229	 0.132471329380039 
2230	 0.131057470486924 
2231	 0.130578003743844 
2232	 0.129315755925629 
2233	 0.12904164898348 
2234	 0.129885556054329 
2235	 0.131393694131988 
2236	 0.131795533564502 
2237	 0.131447073209605 
2238	 0.13033769959622 
2239	 0.129289294784818 
2240	 0.127203215663249 
2241	 0.124665321622843 
2242	 0.123392165412823 
2243	 0.123894352380429 
2244	 0.126833463239166 
2245	 0.128544696804701 
2246	 0.127858132239846 
2247	 0.127270440304835 
2248	 0.127243706286218 
2249	 0.126280100621661 
2250	 0.124784924917394 
2251	 0.12471061323694 
2252	 0.123913377784733 
2253	 0.122755814228703 
2254	 0.125354148683434 
2255	 0.127073416314464 
2256	 0.127673330789392 
2257	 0.127143321101872 
2258	 0.12816277238632 
2259	 0.127225579390777 
2260	 0.127107108138486 
2261	 0.128011164078136 
2262	 0.126753614531679 
2263	 0.123909800196643 
2264	 0.121726782858473 
2265	 0.120316058471686 
2266	 0.119791563679864 
2267	 0.120342083592853 
2268	 0.119653474214973 
2269	 0.118564587945842 
2270	 0.1187044273719 
2271	 0.118938498219392 
2272	 0.118386899335489 
2273	 0.116591724274249 
2274	 0.114361705549353 
2275	 0.114713161142675 
2276	 0.116179613204353 
2277	 0.117440753384852 
2278	 0.117989200769273 
2279	 0.119141042175011 
2280	 0.121976288966815 
2281	 0.122544921535243 
2282	 0.118336389467406 
2283	 0.112325406065238 
2284	 0.109251077203979 
2285	 0.107160118556108 
2286	 0.106285964246478 
2287	 0.109790817834113 
2288	 0.113391703998227 
2289	 0.113457423440053 
2290	 0.115356981492356 
2291	 0.115426730147118 
2292	 0.114817080954838 
2293	 0.113690689423653 
2294	 0.108804111233653 
2295	 0.107358636243085 
2296	 0.107462225922947 
2297	 0.105407791483144 
2298	 0.106395368458818 
2299	 0.107820633794565 
2300	 0.106450422957231 
2301	 0.106114299603373 
2302	 0.10608564322322 
2303	 0.105260351211086 
2304	 0.106543044935934 
2305	 0.108856239250441 
2306	 0.110266378662474 
2307	 0.110225452649349 
2308	 0.109278205139347 
2309	 0.107958156096399 
2310	 0.105902110669624 
2311	 0.104256889714302 
2312	 0.104303162695615 
2313	 0.103232529130441 
2314	 0.101090401467177 
2315	 0.101661677818476 
2316	 0.102385481186946 
2317	 0.102143115240386 
2318	 0.103521691169773 
2319	 0.102349033228173 
2320	 9.67161452220243E-02 
2321	 9.43228933777616E-02 
2322	 9.22231786605055E-02 
2323	 9.37722619994499E-02 
2324	 9.85519387210147E-02 
2325	 0.103340673240411 
2326	 0.10512768192619 
2327	 0.103603992298217 
2328	 9.73524471184998E-02 
2329	 9.41916479969367E-02 
2330	 9.37226348691999E-02 
2331	 9.33144897264088E-02 
2332	 0.093506930590705 
2333	 9.15155027808715E-02 
2334	 9.33595485844703E-02 
2335	 9.45057502221218E-02 
2336	 9.22796661175432E-02 
2337	 9.25455634665691E-02 
2338	 8.81589391495014E-02 
2339	 8.36508573700891E-02 
2340	 8.50609715253422E-02 
2341	 8.95868845834329E-02 
2342	 9.59475741426984E-02 
2343	 0.098460654157876 
2344	 9.69407200263723E-02 
2345	 9.22133659501173E-02 
2346	 8.71241209210615E-02 
2347	 8.80069824494676E-02 
2348	 9.20692990448734E-02 
2349	 9.73212585730415E-02 
2350	 9.96575567785915E-02 
2351	 9.59284594581457E-02 
2352	 9.61987733158826E-02 
2353	 9.97541282616213E-02 
2354	 9.94025787245088E-02 
2355	 9.88968601026494E-02 
2356	 9.50870310504787E-02 
2357	 8.45697661565775E-02 
2358	 7.87723082325766E-02 
2359	 8.28397828596898E-02 
2360	 8.88230132662924E-02 
2361	 9.01953113799477E-02 
2362	 8.81522422870201E-02 
2363	 8.38264505667853E-02 
2364	 7.94646674089435E-02 
2365	 8.02247417501193E-02 
2366	 8.49090445286568E-02 
2367	 8.97719834809344E-02 
2368	 9.39449119891428E-02 
2369	 9.79045802076811E-02 
2370	 0.098206739546143 
2371	 9.41889814550304E-02 
2372	 8.98181088264765E-02 
2373	 8.02206047229385E-02 
2374	 7.53324538120445E-02 
2375	 7.02004890490586E-02 
2376	 6.82048741975346E-02 
2377	 0.071095462692965 
2378	 7.08368991065181E-02 
2379	 7.21603625879346E-02 
2380	 7.38904594755656E-02 
2381	 7.72834241545608E-02 
2382	 7.55291164241079E-02 
2383	 6.73168408524049E-02 
2384	 6.38404822674121E-02 
2385	 5.55609979497166E-02 
2386	 5.29343608600684E-02 
2387	 6.00252578293706E-02 
2388	 6.76775437477268E-02 
2389	 0.082086564557291 
2390	 8.63831048538656E-02 
2391	 8.54857242445089E-02 
2392	 8.35138142430434E-02 
2393	 7.10158267066422E-02 
2394	 6.79746620603233E-02 
2395	 7.28857282822547E-02 
2396	 7.24892616264319E-02 
2397	 7.28405845266977E-02 
2398	 7.36647269004741E-02 
2399	 7.23314786540234E-02 
2400	 7.16951179691117E-02 
2401	 7.19628845179898E-02 
2402	 7.48749534045463E-02 
2403	 6.97027911360323E-02 
2404	 6.68383456978086E-02 
2405	 6.82701125706334E-02 
2406	 6.18010848327848E-02 
2407	 6.85386713929614E-02 
2408	 7.81089727037894E-02 
2409	 7.64708611389283E-02 
2410	 7.77227774574326E-02 
2411	 6.73765299189103E-02 
2412	 5.17528834827464E-02 
2413	 6.94847266730728E-02 
2414	 0.082260571164693 
2415	 7.82087930866475E-02 
2416	 9.37521639698679E-02 
2417	 0.100211823088856 
2418	 8.99940691279937E-02 
2419	 8.95415276406379E-02 
2420	 8.20669651637709E-02 
2421	 0.056066226892565 
2422	 5.49947392245393E-02 
2423	 6.83123976570173E-02 
2424	 6.86597173064741E-02 
2425	 7.95594376768121E-02 
2426	 8.12205079589149E-02 
2427	 7.25656071017923E-02 
2428	 8.22187554450251E-02 
2429	 8.45166254160806E-02 
2430	 0.070049319707194 
2431	 6.69629188435609E-02 
2432	 7.06696882426753E-02 
2433	 7.53923550929206E-02 
2434	 7.36895427461268E-02 
2435	 6.52108323493473E-02 
2436	 5.89263834486987E-02 
2437	 0.040674957775841 
2438	 4.29633654545114E-02 
2439	 6.59023446681987E-02 
2440	 7.90609321660663E-02 
2441	 0.106499754525197 
2442	 0.118309527975434 
2443	 0.116072023517824 
2444	 0.108683347680962 
2445	 7.57053690838573E-02 
2446	 7.06784776111707E-02 
2447	 8.67299350328341E-02 
2448	 8.44440574396604E-02 
2449	 0.081447273405576 
2450	 0.098859587395231 
2451	 0.122993704225779 
2452	 0.116014587948465 
2453	 0.11935019764849 
2454	 0.111510967339594 
2455	 4.81467069084871E-02 
2456	 0.021807946441305 
2457	 2.10231182284104E-02 
2458	 2.78958376495648E-02 
2459	 5.95694235865805E-02 
2460	 7.11994319599353E-02 
2461	 8.59240223500554E-02 
2462	 8.31939302919407E-02 
2463	 0.039521676324393 
2464	 2.39087278233263E-02 
2465	 2.39431275444324E-02 
2466	 4.06775667322643E-02 
2467	 9.22688272125023E-02 
2468	 0.120236183011269 
2469	 0.141233162696562 
2470	 0.148504692178053 
2471	 0.139287574595099 
2472	 0.141034935029744 
2473	 0.157844636837665 
2474	 0.152428385983812 
2475	 9.79975632146725E-02 
2476	 8.38294909293328E-02 
2477	 8.03032051400806E-02 
2478	 0.054930418198653 
2479	 0.065674128026967 
2480	 9.78676200978811E-02 
2481	 0.117378665527989 
2482	 0.116527188867363 
2483	 0.161784243969248 
2484	 0.146369302572138 
2485	 1.00185766912435E-02 
2486	 9.46286299612066E-02 
2487	 2.30151935256134E-02 
2488	-0.110031160880102 
2489	-0.189655886462737 
2490	-0.248716103590845 
2491	-0.155394516110273 
2492	 4.25917829254478E-02 
2493	 0.100021147288812 
2494	 0.23999230442021 
2495	 0.259515989989938 
2496	 0.283785710510225 
2497	 0.479207097937911 
2498	 0.396872603572463 
2499	 0.341144885780618 
2500	 0.383124110647944 
