Wavelength	ref00089.asd
350	 0.130639080309588 
351	 0.13169336211785 
352	 0.132290123859437 
353	 0.13216937817632 
354	 0.131778148702466 
355	 0.132114839353644 
356	 0.133246521832117 
357	 0.13318884269115 
358	 0.133541046173208 
359	 0.134597488761978 
360	 0.135895604135054 
361	 0.135748007386599 
362	 0.135693741472922 
363	 0.136093785478572 
364	 0.136457678389503 
365	 0.136944398662097 
366	 0.137535657204839 
367	 0.138030454375666 
368	 0.138004229328095 
369	 0.138013526173394 
370	 0.138388413780658 
371	 0.139124686700395 
372	 0.139474468323757 
373	 0.139692569517989 
374	 0.139860963424631 
375	 0.140022663635275 
376	 0.140669751836467 
377	 0.140937689387769 
378	 0.140975439106079 
379	 0.14220504566636 
380	 0.142359627308219 
381	 0.142393589800758 
382	 0.14322698108983 
383	 0.143805283736793 
384	 0.144037460667515 
385	 0.144290762030882 
386	 0.145005783196593 
387	 0.145509854442388 
388	 0.146077513140388 
389	 0.146731847582358 
390	 0.147183666630089 
391	 0.147686196631432 
392	 0.147933175529856 
393	 0.148011906540374 
394	 0.149161935650208 
395	 0.150010787943203 
396	 0.150533021484031 
397	 0.151139161249775 
398	 0.151769541316666 
399	 0.152392972281289 
400	 0.152956702331672 
401	 0.153405389011766 
402	 0.15379274250916 
403	 0.154286200650796 
404	 0.154872172740907 
405	 0.155117328088099 
406	 0.155690175259033 
407	 0.156461190741447 
408	 0.157079169291666 
409	 0.157601197343809 
410	 0.158342772177127 
411	 0.159242769882485 
412	 0.159928619368166 
413	 0.160669664835519 
414	 0.161366820129871 
415	 0.161926084628496 
416	 0.162331022351169 
417	 0.16318701285676 
418	 0.164097729422816 
419	 0.164531702800154 
420	 0.165184971482284 
421	 0.166005236582377 
422	 0.16671293565115 
423	 0.166945543731019 
424	 0.167784204319205 
425	 0.168637687082215 
426	 0.169099498716872 
427	 0.169782205466362 
428	 0.170494965443031 
429	 0.171077194557022 
430	 0.171501960228857 
431	 0.172405572275415 
432	 0.173140065276313 
433	 0.173643456728209 
434	 0.174388127074737 
435	 0.175055509635757 
436	 0.175610814257322 
437	 0.176106072841492 
438	 0.176667310044914 
439	 0.177262130020872 
440	 0.177864230625993 
441	 0.178437381052748 
442	 0.178892798969861 
443	 0.179444190633479 
444	 0.180058370614682 
445	 0.18047513194903 
446	 0.180956378318291 
447	 0.181476425135993 
448	 0.181985785541561 
449	 0.182515079972442 
450	 0.183016538683155 
451	 0.183400123009543 
452	 0.183634094086524 
453	 0.184146247591997 
454	 0.184661185123418 
455	 0.185096436975683 
456	 0.185656695665545 
457	 0.186163420255639 
458	 0.186621797844537 
459	 0.187070283905512 
460	 0.187512251023233 
461	 0.187934198060563 
462	 0.188350546369867 
463	 0.188779799611556 
464	 0.189140061195706 
465	 0.189530673757877 
466	 0.190006985504298 
467	 0.190533780688953 
468	 0.190972846252343 
469	 0.191374732699496 
470	 0.191828721584786 
471	 0.192331775143908 
472	 0.192868168474935 
473	 0.193428393947091 
474	 0.193991830897432 
475	 0.19434964373915 
476	 0.194701939140638 
477	 0.195187037743799 
478	 0.195730300223285 
479	 0.196162555715591 
480	 0.196575126350722 
481	 0.197085993989914 
482	 0.197423102648817 
483	 0.197768930518753 
484	 0.198251632008868 
485	 0.198903469273617 
486	 0.199391987348594 
487	 0.199867213722134 
488	 0.200464851757671 
489	 0.201022111291987 
490	 0.201596397112925 
491	 0.202113717348272 
492	 0.202501462063911 
493	 0.20300370174248 
494	 0.203558405480546 
495	 0.204112306588569 
496	 0.204655053082582 
497	 0.205150312112607 
498	 0.205646570621798 
499	 0.206168512874389 
500	 0.20655262487218 
501	 0.20723753016665 
502	 0.208063741420232 
503	 0.208556721220537 
504	 0.209144124355849 
505	 0.209743339058698 
506	 0.210284628529687 
507	 0.210811649593856 
508	 0.211418000581674 
509	 0.212030700211072 
510	 0.212563589666677 
511	 0.213127189428704 
512	 0.213714402718801 
513	 0.214332045353864 
514	 0.214992516006016 
515	 0.215535814646605 
516	 0.216092190401389 
517	 0.216765699546693 
518	 0.217480108004419 
519	 0.218208912262343 
520	 0.218918212869448 
521	 0.219587938075268 
522	 0.220247144488493 
523	 0.220924082762884 
524	 0.221590661331407 
525	 0.22215252759028 
526	 0.222870112832168 
527	 0.223697089047795 
528	 0.224518540241087 
529	 0.225269004553998 
530	 0.225875349265624 
531	 0.226410066610459 
532	 0.2270335254834 
533	 0.227854805073753 
534	 0.22867415124969 
535	 0.22939112032982 
536	 0.230133916893984 
537	 0.230881660744565 
538	 0.231681894753531 
539	 0.232556557096867 
540	 0.233335385174588 
541	 0.23418405823561 
542	 0.235036227627975 
543	 0.23565117886845 
544	 0.236479345971796 
545	 0.237351038397761 
546	 0.238127317678454 
547	 0.238992269103525 
548	 0.23978157376631 
549	 0.240505180865573 
550	 0.241241139247704 
551	 0.241997343139329 
552	 0.242749116447871 
553	 0.243488248902451 
554	 0.24422832830736 
555	 0.244974413514262 
556	 0.245679840213275 
557	 0.246351144922525 
558	 0.247215724692854 
559	 0.248073561289622 
560	 0.24883711333462 
561	 0.249531018361914 
562	 0.250408819625043 
563	 0.251250481969729 
564	 0.251953325315083 
565	 0.252717803838817 
566	 0.253536914891015 
567	 0.254351223756876 
568	 0.255098679975886 
569	 0.255816179268795 
570	 0.256591740682838 
571	 0.257410324462839 
572	 0.258160179373605 
573	 0.258748795911959 
574	 0.25932199552914 
575	 0.259956247407985 
576	 0.260406695765989 
577	 0.260899259293974 
578	 0.261423661276248 
579	 0.261879913214796 
580	 0.262379743055114 
581	 0.262924550731091 
582	 0.263492141730895 
583	 0.264046682641422 
584	 0.26456594471768 
585	 0.265047767086199 
586	 0.265508179357762 
587	 0.26599309180657 
588	 0.266600095855448 
589	 0.267271892005411 
590	 0.267822917571707 
591	 0.268229287168008 
592	 0.268545063352986 
593	 0.268799688809891 
594	 0.268910095602645 
595	 0.269102118126922 
596	 0.269329216902792 
597	 0.269487719030102 
598	 0.269704122352027 
599	 0.269930073064568 
600	 0.270158202972742 
601	 0.270424845417714 
602	 0.270647355541415 
603	 0.270845233113143 
604	 0.271056401100391 
605	 0.271307835388765 
606	 0.271598446055599 
607	 0.271871598603494 
608	 0.272068671584173 
609	 0.272353085322996 
610	 0.272683996918019 
611	 0.272981707787173 
612	 0.273144974020639 
613	 0.273417406894991 
614	 0.273722982322862 
615	 0.27394439853144 
616	 0.274161406580571 
617	 0.27442507520929 
618	 0.274689248917214 
619	 0.274860198829018 
620	 0.275064171940211 
621	 0.27533567515041 
622	 0.275615549512918 
623	 0.275672834024119 
624	 0.275860168001895 
625	 0.276175771097097 
626	 0.276482052402904 
627	 0.276692385904534 
628	 0.276943044978548 
629	 0.277212608073001 
630	 0.277331721167111 
631	 0.277620352515544 
632	 0.277946176597629 
633	 0.278165966790505 
634	 0.278345554777178 
635	 0.278476007421967 
636	 0.278649591750953 
637	 0.278952745220195 
638	 0.27912577752255 
639	 0.279287965673812 
640	 0.279497187990856 
641	 0.279688524463693 
642	 0.279950959488579 
643	 0.280185773087396 
644	 0.280341875021689 
645	 0.280662809978184 
646	 0.281029331596635 
647	 0.281381407659344 
648	 0.281692143340618 
649	 0.281906012440474 
650	 0.282048464847365 
651	 0.282182540966805 
652	 0.282418253484356 
653	 0.282625947049405 
654	 0.282766768515794 
655	 0.282881354136279 
656	 0.283220061049201 
657	 0.283539865506691 
658	 0.283708900311032 
659	 0.283785508636437 
660	 0.283898483654792 
661	 0.284087086716356 
662	 0.284334670547786 
663	 0.284566763385043 
664	 0.284706928262456 
665	 0.284875871587254 
666	 0.285198649908691 
667	 0.285432702092543 
668	 0.285685585663556 
669	 0.285964060667585 
670	 0.286179654293093 
671	 0.286388283343781 
672	 0.286641173815659 
673	 0.28693905655702 
674	 0.287176296241657 
675	 0.287433557132393 
676	 0.287703585088441 
677	 0.28794120890421 
678	 0.288084962942835 
679	 0.288334499373128 
680	 0.288677290600665 
681	 0.288877249508842 
682	 0.289186122211998 
683	 0.289454903120358 
684	 0.289584894518888 
685	 0.289812933318221 
686	 0.290014786032158 
687	 0.290292166179729 
688	 0.290774599141847 
689	 0.291169947727434 
690	 0.291421747494877 
691	 0.291675449508971 
692	 0.292208112039813 
693	 0.292820544967864 
694	 0.293351374532995 
695	 0.293669259370316 
696	 0.293698005255747 
697	 0.293744283899017 
698	 0.294006442286374 
699	 0.294546832814839 
700	 0.294964426068176 
701	 0.295232216724769 
702	 0.295429341978405 
703	 0.295708555191085 
704	 0.295868967039296 
705	 0.29595811267409 
706	 0.296089098161166 
707	 0.29641060816648 
708	 0.296716568326993 
709	 0.296972941734869 
710	 0.297231029114735 
711	 0.297519359270663 
712	 0.297788416554799 
713	 0.298087357589338 
714	 0.298581572044754 
715	 0.299248110844691 
716	 0.300214551809419 
717	 0.301559613558685 
718	 0.30310681873584 
719	 0.304007022569925 
720	 0.303979514778232 
721	 0.303389980673789 
722	 0.303038824021822 
723	 0.30345164658407 
724	 0.304509572560609 
725	 0.305333840404795 
726	 0.305640209171835 
727	 0.305803390875279 
728	 0.306144433184628 
729	 0.306457234062919 
730	 0.306714583040118 
731	 0.306801111429022 
732	 0.30663707013498 
733	 0.306378316853771 
734	 0.30629677454171 
735	 0.306464407720308 
736	 0.30676207730811 
737	 0.30692263817217 
738	 0.307078981635958 
739	 0.307306281506017 
740	 0.307375525639653 
741	 0.307592329244078 
742	 0.307855110272708 
743	 0.308026859306164 
744	 0.308503621860861 
745	 0.308891652547153 
746	 0.309106080667287 
747	 0.30932799975114 
748	 0.309675806305996 
749	 0.30997032307462 
750	 0.31015573529784 
751	 0.310450742253223 
752	 0.310809314026257 
753	 0.311163164081267 
754	 0.311457283351507 
755	 0.311721728600546 
756	 0.311945208500658 
757	 0.312131483540575 
758	 0.312319778994866 
759	 0.312729482250271 
760	 0.313475273429569 
761	 0.314479551711543 
762	 0.314964707748844 
763	 0.315247499775761 
764	 0.315387776058834 
765	 0.315358855982348 
766	 0.315162371888973 
767	 0.315173453635877 
768	 0.315325296814396 
769	 0.315458466404616 
770	 0.315588463271423 
771	 0.315819622248054 
772	 0.31610963843378 
773	 0.316305095071567 
774	 0.316525785944669 
775	 0.316790092917379 
776	 0.317048993356966 
777	 0.317163650484058 
778	 0.317450198962129 
779	 0.317812348229924 
780	 0.318067816463711 
781	 0.318179782580548 
782	 0.318357430620419 
783	 0.318683020981184 
784	 0.319108659001858 
785	 0.319275212865602 
786	 0.319541748395011 
787	 0.319956761594748 
788	 0.320193568038017 
789	 0.320633535054985 
790	 0.321036963749048 
791	 0.321241189898741 
792	 0.321484919546134 
793	 0.321719374405526 
794	 0.321943309546871 
795	 0.322180702313635 
796	 0.322525421220556 
797	 0.322803189095098 
798	 0.323015197318393 
799	 0.323263962536286 
800	 0.323524087711268 
801	 0.32376183656504 
802	 0.323984000291566 
803	 0.324242842153279 
804	 0.324457131332887 
805	 0.324629300494366 
806	 0.324770584829269 
807	 0.324856467514518 
808	 0.325220691490399 
809	 0.325674525609239 
810	 0.326013569506027 
811	 0.326698485577966 
812	 0.327463685226058 
813	 0.328302397337074 
814	 0.329318828688901 
815	 0.330244279595879 
816	 0.330988449134857 
817	 0.331362083829733 
818	 0.331146691353657 
819	 0.331007118058035 
820	 0.330790830783406 
821	 0.330631838727797 
822	 0.331392655398087 
823	 0.331831146604949 
824	 0.331876298272987 
825	 0.331791403965383 
826	 0.331683856630614 
827	 0.331896435949568 
828	 0.332273234721801 
829	 0.332487976278678 
830	 0.332686920410835 
831	 0.332766044821385 
832	 0.332768192724845 
833	 0.332839194980947 
834	 0.333001201975658 
835	 0.33287507806214 
836	 0.33262505909108 
837	 0.333025698581286 
838	 0.333076566838639 
839	 0.333095081513824 
840	 0.333332599920719 
841	 0.333400012502789 
842	 0.333461252448679 
843	 0.33360926193227 
844	 0.333860450721455 
845	 0.33404872790632 
846	 0.334245393582141 
847	 0.334520901976612 
848	 0.334872502161139 
849	 0.334914776063626 
850	 0.335163411489055 
851	 0.335541682329555 
852	 0.335585185946173 
853	 0.335818173824309 
854	 0.336246229026269 
855	 0.336682588832075 
856	 0.336834338106826 
857	 0.337069712420117 
858	 0.337259366015067 
859	 0.337354263618677 
860	 0.337543397976733 
861	 0.337840469149269 
862	 0.338146652600805 
863	 0.338377579465511 
864	 0.338550842941437 
865	 0.338927162998148 
866	 0.33944090499548 
867	 0.339852669637232 
868	 0.339804589958856 
869	 0.339837973078704 
870	 0.340116671168192 
871	 0.340536659808032 
872	 0.340776686404989 
873	 0.341030719710415 
874	 0.341361190659859 
875	 0.341694563703397 
876	 0.341859252238227 
877	 0.341940348629107 
878	 0.342117469670699 
879	 0.342579331218662 
880	 0.342925543981228 
881	 0.34343129526353 
882	 0.343977132811122 
883	 0.343852640050173 
884	 0.343976422954283 
885	 0.344349253364778 
886	 0.344760238728693 
887	 0.34499202975288 
888	 0.345003355292439 
889	 0.345396270974885 
890	 0.346323148669213 
891	 0.346402846784091 
892	 0.346919407601525 
893	 0.347754184568629 
894	 0.348522156257476 
895	 0.349678218042629 
896	 0.350536109106705 
897	 0.351198659551166 
898	 0.352045009873234 
899	 0.35293734616366 
900	 0.353218956988459 
901	 0.353033961288701 
902	 0.352936710845343 
903	 0.352974818839977 
904	 0.353045263665974 
905	 0.353223098110038 
906	 0.353643428003359 
907	 0.353956297457165 
908	 0.354923908877034 
909	 0.356195138570678 
910	 0.356576869095232 
911	 0.356828802558886 
912	 0.357152361669537 
913	 0.357553204096047 
914	 0.357921235669616 
915	 0.35860938108899 
916	 0.35868736207605 
917	 0.358159287716008 
918	 0.358127518673702 
919	 0.357662163866605 
920	 0.357561228516882 
921	 0.358014885251342 
922	 0.358184129668903 
923	 0.358439786243398 
924	 0.358867041474152 
925	 0.359482483424746 
926	 0.360269379640434 
927	 0.361471753153663 
928	 0.362913618378008 
929	 0.364677928941117 
930	 0.367486840352309 
931	 0.369804722970961 
932	 0.371875488011718 
933	 0.373951380089609 
934	 0.375207567918686 
935	 0.376837777393245 
936	 0.377948607755535 
937	 0.377617763323488 
938	 0.37601984318814 
939	 0.375999779430924 
940	 0.376045887637931 
941	 0.375236587370189 
942	 0.375653517340092 
943	 0.376258148602845 
944	 0.376786247835906 
945	 0.377206401038899 
946	 0.377626139661971 
947	 0.377262463360532 
948	 0.377248226909299 
949	 0.378032964764923 
950	 0.3776668314712 
951	 0.377868741975805 
952	 0.377906437830058 
953	 0.377471344341268 
954	 0.378301100488552 
955	 0.378723682436929 
956	 0.378543360065924 
957	 0.378199248720035 
958	 0.378519627146845 
959	 0.377957452771526 
960	 0.377618951027292 
961	 0.378116948950731 
962	 0.37807065259636 
963	 0.376859095934257 
964	 0.376168007798847 
965	 0.376385521539373 
966	 0.375048136617917 
967	 0.374572367767537 
968	 0.37480450552337 
969	 0.375087175765494 
970	 0.374927979807646 
971	 0.374358877383074 
972	 0.374465957205582 
973	 0.375195460316694 
974	 0.37477724385199 
975	 0.375245286601525 
976	 0.376064170873046 
977	 0.376439847938785 
978	 0.376040650692315 
979	 0.375630149995116 
980	 0.37556987686652 
981	 0.375309983992135 
982	 0.373846226329046 
983	 0.374334670869536 
984	 0.375063550862115 
985	 0.375182674616526 
986	 0.375239142725778 
987	 0.374845162567016 
988	 0.37513513919117 
989	 0.375674637355293 
990	 0.375227129792489 
991	 0.376227578326519 
992	 0.376765561725356 
993	 0.376574503027228 
994	 0.37643939390017 
995	 0.375335631427391 
996	 0.376146139928114 
997	 0.377466751071782 
998	 0.376784526002566 
999	 0.376834494490196 
1000	 0.377601295237389 
1001	 0.377417724281522 
1002	 0.377777153876836 
1003	 0.378055416196217 
1004	 0.378445067352829 
1005	 0.378631022863658 
1006	 0.3785795773124 
1007	 0.378747316247498 
1008	 0.378940428572578 
1009	 0.379059672863717 
1010	 0.379190411780235 
1011	 0.37944296675337 
1012	 0.379672241294981 
1013	 0.379845766794153 
1014	 0.380253037463489 
1015	 0.380609739577348 
1016	 0.380524041095037 
1017	 0.380663918817436 
1018	 0.380925084150019 
1019	 0.38119478328263 
1020	 0.381403326868114 
1021	 0.381809790466853 
1022	 0.382112074351922 
1023	 0.382206394588835 
1024	 0.382503099410125 
1025	 0.382972844167386 
1026	 0.383317913059839 
1027	 0.38354964135438 
1028	 0.383689278103141 
1029	 0.38386507137922 
1030	 0.384035365116485 
1031	 0.384229797531282 
1032	 0.384673999513841 
1033	 0.384964751608677 
1034	 0.385189292673079 
1035	 0.385435205433387 
1036	 0.385618839033812 
1037	 0.385794423648364 
1038	 0.385924149548968 
1039	 0.386295525358427 
1040	 0.386607180353913 
1041	 0.38691188973191 
1042	 0.387166688506545 
1043	 0.387321401864251 
1044	 0.38748596303015 
1045	 0.387630030731326 
1046	 0.387797244049087 
1047	 0.387968979026169 
1048	 0.38807691607718 
1049	 0.388225550533406 
1050	 0.388417436184104 
1051	 0.388683148271644 
1052	 0.388936629868257 
1053	 0.389168543459654 
1054	 0.389321776221671 
1055	 0.389511811521277 
1056	 0.389832559182698 
1057	 0.390093691349461 
1058	 0.390267533066439 
1059	 0.390449932046693 
1060	 0.390660666266833 
1061	 0.390796352492779 
1062	 0.390941310886904 
1063	 0.391115483601472 
1064	 0.391080363153926 
1065	 0.391237622288897 
1066	 0.391428056827263 
1067	 0.391941114669641 
1068	 0.392323369206537 
1069	 0.392673755361265 
1070	 0.393109854020218 
1071	 0.393225854957101 
1072	 0.393253914641404 
1073	 0.393540428467999 
1074	 0.393795039720116 
1075	 0.393961115357284 
1076	 0.394208068442019 
1077	 0.394488508978455 
1078	 0.394676613734849 
1079	 0.394890150973356 
1080	 0.395200784838479 
1081	 0.395556198477349 
1082	 0.395941758801384 
1083	 0.396387496141972 
1084	 0.396733898387063 
1085	 0.397052480882273 
1086	 0.397514434510139 
1087	 0.397858295497207 
1088	 0.398233435940307 
1089	 0.398705766163917 
1090	 0.399026133809656 
1091	 0.399322321928245 
1092	 0.399790079185614 
1093	 0.400408141881496 
1094	 0.401035382497448 
1095	 0.401709437706387 
1096	 0.402371695287875 
1097	 0.403024011494957 
1098	 0.40366229303703 
1099	 0.404282003457634 
1100	 0.404999566390378 
1101	 0.405670669695718 
1102	 0.406365079131403 
1103	 0.407129489945465 
1104	 0.407831262495373 
1105	 0.408549050617853 
1106	 0.409429087547849 
1107	 0.410380370642846 
1108	 0.411375158837966 
1109	 0.412522385622452 
1110	 0.41363222511513 
1111	 0.414854662961207 
1112	 0.416187969846024 
1113	 0.417692700971425 
1114	 0.419385496873939 
1115	 0.421296751034155 
1116	 0.423557634295018 
1117	 0.425885793896658 
1118	 0.428263013325637 
1119	 0.430610985681632 
1120	 0.432743993719172 
1121	 0.434494319187448 
1122	 0.435923868967788 
1123	 0.437276460365372 
1124	 0.438461517244834 
1125	 0.439420543769189 
1126	 0.439969395453083 
1127	 0.440165684590518 
1128	 0.44018086521349 
1129	 0.439679290387043 
1130	 0.43933314233329 
1131	 0.438901483714961 
1132	 0.438615769818118 
1133	 0.438308356640361 
1134	 0.43800877587689 
1135	 0.437866122241037 
1136	 0.437843391141369 
1137	 0.437865498987936 
1138	 0.437874042248083 
1139	 0.438187228611305 
1140	 0.438499040287323 
1141	 0.438799221181952 
1142	 0.439427960135135 
1143	 0.439935838712719 
1144	 0.440567265323464 
1145	 0.440888052657923 
1146	 0.441153327494654 
1147	 0.441251690603216 
1148	 0.441117103651559 
1149	 0.440951380539169 
1150	 0.440864903102275 
1151	 0.440444431119474 
1152	 0.439874091992784 
1153	 0.439145508992928 
1154	 0.438147945261419 
1155	 0.437098188702223 
1156	 0.436158393955052 
1157	 0.435284245209443 
1158	 0.434566043899244 
1159	 0.433913534389752 
1160	 0.433301633319828 
1161	 0.432670120958932 
1162	 0.432219227911379 
1163	 0.431873324267339 
1164	 0.431540638760315 
1165	 0.431254540080698 
1166	 0.431046954319201 
1167	 0.430874499446339 
1168	 0.43074706602719 
1169	 0.430713179085567 
1170	 0.430685696112089 
1171	 0.430640312955391 
1172	 0.430649301001777 
1173	 0.430662568710001 
1174	 0.430790893894398 
1175	 0.430976487318442 
1176	 0.43105286129173 
1177	 0.431186853388321 
1178	 0.431346275971744 
1179	 0.431496229122692 
1180	 0.431686208887577 
1181	 0.43183427347568 
1182	 0.431985383758552 
1183	 0.432092820555902 
1184	 0.43208196894701 
1185	 0.432180734492539 
1186	 0.432362677315166 
1187	 0.432461554213896 
1188	 0.432569876795788 
1189	 0.432678890445014 
1190	 0.432691328167641 
1191	 0.432717251774125 
1192	 0.432832787900974 
1193	 0.432915476967714 
1194	 0.432951677245254 
1195	 0.432924556747027 
1196	 0.433018666877047 
1197	 0.433131485893974 
1198	 0.433245916199794 
1199	 0.433449649643168 
1200	 0.433591231520688 
1201	 0.433676929228165 
1202	 0.433788816679077 
1203	 0.433954465563855 
1204	 0.434075629384756 
1205	 0.43418518939163 
1206	 0.434232714102544 
1207	 0.434161062589379 
1208	 0.43418055734908 
1209	 0.434190070310454 
1210	 0.434268694021789 
1211	 0.434331409752547 
1212	 0.434441184151184 
1213	 0.434514046959605 
1214	 0.434522818251411 
1215	 0.434619388083707 
1216	 0.434745559025207 
1217	 0.43490907453644 
1218	 0.43512221954178 
1219	 0.435316175891911 
1220	 0.435576685171074 
1221	 0.435749499053553 
1222	 0.435844407546215 
1223	 0.436008503969643 
1224	 0.436144863873401 
1225	 0.436341099582244 
1226	 0.43662750794998 
1227	 0.436866743632478 
1228	 0.437095305173981 
1229	 0.437331540894239 
1230	 0.437588951138089 
1231	 0.437843580454772 
1232	 0.438024727469336 
1233	 0.438172998227222 
1234	 0.438347614532875 
1235	 0.438470635222198 
1236	 0.438619255125333 
1237	 0.438784269507192 
1238	 0.438992465173002 
1239	 0.439192246795985 
1240	 0.439424920449568 
1241	 0.439762203400181 
1242	 0.440022702961148 
1243	 0.440260865399246 
1244	 0.440472704348279 
1245	 0.440631991474138 
1246	 0.440827290888636 
1247	 0.440983819855485 
1248	 0.441196985304879 
1249	 0.441492110662999 
1250	 0.441749521404286 
1251	 0.442064827256502 
1252	 0.442300485392724 
1253	 0.442489960983162 
1254	 0.442599917967078 
1255	 0.442785534628742 
1256	 0.442923117895843 
1257	 0.443150666151203 
1258	 0.443486082048052 
1259	 0.443746185380363 
1260	 0.444035372993899 
1261	 0.444254706763972 
1262	 0.444407536966834 
1263	 0.444584412422382 
1264	 0.444668036553886 
1265	 0.444876174847013 
1266	 0.445149020396705 
1267	 0.445433286410336 
1268	 0.445937180709698 
1269	 0.446184256114603 
1270	 0.446206890781961 
1271	 0.446347907904905 
1272	 0.446366082325388 
1273	 0.44641429378498 
1274	 0.446663147569957 
1275	 0.447167755638376 
1276	 0.447403102153325 
1277	 0.447610648087479 
1278	 0.447842771716633 
1279	 0.447923782166521 
1280	 0.448195661953947 
1281	 0.448639316762565 
1282	 0.448975320697837 
1283	 0.449346744207213 
1284	 0.44964389534332 
1285	 0.449855342460611 
1286	 0.450124653828823 
1287	 0.450348430662077 
1288	 0.450649038569485 
1289	 0.451038167170264 
1290	 0.451385877265036 
1291	 0.451738143451728 
1292	 0.452109906327557 
1293	 0.452433449639084 
1294	 0.452838249633653 
1295	 0.453328121454475 
1296	 0.453833342280635 
1297	 0.454290191389617 
1298	 0.454776704926979 
1299	 0.45522584971234 
1300	 0.455569045980008 
1301	 0.456088346654426 
1302	 0.456743298458299 
1303	 0.457256543093622 
1304	 0.457796884134453 
1305	 0.458302504440765 
1306	 0.458634504188933 
1307	 0.459165151933126 
1308	 0.459830546167889 
1309	 0.460457102864849 
1310	 0.461191797062137 
1311	 0.461824026737533 
1312	 0.462451358039655 
1313	 0.46298732790725 
1314	 0.463354947505312 
1315	 0.463841628549959 
1316	 0.464309288441323 
1317	 0.464811327830303 
1318	 0.465403418768138 
1319	 0.465994024800842 
1320	 0.466603469902884 
1321	 0.467173719856511 
1322	 0.467826772594986 
1323	 0.468529605896963 
1324	 0.469293088675626 
1325	 0.470134464760963 
1326	 0.470974240930634 
1327	 0.471918067425091 
1328	 0.472797286016281 
1329	 0.473675446330433 
1330	 0.474532366770682 
1331	 0.475427040647474 
1332	 0.476180455236717 
1333	 0.476822247729171 
1334	 0.477452271332718 
1335	 0.477952317243212 
1336	 0.478470975431954 
1337	 0.4788404524573 
1338	 0.479482843209292 
1339	 0.480269208557026 
1340	 0.481118282119456 
1341	 0.482235376622049 
1342	 0.483513082204826 
1343	 0.485165486577939 
1344	 0.48685707946544 
1345	 0.488950495982276 
1346	 0.491528068091961 
1347	 0.494642874894019 
1348	 0.497833797540244 
1349	 0.501562981354532 
1350	 0.506636355698931 
1351	 0.51158439997665 
1352	 0.516599804256724 
1353	 0.522254653763118 
1354	 0.525929181586603 
1355	 0.533273375613615 
1356	 0.539644808665435 
1357	 0.55004524685978 
1358	 0.562904656320592 
1359	 0.581405313939496 
1360	 0.586382032711398 
1361	 0.607961480668973 
1362	 0.625750733077414 
1363	 0.655893046232377 
1364	 0.681757887395367 
1365	 0.695239365299356 
1366	 0.682137033348246 
1367	 0.672524252410981 
1368	 0.647095356960866 
1369	 0.63676035580415 
1370	 0.630527703857261 
1371	 0.629913725351557 
1372	 0.631610512227463 
1373	 0.636031107335966 
1374	 0.644569642236697 
1375	 0.655140818400764 
1376	 0.655282128999335 
1377	 0.654309543855823 
1378	 0.653785546144943 
1379	 0.647333602439125 
1380	 0.644381425063761 
1381	 0.644424973240909 
1382	 0.64469364911135 
1383	 0.644726280782936 
1384	 0.64321960893301 
1385	 0.644546452557144 
1386	 0.642091456164658 
1387	 0.634629180628465 
1388	 0.632731459022287 
1389	 0.634432380534572 
1390	 0.631882942330883 
1391	 0.630447936553996 
1392	 0.626276028215233 
1393	 0.618037977017298 
1394	 0.612406783099006 
1395	 0.606768149416313 
1396	 0.602522481983217 
1397	 0.59975626595547 
1398	 0.596382081697634 
1399	 0.592392425630028 
1400	 0.58966896603779 
1401	 0.587756265753912 
1402	 0.585629574952163 
1403	 0.586502634167967 
1404	 0.583706931049764 
1405	 0.579947047483604 
1406	 0.574422865960342 
1407	 0.56826357908637 
1408	 0.562393508825018 
1409	 0.557644611341272 
1410	 0.553520766986189 
1411	 0.549446864208368 
1412	 0.546056390306388 
1413	 0.542051445317658 
1414	 0.53745054102133 
1415	 0.534802393623648 
1416	 0.532894459565802 
1417	 0.530444980152711 
1418	 0.529052530604082 
1419	 0.526273961740514 
1420	 0.522291043177447 
1421	 0.519549002037537 
1422	 0.516770399460635 
1423	 0.514774579159614 
1424	 0.51333148137986 
1425	 0.511860122142092 
1426	 0.510611179329024 
1427	 0.509379962580392 
1428	 0.50809656894338 
1429	 0.507017647195574 
1430	 0.505719803962633 
1431	 0.505056601633679 
1432	 0.504810151201824 
1433	 0.504568478903397 
1434	 0.505019569688591 
1435	 0.50493723655467 
1436	 0.504722482083866 
1437	 0.504237922580707 
1438	 0.503454013866937 
1439	 0.502604635121126 
1440	 0.501658672928226 
1441	 0.500588530250546 
1442	 0.49941387778598 
1443	 0.498177515963231 
1444	 0.497100005783988 
1445	 0.49579175533803 
1446	 0.494626531160422 
1447	 0.493522627397445 
1448	 0.492257947824256 
1449	 0.490939243543345 
1450	 0.489653708689106 
1451	 0.488309691719015 
1452	 0.487111625491945 
1453	 0.485873067522509 
1454	 0.484938449052518 
1455	 0.484066928430509 
1456	 0.483424769236462 
1457	 0.482841841871649 
1458	 0.482603637882242 
1459	 0.482578828131226 
1460	 0.482636841349 
1461	 0.482955828483259 
1462	 0.48334161713373 
1463	 0.483783034487376 
1464	 0.484451193584302 
1465	 0.485630021267119 
1466	 0.486399539399085 
1467	 0.487153510600497 
1468	 0.487768001132772 
1469	 0.488153131462467 
1470	 0.488405224444792 
1471	 0.488591336237673 
1472	 0.488562649943158 
1473	 0.488301428031112 
1474	 0.48789035840947 
1475	 0.487264090291826 
1476	 0.48669602726249 
1477	 0.485946908889132 
1478	 0.485319254888072 
1479	 0.484816186270541 
1480	 0.484258206232626 
1481	 0.48380944145995 
1482	 0.483170902301887 
1483	 0.482382872127432 
1484	 0.481668599288014 
1485	 0.480926975149911 
1486	 0.480148305922184 
1487	 0.479404999803501 
1488	 0.478692957150138 
1489	 0.477814161277262 
1490	 0.476966414938975 
1491	 0.47611955422639 
1492	 0.475314398335976 
1493	 0.474833475389297 
1494	 0.474394045243179 
1495	 0.473962287916635 
1496	 0.47368159354033 
1497	 0.473324848832616 
1498	 0.472841955063705 
1499	 0.472596576365767 
1500	 0.472465053975402 
1501	 0.472367868097284 
1502	 0.472406630129215 
1503	 0.472309720043195 
1504	 0.472163818391558 
1505	 0.472135674417886 
1506	 0.472146452628884 
1507	 0.472061349057749 
1508	 0.471986650642906 
1509	 0.471981823333171 
1510	 0.471871320465655 
1511	 0.471914902404882 
1512	 0.472203382293606 
1513	 0.472265326355031 
1514	 0.472248411697408 
1515	 0.472233714999868 
1516	 0.472067764170399 
1517	 0.472111240906102 
1518	 0.472289836383273 
1519	 0.472372337612289 
1520	 0.47257085951047 
1521	 0.472621931544666 
1522	 0.472492956258071 
1523	 0.472478942644837 
1524	 0.47243053958146 
1525	 0.472479543469821 
1526	 0.472649961492761 
1527	 0.472741829738549 
1528	 0.47284271550219 
1529	 0.472951055246638 
1530	 0.472995363367862 
1531	 0.473114157693489 
1532	 0.473382514913087 
1533	 0.473478706093594 
1534	 0.47346607151794 
1535	 0.473524901246275 
1536	 0.473410115846886 
1537	 0.473528707333033 
1538	 0.47396743612862 
1539	 0.474163772507361 
1540	 0.474332811610723 
1541	 0.474495823530103 
1542	 0.474491077175751 
1543	 0.474552482896817 
1544	 0.474712209618227 
1545	 0.47481407679872 
1546	 0.47480040467479 
1547	 0.474905484377315 
1548	 0.475081713439271 
1549	 0.475250614352941 
1550	 0.475505127657388 
1551	 0.475724555280456 
1552	 0.475921859502554 
1553	 0.476109465572309 
1554	 0.476285764057444 
1555	 0.476468544943721 
1556	 0.476626019501635 
1557	 0.476805123227961 
1558	 0.477003851813925 
1559	 0.477205387369725 
1560	 0.477478046680327 
1561	 0.477660650944594 
1562	 0.477768456013471 
1563	 0.477900830336083 
1564	 0.477993930707819 
1565	 0.478052218091455 
1566	 0.478128986437035 
1567	 0.478377191328643 
1568	 0.478550823175715 
1569	 0.478724628127938 
1570	 0.478948816762452 
1571	 0.479207823437818 
1572	 0.47945101146707 
1573	 0.4797207398939 
1574	 0.479985206046874 
1575	 0.480268823659474 
1576	 0.480440643097558 
1577	 0.480556198987568 
1578	 0.480749602146365 
1579	 0.480859685291542 
1580	 0.481105205055934 
1581	 0.481519421839444 
1582	 0.481737364089842 
1583	 0.481875339351267 
1584	 0.482105441154744 
1585	 0.482298887975994 
1586	 0.482534830888448 
1587	 0.482895384819661 
1588	 0.483075317531691 
1589	 0.483115562669074 
1590	 0.483328919752447 
1591	 0.483579561879294 
1592	 0.483749195648575 
1593	 0.483965936488567 
1594	 0.484183279510774 
1595	 0.484287282669462 
1596	 0.484511161558378 
1597	 0.484892425486492 
1598	 0.485126460342984 
1599	 0.485300937888357 
1600	 0.485485325881136 
1601	 0.485618393599304 
1602	 0.485822052805457 
1603	 0.486050270173885 
1604	 0.48626665417175 
1605	 0.486531137603826 
1606	 0.486734798285779 
1607	 0.4868625520515 
1608	 0.487098996416529 
1609	 0.487387430493492 
1610	 0.487603447015949 
1611	 0.487852215577208 
1612	 0.488057800827202 
1613	 0.48817137514452 
1614	 0.488365256319657 
1615	 0.488608932359482 
1616	 0.488812459707198 
1617	 0.489023700122437 
1618	 0.489196606360144 
1619	 0.489329764428012 
1620	 0.489497772548054 
1621	 0.48965363309412 
1622	 0.489835248356016 
1623	 0.490077738582233 
1624	 0.490217645209894 
1625	 0.490281178521342 
1626	 0.49045183516997 
1627	 0.490615557456434 
1628	 0.490818964237588 
1629	 0.491121742659364 
1630	 0.491354188942204 
1631	 0.491568071758855 
1632	 0.491744149755079 
1633	 0.491910336700827 
1634	 0.492061486161766 
1635	 0.492142839372274 
1636	 0.49229076452735 
1637	 0.492505636322292 
1638	 0.492626940580174 
1639	 0.492722630430287 
1640	 0.492802282292746 
1641	 0.492754958578129 
1642	 0.492896460821337 
1643	 0.493139622000674 
1644	 0.493349568340604 
1645	 0.493654800530253 
1646	 0.493882078173304 
1647	 0.494052847423005 
1648	 0.49424802439101 
1649	 0.494474679080433 
1650	 0.494600724608075 
1651	 0.494678619759358 
1652	 0.494753039933471 
1653	 0.494734137991306 
1654	 0.49486479389492 
1655	 0.495071407786299 
1656	 0.495187327981205 
1657	 0.495325132836947 
1658	 0.495401589810719 
1659	 0.49553919124927 
1660	 0.495588865464943 
1661	 0.495691949334106 
1662	 0.495678713146201 
1663	 0.495637430952294 
1664	 0.495803894168339 
1665	 0.495919735653675 
1666	 0.49607212227268 
1667	 0.496150302843238 
1668	 0.496059893004586 
1669	 0.496017893653737 
1670	 0.496030506804406 
1671	 0.495958039714199 
1672	 0.49593638558301 
1673	 0.495895615584403 
1674	 0.495785495021371 
1675	 0.495725504883791 
1676	 0.495571053348724 
1677	 0.495409497797504 
1678	 0.495173712468773 
1679	 0.494961192569663 
1680	 0.494881457843126 
1681	 0.494781485087655 
1682	 0.494726615305038 
1683	 0.494628783306529 
1684	 0.494450228341112 
1685	 0.494356333109133 
1686	 0.494243809011466 
1687	 0.494155835657917 
1688	 0.494144285573178 
1689	 0.494088034716588 
1690	 0.494166759617029 
1691	 0.494073285243519 
1692	 0.493768576297627 
1693	 0.493632054656371 
1694	 0.493576347842271 
1695	 0.493388893423303 
1696	 0.493250523761797 
1697	 0.493089964811039 
1698	 0.492652275222867 
1699	 0.492413880011472 
1700	 0.49238562737403 
1701	 0.492293868926901 
1702	 0.492272285579123 
1703	 0.49218493102565 
1704	 0.492117224437401 
1705	 0.491908425862275 
1706	 0.491498576894592 
1707	 0.491256184291566 
1708	 0.490993693817486 
1709	 0.490749932964412 
1710	 0.490725300278772 
1711	 0.490488534723696 
1712	 0.490053823437705 
1713	 0.489755770549718 
1714	 0.489441068111377 
1715	 0.489165304850969 
1716	 0.488945419175463 
1717	 0.488735115294535 
1718	 0.488543000799981 
1719	 0.488318292726638 
1720	 0.488188101676062 
1721	 0.487872092513666 
1722	 0.487365580800175 
1723	 0.487010341620571 
1724	 0.486623032979274 
1725	 0.486319154532517 
1726	 0.486167241186567 
1727	 0.485907318213164 
1728	 0.48553882935657 
1729	 0.485331269244229 
1730	 0.485111005922976 
1731	 0.485178407420895 
1732	 0.48526210811328 
1733	 0.485570323769201 
1734	 0.486158903751399 
1735	 0.486730027361936 
1736	 0.487348799661757 
1737	 0.487903921798525 
1738	 0.488408831081981 
1739	 0.488850840438867 
1740	 0.489431723247955 
1741	 0.489851543173233 
1742	 0.490040027855266 
1743	 0.490605853292887 
1744	 0.491012510852334 
1745	 0.491260498251704 
1746	 0.491820888795891 
1747	 0.492127259370778 
1748	 0.492241137740698 
1749	 0.492365005741298 
1750	 0.492502530053471 
1751	 0.492569363863206 
1752	 0.49246481709725 
1753	 0.492569126718747 
1754	 0.492538108806842 
1755	 0.492364233281972 
1756	 0.492511067560396 
1757	 0.492738076754059 
1758	 0.493097860898455 
1759	 0.493723414269671 
1760	 0.494173939582362 
1761	 0.494686990136692 
1762	 0.495044374218297 
1763	 0.495103655396967 
1764	 0.495506699793724 
1765	 0.495957844755764 
1766	 0.496564206782927 
1767	 0.497585335521214 
1768	 0.498286599501811 
1769	 0.498847922297614 
1770	 0.499662642769878 
1771	 0.500402782438337 
1772	 0.501347184448736 
1773	 0.50273009441822 
1774	 0.503729193653102 
1775	 0.504662625901642 
1776	 0.505672281982353 
1777	 0.506289986469669 
1778	 0.507038103934193 
1779	 0.507893521869935 
1780	 0.508472177597287 
1781	 0.509214409385071 
1782	 0.509775972787931 
1783	 0.510227325415009 
1784	 0.511001144014328 
1785	 0.511687890442398 
1786	 0.512266189624951 
1787	 0.513222080191166 
1788	 0.514398381117778 
1789	 0.51542539527879 
1790	 0.516821625337147 
1791	 0.51821659264477 
1792	 0.518861790024709 
1793	 0.519923656203674 
1794	 0.521790416835016 
1795	 0.523335007311255 
1796	 0.525143403370101 
1797	 0.526621436475535 
1798	 0.527198152244185 
1799	 0.528362618941487 
1800	 0.53015755859597 
1801	 0.533207796646937 
1802	 0.537217226351743 
1803	 0.540198354227827 
1804	 0.543323839770913 
1805	 0.546498009921471 
1806	 0.548848580485755 
1807	 0.551912349665997 
1808	 0.556665605989773 
1809	 0.559687811816469 
1810	 0.562010811613236 
1811	 0.562414677864472 
1812	 0.565434802395007 
1813	 0.568021318374745 
1814	 0.571690409579401 
1815	 0.57945096045422 
1816	 0.584859462131324 
1817	 0.587833888276082 
1818	 0.592557449285886 
1819	 0.597720356122799 
1820	 0.604049779473207 
1821	 0.60791205248193 
1822	 0.610701970592756 
1823	 0.613508822356628 
1824	 0.611014642909444 
1825	 0.612683359541994 
1826	 0.617692653881145 
1827	 0.623245882989063 
1828	 0.631016344726363 
1829	 0.645524006826055 
1830	 0.655797339088287 
1831	 0.662810623407845 
1832	 0.677929915336114 
1833	 0.698741860697158 
1834	 0.717236447188732 
1835	 0.746577995805633 
1836	 0.76330375985388 
1837	 0.704409930010542 
1838	 0.684936578176912 
1839	 0.675836389755422 
1840	 0.665150944154514 
1841	 0.677770569499707 
1842	 0.7507458269449 
1843	 0.748754874735585 
1844	 0.699128703721926 
1845	 0.700516827916408 
1846	 0.705101160403336 
1847	 0.698418691892406 
1848	 0.698166535901182 
1849	 0.746607435039975 
1850	 0.739226150041074 
1851	 0.658562663941179 
1852	 0.655284435247782 
1853	 0.682272510697238 
1854	 0.700345293271996 
1855	 0.778267159621183 
1856	 0.801507791442966 
1857	 0.782150274549851 
1858	 0.760408648255593 
1859	 0.763944538910652 
1860	 0.782206150405625 
1861	 0.766247129612661 
1862	 0.722537925933103 
1863	 0.725907271667481 
1864	 0.74002883697867 
1865	 0.738734987530505 
1866	 0.75840981799568 
1867	 0.815949858411881 
1868	 0.800049383350536 
1869	 0.735271798745509 
1870	 0.71810640584626 
1871	 0.719895624719396 
1872	 0.719939572943632 
1873	 0.747536315452123 
1874	 0.74040042487426 
1875	 0.723311256598554 
1876	 0.710690805691528 
1877	 0.691525698132713 
1878	 0.670505330961814 
1879	 0.681998744537661 
1880	 0.684287609585259 
1881	 0.684805302111997 
1882	 0.697859059196672 
1883	 0.692517793977583 
1884	 0.667279460526908 
1885	 0.660273061827373 
1886	 0.657403789761383 
1887	 0.650207777402228 
1888	 0.647657494922374 
1889	 0.659534335515003 
1890	 0.657749578826986 
1891	 0.646718553448775 
1892	 0.642881535901908 
1893	 0.633969070831677 
1894	 0.633153314423726 
1895	 0.643082122276773 
1896	 0.650704990789606 
1897	 0.6667656816389 
1898	 0.677503340582926 
1899	 0.695124636857078 
1900	 0.712003033885377 
1901	 0.709449779040983 
1902	 0.677813379299862 
1903	 0.672316400522951 
1904	 0.647936428303716 
1905	 0.647945718914066 
1906	 0.69465806346384 
1907	 0.718719055815787 
1908	 0.700713442570876 
1909	 0.671310951331092 
1910	 0.657486809012102 
1911	 0.642841488850729 
1912	 0.631118815446132 
1913	 0.639485043250679 
1914	 0.621663945129142 
1915	 0.588230509526879 
1916	 0.577197260409729 
1917	 0.572343746842274 
1918	 0.55799091315122 
1919	 0.555462396243422 
1920	 0.558736764004633 
1921	 0.554128403878662 
1922	 0.554872385698773 
1923	 0.553894731590216 
1924	 0.551885304831107 
1925	 0.551717259580216 
1926	 0.556062034529159 
1927	 0.553100480425898 
1928	 0.547563467145912 
1929	 0.543592394535413 
1930	 0.538002513991089 
1931	 0.527771815901566 
1932	 0.523829556635518 
1933	 0.522334465145958 
1934	 0.517697629001818 
1935	 0.510916924090452 
1936	 0.507121923128439 
1937	 0.502996373052707 
1938	 0.500707175731246 
1939	 0.499249286118958 
1940	 0.50051959780074 
1941	 0.501116913737742 
1942	 0.498609694313662 
1943	 0.495858232493119 
1944	 0.492872415592492 
1945	 0.489605359857578 
1946	 0.48795869304246 
1947	 0.486559616995499 
1948	 0.485852857196445 
1949	 0.485071302028767 
1950	 0.485018032923578 
1951	 0.483651519656551 
1952	 0.482556191926349 
1953	 0.482745383603997 
1954	 0.481107713996352 
1955	 0.47912426572258 
1956	 0.478420304445805 
1957	 0.475800437043937 
1958	 0.473580657610266 
1959	 0.471853359932585 
1960	 0.47053026239335 
1961	 0.469206460331595 
1962	 0.467650461203057 
1963	 0.466686386817821 
1964	 0.465006126931158 
1965	 0.463406925958955 
1966	 0.462522736758852 
1967	 0.461306276360019 
1968	 0.460533721922909 
1969	 0.45985195147092 
1970	 0.458854597270078 
1971	 0.458292089699413 
1972	 0.458032167311242 
1973	 0.457985654632887 
1974	 0.458007067162505 
1975	 0.457991656144 
1976	 0.458288412175198 
1977	 0.458481694097462 
1978	 0.45824685057365 
1979	 0.458612461956996 
1980	 0.458680255157859 
1981	 0.45845806532649 
1982	 0.458288622862348 
1983	 0.45828862947778 
1984	 0.457565426641254 
1985	 0.457001726039712 
1986	 0.456756635069334 
1987	 0.456413685523716 
1988	 0.456581062930635 
1989	 0.456629056597067 
1990	 0.456516919516283 
1991	 0.456292668180874 
1992	 0.455845556830983 
1993	 0.455515683273279 
1994	 0.455119646555283 
1995	 0.454983517091897 
1996	 0.45495360295184 
1997	 0.455450210342047 
1998	 0.456032545204648 
1999	 0.456893038310045 
2000	 0.458119982891126 
2001	 0.459146551396695 
2002	 0.460753615599147 
2003	 0.462549928794551 
2004	 0.463668458542769 
2005	 0.465743986332781 
2006	 0.467434465190078 
2007	 0.468751525701855 
2008	 0.46918398254716 
2009	 0.47164619081319 
2010	 0.473390826491637 
2011	 0.474557319832085 
2012	 0.478067384423673 
2013	 0.480200972869141 
2014	 0.480810601316529 
2015	 0.482351323440583 
2016	 0.483266038910895 
2017	 0.483619584659081 
2018	 0.484491794617788 
2019	 0.484931433448269 
2020	 0.485018748319498 
2021	 0.485038453531753 
2022	 0.485667482875665 
2023	 0.486162465083403 
2024	 0.486416381408954 
2025	 0.486375263188555 
2026	 0.486267733838674 
2027	 0.486375129529056 
2028	 0.486963647403892 
2029	 0.487721120863607 
2030	 0.488084343766374 
2031	 0.488185694225282 
2032	 0.488353274620455 
2033	 0.488347901350271 
2034	 0.488498280384273 
2035	 0.488754955398288 
2036	 0.489161094053634 
2037	 0.489452815281864 
2038	 0.489500821315559 
2039	 0.489912862949427 
2040	 0.490410259373438 
2041	 0.490639154500539 
2042	 0.491104099122408 
2043	 0.491464424829542 
2044	 0.491140932180726 
2045	 0.49109561436523 
2046	 0.491083067606083 
2047	 0.491321863411619 
2048	 0.491436606895268 
2049	 0.492062925662323 
2050	 0.492754309554814 
2051	 0.493006494040888 
2052	 0.492975597445276 
2053	 0.492781389838796 
2054	 0.492698548044611 
2055	 0.492885212334952 
2056	 0.493166160904558 
2057	 0.493561096353271 
2058	 0.494194188765418 
2059	 0.494643222978708 
2060	 0.494975537597969 
2061	 0.495329082403698 
2062	 0.495547642467407 
2063	 0.495289571340295 
2064	 0.495125520835277 
2065	 0.495014277285639 
2066	 0.494849098841903 
2067	 0.494687461204282 
2068	 0.494539147820403 
2069	 0.494756165910892 
2070	 0.494846975890275 
2071	 0.494739467620015 
2072	 0.494556504449425 
2073	 0.494203729406533 
2074	 0.493643628327652 
2075	 0.493792353968026 
2076	 0.494094130995626 
2077	 0.494179958914557 
2078	 0.494324713013633 
2079	 0.494186587186795 
2080	 0.494289924648897 
2081	 0.494962098760408 
2082	 0.495640414407006 
2083	 0.496043705962734 
2084	 0.496354978477343 
2085	 0.496371342566545 
2086	 0.495997794291333 
2087	 0.495667524012904 
2088	 0.495103983712061 
2089	 0.49468926200216 
2090	 0.495057115857329 
2091	 0.495652177985518 
2092	 0.495907399513046 
2093	 0.496000443618718 
2094	 0.495334359886066 
2095	 0.494701536412697 
2096	 0.49516789281647 
2097	 0.495809324517297 
2098	 0.496408763057512 
2099	 0.496718834603055 
2100	 0.496174014090724 
2101	 0.495692382709138 
2102	 0.495598236516579 
2103	 0.495662437718865 
2104	 0.495607510861376 
2105	 0.495851667291553 
2106	 0.496156779015575 
2107	 0.495751977484714 
2108	 0.49563816034848 
2109	 0.496203110716325 
2110	 0.49640914612641 
2111	 0.496611329413422 
2112	 0.497263879330795 
2113	 0.497378867916706 
2114	 0.497076027552571 
2115	 0.497000690422185 
2116	 0.496784367092509 
2117	 0.496789591256468 
2118	 0.497056439656868 
2119	 0.497130847469373 
2120	 0.497244906448128 
2121	 0.497387561402986 
2122	 0.497285944242325 
2123	 0.497538114009514 
2124	 0.4979340936556 
2125	 0.497843888400161 
2126	 0.498033390738537 
2127	 0.497866896488368 
2128	 0.497224795739559 
2129	 0.497101661446774 
2130	 0.496406684835122 
2131	 0.495317844909388 
2132	 0.494859899246928 
2133	 0.494382755317952 
2134	 0.493919819857187 
2135	 0.493559071443245 
2136	 0.493435779615748 
2137	 0.492948561405225 
2138	 0.492311672557061 
2139	 0.491905896794846 
2140	 0.491595957235888 
2141	 0.490768562526636 
2142	 0.489545411868811 
2143	 0.488102207316795 
2144	 0.485598006901617 
2145	 0.484019070354151 
2146	 0.483592984438244 
2147	 0.483003897094344 
2148	 0.483374062159272 
2149	 0.483239545158143 
2150	 0.482170118809392 
2151	 0.481512865131988 
2152	 0.480735815678016 
2153	 0.479936586790939 
2154	 0.479007200845115 
2155	 0.478991101278983 
2156	 0.478890077334936 
2157	 0.478372185913828 
2158	 0.479011750478215 
2159	 0.479311336890126 
2160	 0.479118919502733 
2161	 0.480224464861629 
2162	 0.480714533889156 
2163	 0.48062416579869 
2164	 0.481134176945578 
2165	 0.481495454181384 
2166	 0.4820812717168 
2167	 0.483567570144264 
2168	 0.484418639977939 
2169	 0.484885225328364 
2170	 0.485377857401949 
2171	 0.485784671421347 
2172	 0.485748800941546 
2173	 0.486113300427309 
2174	 0.487213626028641 
2175	 0.487906595312249 
2176	 0.488923010142866 
2177	 0.489676791356118 
2178	 0.489661326590084 
2179	 0.489909557466789 
2180	 0.490357840795779 
2181	 0.490269036869857 
2182	 0.490319190366216 
2183	 0.490271401306292 
2184	 0.489690599078921 
2185	 0.489515230276194 
2186	 0.489585044822498 
2187	 0.489829542929739 
2188	 0.490483139495165 
2189	 0.490741204309048 
2190	 0.490968397949094 
2191	 0.491335385268288 
2192	 0.490985691936939 
2193	 0.490299884310941 
2194	 0.489770971120514 
2195	 0.489121086606542 
2196	 0.48893824167501 
2197	 0.488675785963689 
2198	 0.487782533868452 
2199	 0.487125965974676 
2200	 0.486347977145057 
2201	 0.48533159420589 
2202	 0.484795881636764 
2203	 0.484378519455183 
2204	 0.483598194799023 
2205	 0.483352400418745 
2206	 0.483174694097565 
2207	 0.482534458704439 
2208	 0.481628751692102 
2209	 0.47981484182095 
2210	 0.478872377949802 
2211	 0.478062432436072 
2212	 0.477740282785554 
2213	 0.477212774768911 
2214	 0.47755353622438 
2215	 0.477539602543296 
2216	 0.476382941731571 
2217	 0.475817754939282 
2218	 0.474848352475447 
2219	 0.473389088824749 
2220	 0.472841060959328 
2221	 0.472189707618379 
2222	 0.471632760208171 
2223	 0.470917787888086 
2224	 0.469770946704807 
2225	 0.469398686171331 
2226	 0.469233391987277 
2227	 0.468940290972769 
2228	 0.468580112924242 
2229	 0.467336112797408 
2230	 0.465238848135494 
2231	 0.463666308855245 
2232	 0.461967347445645 
2233	 0.460552929119191 
2234	 0.459359842695793 
2235	 0.459010063103345 
2236	 0.457468358806004 
2237	 0.455799790809213 
2238	 0.454362046793788 
2239	 0.452453394416568 
2240	 0.450855147479409 
2241	 0.449531125469236 
2242	 0.44787965137466 
2243	 0.445498804982416 
2244	 0.443175633272006 
2245	 0.441205695934023 
2246	 0.439303490947269 
2247	 0.437596140561166 
2248	 0.436043202331054 
2249	 0.434008058189171 
2250	 0.431817662258882 
2251	 0.42992678941997 
2252	 0.427803454318505 
2253	 0.425251331220837 
2254	 0.42275028052248 
2255	 0.420540140948507 
2256	 0.4184616157523 
2257	 0.416640015047052 
2258	 0.414812100494722 
2259	 0.412340168166642 
2260	 0.409793332743087 
2261	 0.40643372443141 
2262	 0.403531747776584 
2263	 0.401861673516423 
2264	 0.399407337031994 
2265	 0.396847183668027 
2266	 0.393836058676621 
2267	 0.390348674708717 
2268	 0.387163168102252 
2269	 0.384573433275722 
2270	 0.382945588835842 
2271	 0.380861244544994 
2272	 0.378210627922749 
2273	 0.375222322886388 
2274	 0.37250720999059 
2275	 0.370172111147839 
2276	 0.366857700919585 
2277	 0.364528146112952 
2278	 0.362081320155732 
2279	 0.357418333422399 
2280	 0.354023331519989 
2281	 0.350628723161611 
2282	 0.346521176662916 
2283	 0.344565382602919 
2284	 0.343299754339393 
2285	 0.341861485541036 
2286	 0.340125354181311 
2287	 0.338526082550191 
2288	 0.335714443122357 
2289	 0.332720382645093 
2290	 0.330476653978233 
2291	 0.327555819286575 
2292	 0.325505080193164 
2293	 0.324403285936891 
2294	 0.322926982703061 
2295	 0.321732206419211 
2296	 0.320657527539153 
2297	 0.319390665153121 
2298	 0.317464140087124 
2299	 0.316087888685075 
2300	 0.314667816389738 
2301	 0.312668917842882 
2302	 0.311152370069212 
2303	 0.309401671123385 
2304	 0.307482127678464 
2305	 0.306044097920634 
2306	 0.303944913741113 
2307	 0.300747399123484 
2308	 0.298435336660682 
2309	 0.297258352410227 
2310	 0.295718702620952 
2311	 0.295058403757061 
2312	 0.295607612649638 
2313	 0.294714780580908 
2314	 0.293949866485405 
2315	 0.29383051954345 
2316	 0.293159753311208 
2317	 0.292760256259083 
2318	 0.291505013376149 
2319	 0.289715483200431 
2320	 0.287599883802924 
2321	 0.285322623343856 
2322	 0.282577280055189 
2323	 0.280223106468095 
2324	 0.278099110771244 
2325	 0.275703052681544 
2326	 0.273068271932571 
2327	 0.271722969965481 
2328	 0.270237233022819 
2329	 0.268103597733471 
2330	 0.266972305815965 
2331	 0.264831531213172 
2332	 0.262558998430192 
2333	 0.261938148769321 
2334	 0.260777178666745 
2335	 0.259281558053904 
2336	 0.257223727835683 
2337	 0.254131601310878 
2338	 0.251840072637182 
2339	 0.250414606231194 
2340	 0.250326330832158 
2341	 0.251602147874637 
2342	 0.252311030162324 
2343	 0.254072583249248 
2344	 0.258217290053896 
2345	 0.261996204378059 
2346	 0.264719070278536 
2347	 0.267227777824685 
2348	 0.269253331242838 
2349	 0.272349634586958 
2350	 0.276609033622711 
2351	 0.28100939925692 
2352	 0.286762018802333 
2353	 0.292861863502491 
2354	 0.298959559267097 
2355	 0.30457710078603 
2356	 0.31035577030001 
2357	 0.316402508755871 
2358	 0.322600973347321 
2359	 0.331795761844955 
2360	 0.341603409211951 
2361	 0.347355009497621 
2362	 0.350787113708275 
2363	 0.355849197902768 
2364	 0.360263590151625 
2365	 0.365424037018211 
2366	 0.374101266263644 
2367	 0.38135137428591 
2368	 0.384309230039298 
2369	 0.38809156241535 
2370	 0.394297953719999 
2371	 0.397871061754707 
2372	 0.401804338864425 
2373	 0.407880402734493 
2374	 0.412261866534508 
2375	 0.413519586805325 
2376	 0.417657001780273 
2377	 0.424418409462581 
2378	 0.427894028199582 
2379	 0.430542637493478 
2380	 0.432678364611483 
2381	 0.433063743694823 
2382	 0.43293739547459 
2383	 0.432276466556193 
2384	 0.431122293289408 
2385	 0.427010865591765 
2386	 0.426656120088479 
2387	 0.429716685169821 
2388	 0.429483229557231 
2389	 0.429170026207964 
2390	 0.429335567664888 
2391	 0.426308546043727 
2392	 0.426026174383888 
2393	 0.430874797097381 
2394	 0.430658998726205 
2395	 0.426411504639844 
2396	 0.425526631365758 
2397	 0.424391447306547 
2398	 0.423437198712348 
2399	 0.425752023986401 
2400	 0.426812152087149 
2401	 0.426748773943853 
2402	 0.424145543240893 
2403	 0.426125727644889 
2404	 0.426067105188407 
2405	 0.428066804624726 
2406	 0.431830511096279 
2407	 0.431874912209342 
2408	 0.432180598655063 
2409	 0.431979561157398 
2410	 0.432853293045037 
2411	 0.433797949045145 
2412	 0.432506875305394 
2413	 0.430681570498212 
2414	 0.42883844089278 
2415	 0.429570695546093 
2416	 0.434495867171928 
2417	 0.438679329087345 
2418	 0.438484825687059 
2419	 0.43440153640333 
2420	 0.427997692742726 
2421	 0.422724692438956 
2422	 0.416816785733818 
2423	 0.411154493326793 
2424	 0.409430962214766 
2425	 0.407690428367038 
2426	 0.402947971336842 
2427	 0.399211621441351 
2428	 0.395435013181996 
2429	 0.391790492470855 
2430	 0.392407435646507 
2431	 0.392447933443609 
2432	 0.391648169717989 
2433	 0.380586486796818 
2434	 0.377278375226981 
2435	 0.380054125622482 
2436	 0.377156474529137 
2437	 0.377096604558643 
2438	 0.377034040599007 
2439	 0.369283516164098 
2440	 0.366789393783188 
2441	 0.371701095193872 
2442	 0.373013870514205 
2443	 0.371737200650179 
2444	 0.371480400024833 
2445	 0.372671275883326 
2446	 0.370536359409819 
2447	 0.366409242253439 
2448	 0.364742891850561 
2449	 0.363364954638026 
2450	 0.359754133201713 
2451	 0.355401758989239 
2452	 0.35280352918997 
2453	 0.349027467827189 
2454	 0.34413135013275 
2455	 0.3455981891827 
2456	 0.340114826384483 
2457	 0.322603610422876 
2458	 0.31961788960116 
2459	 0.322638971522418 
2460	 0.319368224288153 
2461	 0.323112416509282 
2462	 0.322546551562087 
2463	 0.311545686981449 
2464	 0.307002166957235 
2465	 0.306055305268126 
2466	 0.304679863393079 
2467	 0.30458012653836 
2468	 0.302091771303609 
2469	 0.300778152006962 
2470	 0.30252912472218 
2471	 0.309167766185331 
2472	 0.301219198580671 
2473	 0.279172731868669 
2474	 0.275722430164646 
2475	 0.268138723745952 
2476	 0.267385770980751 
2477	 0.303510742114524 
2478	 0.302041674402723 
2479	 0.257006446296195 
2480	 0.25301443325845 
2481	 0.258590390985388 
2482	 0.263016009975639 
2483	 0.302235789026184 
2484	 0.330366915859684 
2485	 0.347742064663131 
2486	 0.392692347047739 
2487	 0.405237574897787 
2488	 0.382080129990955 
2489	 0.392632804243777 
2490	 0.383811779043839 
2491	 0.335520512400749 
2492	 0.268869126815805 
2493	 0.206508708843602 
2494	 0.191073787531785 
2495	 0.180798830376278 
2496	 0.228807905460388 
2497	 0.2901088779818 
2498	 0.312746822977616 
2499	 0.363423060645619 
2500	 0.386720247680611 
