Wavelength	ref00091.asd
350	 0.163899634273131 
351	 0.165513042861887 
352	 0.166803161081406 
353	 0.168803257747756 
354	 0.168746730295291 
355	 0.169051040742567 
356	 0.171153624514631 
357	 0.172694878571697 
358	 0.173444487170127 
359	 0.174704525470547 
360	 0.177464352834152 
361	 0.179310523261026 
362	 0.180650515064689 
363	 0.182169956180823 
364	 0.184428413129488 
365	 0.185626718372788 
366	 0.187247509885024 
367	 0.189905087621912 
368	 0.192502603369565 
369	 0.194792321546809 
370	 0.197366857271797 
371	 0.200774889176182 
372	 0.20486882334523 
373	 0.208398233948642 
374	 0.211707519592796 
375	 0.215859341458901 
376	 0.220557014833019 
377	 0.225916028378211 
378	 0.231781529594624 
379	 0.237639275327263 
380	 0.243700849077132 
381	 0.250858443081863 
382	 0.259410680057424 
383	 0.267728546434702 
384	 0.277186731045755 
385	 0.287717098490001 
386	 0.298733372530575 
387	 0.310993941571822 
388	 0.324185420615192 
389	 0.337961132466162 
390	 0.352074543574899 
391	 0.368006097576557 
392	 0.385460285024142 
393	 0.404176158049969 
394	 0.424792977265656 
395	 0.446751951908652 
396	 0.469197562349896 
397	 0.491439781567278 
398	 0.514290544111085 
399	 0.536434395605722 
400	 0.557513740975768 
401	 0.578186364995601 
402	 0.599051785286343 
403	 0.619911160776925 
404	 0.640931387578005 
405	 0.663637102919063 
406	 0.686668824456055 
407	 0.709825681639309 
408	 0.732984193964268 
409	 0.754995181179968 
410	 0.776323392156501 
411	 0.796602979878697 
412	 0.814775848375279 
413	 0.831936229878216 
414	 0.847651262923484 
415	 0.861803895505583 
416	 0.875454259916892 
417	 0.887978788445837 
418	 0.899271757787179 
419	 0.909420742678725 
420	 0.918503479561471 
421	 0.92706749670631 
422	 0.935067845411705 
423	 0.941990945549725 
424	 0.948120701922109 
425	 0.954150799418811 
426	 0.960308285741964 
427	 0.965663762555391 
428	 0.970901349859318 
429	 0.976032969347564 
430	 0.980872308918239 
431	 0.985499050003875 
432	 0.989886767967788 
433	 0.993905681823017 
434	 0.997403782340363 
435	 1.00106136835497 
436	 1.00449488199091 
437	 1.00753900243672 
438	 1.01085844140163 
439	 1.0139878371519 
440	 1.01692293308098 
441	 1.01979234853898 
442	 1.02251497708568 
443	 1.02531622133367 
444	 1.02818771647814 
445	 1.03089739159305 
446	 1.03321420083598 
447	 1.03535252391076 
448	 1.03752719637078 
449	 1.03977133502232 
450	 1.04164617644513 
451	 1.04332692666663 
452	 1.04520269967096 
453	 1.0471233008192 
454	 1.04892451195227 
455	 1.05065777534867 
456	 1.05262014297596 
457	 1.05454206561785 
458	 1.05632810694639 
459	 1.05798589872494 
460	 1.05968865661067 
461	 1.06126795449833 
462	 1.0628311811887 
463	 1.06456436279708 
464	 1.06599037912841 
465	 1.06738129024574 
466	 1.06887288913287 
467	 1.07027476806734 
468	 1.07170982687058 
469	 1.07311833092838 
470	 1.07447086332819 
471	 1.07604868316316 
472	 1.07764063664232 
473	 1.07910467515756 
474	 1.08039102291261 
475	 1.08177241327435 
476	 1.08322024315628 
477	 1.08459728083041 
478	 1.08563811318098 
479	 1.08661941036612 
480	 1.08766231787771 
481	 1.08878137123836 
482	 1.08973258952296 
483	 1.09072273409973 
484	 1.09183801262046 
485	 1.09302127983547 
486	 1.09432176999458 
487	 1.09573679416041 
488	 1.09716700668103 
489	 1.09832864265204 
490	 1.09928297333647 
491	 1.10018044778655 
492	 1.10117774018821 
493	 1.10207335725524 
494	 1.10305050461415 
495	 1.10410017988171 
496	 1.10495108669484 
497	 1.10575926947491 
498	 1.10649707858599 
499	 1.10717110597843 
500	 1.10801334970597 
501	 1.1090722523559 
502	 1.11030121581925 
503	 1.1115599463599 
504	 1.11252995216847 
505	 1.11349776673886 
506	 1.11456156316092 
507	 1.11538595933895 
508	 1.1161374339527 
509	 1.11697756726943 
510	 1.11795457801508 
511	 1.11863149312521 
512	 1.11922935400799 
513	 1.11990286968137 
514	 1.12072594119761 
515	 1.12171071119757 
516	 1.12267324200238 
517	 1.12355531893153 
518	 1.12469193783698 
519	 1.12597372432721 
520	 1.12713971574532 
521	 1.12800558219883 
522	 1.1291727739537 
523	 1.13033985698151 
524	 1.13138989004493 
525	 1.13246388191491 
526	 1.13368335194236 
527	 1.1350062825207 
528	 1.13629933686335 
529	 1.13728593067028 
530	 1.13823621296185 
531	 1.13928437759686 
532	 1.14046455810858 
533	 1.14164917603313 
534	 1.14277191578597 
535	 1.14379804275958 
536	 1.14473194385806 
537	 1.14561893789194 
538	 1.14676871434064 
539	 1.14835581757297 
540	 1.14960557547899 
541	 1.15099921173996 
542	 1.15250124035672 
543	 1.15363728388358 
544	 1.15494190259206 
545	 1.15614594957318 
546	 1.15709520127941 
547	 1.15819971875626 
548	 1.15925412894427 
549	 1.16015345602681 
550	 1.1608861262261 
551	 1.16175776497929 
552	 1.16270846864527 
553	 1.16367223173628 
554	 1.16461266467838 
555	 1.16560392841896 
556	 1.16655419839592 
557	 1.16740729694012 
558	 1.16833243573168 
559	 1.16944668560175 
560	 1.17061423186782 
561	 1.17158048540019 
562	 1.17265157228211 
563	 1.17372758351268 
564	 1.17473953638675 
565	 1.1757643005243 
566	 1.176610305816 
567	 1.17736337301487 
568	 1.17817180568482 
569	 1.17895985279297 
570	 1.17987388799546 
571	 1.18084788640318 
572	 1.1816239525486 
573	 1.18222496072174 
574	 1.18282166965259 
575	 1.18348077773621 
576	 1.18388672752467 
577	 1.18446581589444 
578	 1.18510839681067 
579	 1.18548076450119 
580	 1.18566834449787 
581	 1.18585576286142 
582	 1.18609391439277 
583	 1.18624490565391 
584	 1.18641782323875 
585	 1.18657775218274 
586	 1.18671016567567 
587	 1.18698521546149 
588	 1.18756592395299 
589	 1.18833617882793 
590	 1.18893351822166 
591	 1.18907704622306 
592	 1.18885976662995 
593	 1.18846301247576 
594	 1.1880794749718 
595	 1.1876989584657 
596	 1.18729947084487 
597	 1.1868535061583 
598	 1.1863667799277 
599	 1.18599839857081 
600	 1.18571170773886 
601	 1.18528323733602 
602	 1.18492677817269 
603	 1.1846152699141 
604	 1.18431711236285 
605	 1.18412337796142 
606	 1.18392565051752 
607	 1.18376598124383 
608	 1.18373491285407 
609	 1.18367064124233 
610	 1.18368753283436 
611	 1.18372070011583 
612	 1.18342452160656 
613	 1.18323934187869 
614	 1.18314322842468 
615	 1.1830075415989 
616	 1.18279450160737 
617	 1.18270097583953 
618	 1.18264120284547 
619	 1.18236291761322 
620	 1.18216685568698 
621	 1.18190475585903 
622	 1.18151141221331 
623	 1.18117292405705 
624	 1.18116467235341 
625	 1.18136620106067 
626	 1.18148500376881 
627	 1.18129559303112 
628	 1.18108035925491 
629	 1.18089414223918 
630	 1.18056042438896 
631	 1.18029519459674 
632	 1.1801490783224 
633	 1.18006793672089 
634	 1.17982543555188 
635	 1.1795861330011 
636	 1.17933123026462 
637	 1.17899317278134 
638	 1.17875406653765 
639	 1.17842031136303 
640	 1.17796564827605 
641	 1.1776233524069 
642	 1.17754788380809 
643	 1.17748626273189 
644	 1.17724954764196 
645	 1.1771909241827 
646	 1.17747872561111 
647	 1.17784427593562 
648	 1.17778178666847 
649	 1.17747595410933 
650	 1.17697499865527 
651	 1.17643000116286 
652	 1.17614328482027 
653	 1.17567270592316 
654	 1.17512055754721 
655	 1.17469696619479 
656	 1.17439222143486 
657	 1.17413319252674 
658	 1.17385726913419 
659	 1.17347193962888 
660	 1.17281371009578 
661	 1.17230522218713 
662	 1.17210838986252 
663	 1.17170022396016 
664	 1.17138348998207 
665	 1.17109700765138 
666	 1.17072331963852 
667	 1.17049518737083 
668	 1.17029382520701 
669	 1.17002836366819 
670	 1.16966057330079 
671	 1.16941594188821 
672	 1.16911794102686 
673	 1.1686863830632 
674	 1.16843363030203 
675	 1.16812954164294 
676	 1.16781649904872 
677	 1.16761221039074 
678	 1.16743036511648 
679	 1.16722537838211 
680	 1.16692330489524 
681	 1.16644034379545 
682	 1.16618193245664 
683	 1.16598371282199 
684	 1.16564586665515 
685	 1.16515624758842 
686	 1.16492788400195 
687	 1.16494315198339 
688	 1.16496838417736 
689	 1.16497745852864 
690	 1.16479497070722 
691	 1.1646845322986 
692	 1.16533690060886 
693	 1.16653349599541 
694	 1.16738969740378 
695	 1.16723887949301 
696	 1.16637436445309 
697	 1.16525352663502 
698	 1.16458584713687 
699	 1.16495574111695 
700	 1.16546318053212 
701	 1.1655060002238 
702	 1.16494782001359 
703	 1.16419139779501 
704	 1.16359976906616 
705	 1.16323182883653 
706	 1.16296823608378 
707	 1.16244450138064 
708	 1.16220092600066 
709	 1.16210749758738 
710	 1.16176519036498 
711	 1.16128802825469 
712	 1.16097430225129 
713	 1.16099865503593 
714	 1.16137404033076 
715	 1.16234598746142 
716	 1.16473351909961 
717	 1.16882228239731 
718	 1.17293930143982 
719	 1.1747463039623 
720	 1.17346565936913 
721	 1.17029680093282 
722	 1.16789931776115 
723	 1.16831727952572 
724	 1.17088428796696 
725	 1.17195827214091 
726	 1.17202679615438 
727	 1.1717902648502 
728	 1.17164892928033 
729	 1.17096439242982 
730	 1.17053217752433 
731	 1.1698441718451 
732	 1.16814888504426 
733	 1.16607214351282 
734	 1.16473584726363 
735	 1.16425846954958 
736	 1.16391182217229 
737	 1.16385750613256 
738	 1.16366483203978 
739	 1.16308386431564 
740	 1.16237916497444 
741	 1.16191375970487 
742	 1.16155383782571 
743	 1.161126299613 
744	 1.16117468399654 
745	 1.16123841952533 
746	 1.16124456615819 
747	 1.16140092463826 
748	 1.16127490020425 
749	 1.16108634698813 
750	 1.16105348803167 
751	 1.16123903357623 
752	 1.16129259364316 
753	 1.16133047167257 
754	 1.16146044827567 
755	 1.16128336644938 
756	 1.16081409259246 
757	 1.16014003108304 
758	 1.15946722243339 
759	 1.15967572838256 
760	 1.16090930301387 
761	 1.1627550160229 
762	 1.16305567231824 
763	 1.16318008056282 
764	 1.16308262509857 
765	 1.16251381555902 
766	 1.16144116001139 
767	 1.16083625237791 
768	 1.16053820446004 
769	 1.16015022910138 
770	 1.15970083610835 
771	 1.15961416413436 
772	 1.15975879048371 
773	 1.15956964111465 
774	 1.15948201308354 
775	 1.15936194846357 
776	 1.15914628875165 
777	 1.1590262089517 
778	 1.15894726284975 
779	 1.15885505767078 
780	 1.15873582624163 
781	 1.158732335243 
782	 1.15862687330594 
783	 1.15854151036568 
784	 1.15871749031791 
785	 1.15884833630412 
786	 1.15897216266604 
787	 1.15914329727947 
788	 1.15940211489844 
789	 1.159862093632 
790	 1.16015906620603 
791	 1.160050926836 
792	 1.15970984326645 
793	 1.1595141512746 
794	 1.15945162794868 
795	 1.15940601996564 
796	 1.15948023099288 
797	 1.1596093465406 
798	 1.15965219996467 
799	 1.15951084188304 
800	 1.15972792820251 
801	 1.15980965286977 
802	 1.15965822934326 
803	 1.15971076862676 
804	 1.15944187915478 
805	 1.15913319846094 
806	 1.15896830986877 
807	 1.15856814758757 
808	 1.15870333401595 
809	 1.15921904422769 
810	 1.15985783146377 
811	 1.16122536872312 
812	 1.163006823394 
813	 1.16510878810676 
814	 1.16748213253286 
815	 1.16957303444028 
816	 1.17071124634039 
817	 1.17069508098769 
818	 1.16991627338744 
819	 1.16866681893862 
820	 1.16734958981366 
821	 1.16657515363427 
822	 1.16733228171464 
823	 1.16799102562767 
824	 1.16770352192317 
825	 1.16639305162533 
826	 1.16513116125826 
827	 1.16482856188314 
828	 1.16521082921371 
829	 1.16545506653124 
830	 1.16515623927251 
831	 1.16470204724462 
832	 1.16414703484485 
833	 1.16332054580146 
834	 1.16271805585221 
835	 1.16196851427665 
836	 1.16108903095147 
837	 1.16062345343473 
838	 1.16001882322064 
839	 1.15942630292379 
840	 1.1590341777779 
841	 1.15883164441501 
842	 1.15868081766631 
843	 1.1583695356308 
844	 1.15787567508854 
845	 1.15782458677044 
846	 1.1576989326772 
847	 1.1574740653036 
848	 1.15729668216612 
849	 1.15688192691989 
850	 1.15689434286044 
851	 1.15697056940888 
852	 1.15621664766137 
853	 1.15637512944479 
854	 1.15650679370123 
855	 1.15621008744032 
856	 1.15601789355661 
857	 1.15577579849175 
858	 1.15542910927547 
859	 1.15502636879716 
860	 1.15476409394136 
861	 1.15438395334172 
862	 1.1537944286014 
863	 1.15310138026841 
864	 1.15278407828882 
865	 1.1525161103485 
866	 1.15213065747151 
867	 1.15163314885764 
868	 1.15143465085579 
869	 1.15130896404573 
870	 1.15100574122437 
871	 1.15047162895615 
872	 1.15064481479417 
873	 1.15050933411738 
874	 1.15000607591958 
875	 1.14982826484621 
876	 1.15021235393629 
877	 1.15064571601716 
878	 1.15090137792077 
879	 1.15113599283289 
880	 1.15138380898088 
881	 1.15172761847787 
882	 1.15210487356818 
883	 1.15228237441808 
884	 1.15275844270137 
885	 1.152794658648 
886	 1.15236268722265 
887	 1.15310758582305 
888	 1.15350500962709 
889	 1.15368464238155 
890	 1.15402394759917 
891	 1.15433850342335 
892	 1.15563591180037 
893	 1.15696431224701 
894	 1.15755435503438 
895	 1.15982451894815 
896	 1.16145937190887 
897	 1.16259237877658 
898	 1.16408646780226 
899	 1.16474152449097 
900	 1.16439764926555 
901	 1.16347580814096 
902	 1.16263615567915 
903	 1.16201306340276 
904	 1.16104415020053 
905	 1.16028747993783 
906	 1.16076242130985 
907	 1.16150211882498 
908	 1.16315652054715 
909	 1.16502482401426 
910	 1.16546545145875 
911	 1.16572352849331 
912	 1.16665234243386 
913	 1.1674705085625 
914	 1.16637048805836 
915	 1.16679014351945 
916	 1.16667663205466 
917	 1.16543155926042 
918	 1.16477127321674 
919	 1.16395350520774 
920	 1.16268014660722 
921	 1.16136893291461 
922	 1.16117735086838 
923	 1.16219999418371 
924	 1.16335238881278 
925	 1.16444801791216 
926	 1.16697751554409 
927	 1.16968241056085 
928	 1.17343742457716 
929	 1.17845539084013 
930	 1.18280028199603 
931	 1.18904651234672 
932	 1.19546132125724 
933	 1.20018456702768 
934	 1.20441093480352 
935	 1.2058791213076 
936	 1.20669832306079 
937	 1.20748065847711 
938	 1.20391331757261 
939	 1.20155907352145 
940	 1.19969658161607 
941	 1.19755531898377 
942	 1.19703309798942 
943	 1.19797356838105 
944	 1.19881661796456 
945	 1.19861072208757 
946	 1.1985495280445 
947	 1.20026713472039 
948	 1.20118379746179 
949	 1.19942890524826 
950	 1.19698763460446 
951	 1.19692209541972 
952	 1.19711752321853 
953	 1.19588791143309 
954	 1.1953811034121 
955	 1.19354720840182 
956	 1.19249306124554 
957	 1.19266920710725 
958	 1.18960739743185 
959	 1.18777083892572 
960	 1.1869876449137 
961	 1.18558787450369 
962	 1.18158095080572 
963	 1.17879636355747 
964	 1.17631783019385 
965	 1.17361525880252 
966	 1.17247151602048 
967	 1.17025332623886 
968	 1.16829753920325 
969	 1.1672885594364 
970	 1.16566421165544 
971	 1.16305873791777 
972	 1.1621747032502 
973	 1.16314110830569 
974	 1.16198633374919 
975	 1.16353124084414 
976	 1.16350480963254 
977	 1.16080080487172 
978	 1.16014358354366 
979	 1.15987738920829 
980	 1.15886739784347 
981	 1.15685555959207 
982	 1.15465281407407 
983	 1.15418495932777 
984	 1.15319161352141 
985	 1.15118177879412 
986	 1.14981695128438 
987	 1.1497797039606 
988	 1.14894217910121 
989	 1.14761616027293 
990	 1.1478555762718 
991	 1.14869494914672 
992	 1.14783245715788 
993	 1.14660702347405 
994	 1.14744795623067 
995	 1.14557359820212 
996	 1.14515370599559 
997	 1.14548077639538 
998	 1.14431798636801 
999	 1.14497466330681 
1000	 1.14436943070442 
1001	 1.13674067967912 
1002	 1.13629360721681 
1003	 1.13607230868608 
1004	 1.13610986302105 
1005	 1.13587999788907 
1006	 1.13562115704761 
1007	 1.13539398029855 
1008	 1.13496404195941 
1009	 1.13474592571599 
1010	 1.1346550923521 
1011	 1.13475746294868 
1012	 1.13476674409302 
1013	 1.13463741922288 
1014	 1.13435343340227 
1015	 1.13394316073413 
1016	 1.13353142901501 
1017	 1.13318907139956 
1018	 1.13296140109445 
1019	 1.13296420752107 
1020	 1.13277688056983 
1021	 1.13257819636133 
1022	 1.13236956478274 
1023	 1.13208483031724 
1024	 1.1317908084909 
1025	 1.13166963378318 
1026	 1.13165374611503 
1027	 1.13166318739407 
1028	 1.13134543448584 
1029	 1.13087928323032 
1030	 1.13048652709042 
1031	 1.12998381546985 
1032	 1.12976372942097 
1033	 1.12953235057519 
1034	 1.12939338287103 
1035	 1.12917948872657 
1036	 1.12900741315186 
1037	 1.12873629846766 
1038	 1.12842360075299 
1039	 1.12817901964218 
1040	 1.12776302891313 
1041	 1.12746581363484 
1042	 1.1273487239962 
1043	 1.12697043299652 
1044	 1.12663810646433 
1045	 1.12633664571238 
1046	 1.12601943371075 
1047	 1.12592090506222 
1048	 1.12571089469784 
1049	 1.12537344708083 
1050	 1.12509461053598 
1051	 1.12475780896837 
1052	 1.12437804001636 
1053	 1.1241516463647 
1054	 1.12407993227789 
1055	 1.12398406324336 
1056	 1.12389255020136 
1057	 1.12362993086591 
1058	 1.12331341983845 
1059	 1.12308794193101 
1060	 1.12273185784791 
1061	 1.12236909149225 
1062	 1.12206057734095 
1063	 1.12174156468916 
1064	 1.12140830376425 
1065	 1.12115438246693 
1066	 1.12101831850892 
1067	 1.12092714749484 
1068	 1.12070891439841 
1069	 1.12048713383433 
1070	 1.12038237083412 
1071	 1.1202263645711 
1072	 1.12000846441335 
1073	 1.11994636024541 
1074	 1.11979750529997 
1075	 1.11960689594199 
1076	 1.11956311655206 
1077	 1.11947326188662 
1078	 1.11924856360731 
1079	 1.11895284639085 
1080	 1.11870449909709 
1081	 1.11856286124113 
1082	 1.1184641912516 
1083	 1.11840208314238 
1084	 1.1183689136468 
1085	 1.11846707579715 
1086	 1.11834538463086 
1087	 1.11814271992501 
1088	 1.11831401539231 
1089	 1.11838363738696 
1090	 1.1184753646394 
1091	 1.11885100605124 
1092	 1.11915956775508 
1093	 1.1194381579796 
1094	 1.11987866906549 
1095	 1.12039504185717 
1096	 1.12080804261137 
1097	 1.12115206795773 
1098	 1.12160085690271 
1099	 1.12202342804087 
1100	 1.12249285364338 
1101	 1.12311802322368 
1102	 1.12361249885617 
1103	 1.12413618641709 
1104	 1.12472765668998 
1105	 1.12536694210003 
1106	 1.12628363924417 
1107	 1.1273839624996 
1108	 1.12856144726979 
1109	 1.12987903434658 
1110	 1.13116464286435 
1111	 1.13274898549676 
1112	 1.13459972971237 
1113	 1.13666585788639 
1114	 1.13932911537506 
1115	 1.14198293445199 
1116	 1.14499532790908 
1117	 1.14783124964321 
1118	 1.15077587550989 
1119	 1.15327530143413 
1120	 1.15500075984438 
1121	 1.15603113610972 
1122	 1.15621337038253 
1123	 1.15520220287667 
1124	 1.15350238090221 
1125	 1.15149046657016 
1126	 1.14857942494286 
1127	 1.14513053990249 
1128	 1.1407475186056 
1129	 1.13554107921561 
1130	 1.13030391261578 
1131	 1.12416821371179 
1132	 1.11893178515266 
1133	 1.11385834723086 
1134	 1.10910912457465 
1135	 1.1050133225455 
1136	 1.10142754194945 
1137	 1.09847512482141 
1138	 1.09617382384815 
1139	 1.09459017426408 
1140	 1.09369624585969 
1141	 1.09355181881673 
1142	 1.09405497814193 
1143	 1.09489638903934 
1144	 1.09659540236628 
1145	 1.09795852172565 
1146	 1.0995993933257 
1147	 1.10108865140787 
1148	 1.1027309523143 
1149	 1.1038911088739 
1150	 1.10506035315412 
1151	 1.10559959773522 
1152	 1.1057847290737 
1153	 1.10544051116817 
1154	 1.10468274918549 
1155	 1.10388902747772 
1156	 1.10270041307432 
1157	 1.10132328187888 
1158	 1.0999510461235 
1159	 1.09833760153298 
1160	 1.09673868830975 
1161	 1.09507532528689 
1162	 1.09340411787039 
1163	 1.09160644628763 
1164	 1.08993472433732 
1165	 1.08828329811237 
1166	 1.08657153399572 
1167	 1.08469824665235 
1168	 1.08305147508356 
1169	 1.08140232973605 
1170	 1.07986706497257 
1171	 1.078464320413 
1172	 1.07723107241088 
1173	 1.07595191268945 
1174	 1.07457548343297 
1175	 1.07324147768505 
1176	 1.07185466634409 
1177	 1.07065357117297 
1178	 1.06946295154734 
1179	 1.06846498686919 
1180	 1.06774520865909 
1181	 1.0668800909877 
1182	 1.06594820567325 
1183	 1.06522743728769 
1184	 1.06446698653335 
1185	 1.06397282769669 
1186	 1.06375482046206 
1187	 1.0635934345141 
1188	 1.06356516386244 
1189	 1.06359381954707 
1190	 1.0638141991499 
1191	 1.06419521023269 
1192	 1.06481222178394 
1193	 1.06559542728119 
1194	 1.06632630145546 
1195	 1.06712208754325 
1196	 1.0680319110351 
1197	 1.06902129567959 
1198	 1.07000334524612 
1199	 1.07117735667997 
1200	 1.0721932405092 
1201	 1.07310518727797 
1202	 1.07404254432936 
1203	 1.07503307709269 
1204	 1.07587020146231 
1205	 1.07659772522287 
1206	 1.07733876355172 
1207	 1.07795146490422 
1208	 1.07859924357198 
1209	 1.07938856241146 
1210	 1.07995597970241 
1211	 1.08040866538876 
1212	 1.08087854967409 
1213	 1.08131503369297 
1214	 1.081641864221 
1215	 1.08206532460188 
1216	 1.08251997586117 
1217	 1.08297974198535 
1218	 1.08351131247395 
1219	 1.08391972796402 
1220	 1.08425728066995 
1221	 1.08465578763451 
1222	 1.08509250996081 
1223	 1.08537482944417 
1224	 1.08557855205598 
1225	 1.08585652487351 
1226	 1.08606737357429 
1227	 1.08624570593508 
1228	 1.08640105359404 
1229	 1.08670735300885 
1230	 1.08707017679158 
1231	 1.0871262366212 
1232	 1.08721274149897 
1233	 1.08733574907112 
1234	 1.08740992131504 
1235	 1.08732316700441 
1236	 1.08731849597676 
1237	 1.0873438482068 
1238	 1.08743741622172 
1239	 1.0875675083414 
1240	 1.08760890641798 
1241	 1.08765680507212 
1242	 1.08777623292173 
1243	 1.08792733846991 
1244	 1.08794073769977 
1245	 1.08801012303978 
1246	 1.08800104762237 
1247	 1.08768245490017 
1248	 1.08755052176378 
1249	 1.087628726511 
1250	 1.08757582135618 
1251	 1.08753651721894 
1252	 1.08742249291743 
1253	 1.08724554774511 
1254	 1.08694436114756 
1255	 1.08671703771203 
1256	 1.08645570252759 
1257	 1.08623081576911 
1258	 1.08603925360907 
1259	 1.08580366386079 
1260	 1.08561226256227 
1261	 1.08529478410026 
1262	 1.08483137216308 
1263	 1.08448319194923 
1264	 1.08402382912109 
1265	 1.0837567355867 
1266	 1.08374620040712 
1267	 1.08358862204401 
1268	 1.08346382474008 
1269	 1.08331345239876 
1270	 1.08304080187033 
1271	 1.08285294514558 
1272	 1.08272434761951 
1273	 1.08261590231893 
1274	 1.08249434432337 
1275	 1.08241240152083 
1276	 1.08225850136447 
1277	 1.0820034574662 
1278	 1.08195254838931 
1279	 1.08195254826461 
1280	 1.08197464942226 
1281	 1.08219875175936 
1282	 1.0822250465667 
1283	 1.08210890552408 
1284	 1.0821023688783 
1285	 1.08210611399638 
1286	 1.08208947202714 
1287	 1.08212330962513 
1288	 1.08211573222259 
1289	 1.08200508825522 
1290	 1.08199037791249 
1291	 1.08208305748723 
1292	 1.08208205249037 
1293	 1.08200436774545 
1294	 1.0820280150307 
1295	 1.08206791401143 
1296	 1.08212189933272 
1297	 1.08209630473958 
1298	 1.08209749187702 
1299	 1.08214601228839 
1300	 1.08207696505054 
1301	 1.08217506341561 
1302	 1.08248201535401 
1303	 1.08265341245427 
1304	 1.08273561514521 
1305	 1.0829671805848 
1306	 1.08320404990053 
1307	 1.08357663985399 
1308	 1.08415996823036 
1309	 1.08462497619855 
1310	 1.08516141325962 
1311	 1.08560904000736 
1312	 1.08596533806677 
1313	 1.08633212168437 
1314	 1.08673512189385 
1315	 1.08702709800135 
1316	 1.08713182669154 
1317	 1.08739542053329 
1318	 1.08757338393658 
1319	 1.08791687434771 
1320	 1.08842349906141 
1321	 1.08908326242151 
1322	 1.08969677623684 
1323	 1.09032549031107 
1324	 1.09116879147696 
1325	 1.09206322607322 
1326	 1.09322404165678 
1327	 1.0948788635859 
1328	 1.09608349223827 
1329	 1.09747248043958 
1330	 1.09833848758704 
1331	 1.09869317254268 
1332	 1.09912705976368 
1333	 1.09930556900287 
1334	 1.09944213277766 
1335	 1.09942458706039 
1336	 1.09945099178025 
1337	 1.09904203057808 
1338	 1.0992361023704 
1339	 1.09966662508625 
1340	 1.10042949773267 
1341	 1.10179059837984 
1342	 1.10342858611296 
1343	 1.1057889556423 
1344	 1.10842951574221 
1345	 1.1121314030451 
1346	 1.11641397073381 
1347	 1.12129654620642 
1348	 1.127052378764 
1349	 1.13311431946296 
1350	 1.1401097425301 
1351	 1.14835769979893 
1352	 1.15794560799534 
1353	 1.16915177326467 
1354	 1.18125602595864 
1355	 1.19729703949873 
1356	 1.20984311330004 
1357	 1.23114085631316 
1358	 1.24713551712584 
1359	 1.28024593966423 
1360	 1.3079619151647 
1361	 1.3533634273792 
1362	 1.37620285447627 
1363	 1.42246685966462 
1364	 1.42900796558473 
1365	 1.42902444274991 
1366	 1.39273096523838 
1367	 1.3860785244647 
1368	 1.37808090295454 
1369	 1.36887920440054 
1370	 1.37693911199547 
1371	 1.37553216067323 
1372	 1.35545317134367 
1373	 1.35180858932856 
1374	 1.35313725185169 
1375	 1.36456517744954 
1376	 1.36366963077606 
1377	 1.35958109532347 
1378	 1.35873635043178 
1379	 1.35193657787245 
1380	 1.34629768808942 
1381	 1.34679185347193 
1382	 1.34237821882514 
1383	 1.33291058847712 
1384	 1.32382722048112 
1385	 1.31626074295623 
1386	 1.30977533154739 
1387	 1.30234582798174 
1388	 1.2950382366759 
1389	 1.29424312247688 
1390	 1.28429278574621 
1391	 1.2702844892502 
1392	 1.25639178631838 
1393	 1.23766021365479 
1394	 1.22321529013297 
1395	 1.21116511689689 
1396	 1.19772632698747 
1397	 1.18258300326536 
1398	 1.17182668485313 
1399	 1.16023488055535 
1400	 1.15234037219557 
1401	 1.15265215527901 
1402	 1.14689839802 
1403	 1.1421847816391 
1404	 1.13330400344498 
1405	 1.12218142692737 
1406	 1.10907323018757 
1407	 1.0956573226617 
1408	 1.08374458647491 
1409	 1.07048167171951 
1410	 1.05674417953018 
1411	 1.04548686193358 
1412	 1.03487052107313 
1413	 1.02513504879175 
1414	 1.01658120310962 
1415	 1.00928177339713 
1416	 1.00177842751989 
1417	 0.996398103550497 
1418	 0.993155226504426 
1419	 0.988340589249306 
1420	 0.983680780458135 
1421	 0.979191711330473 
1422	 0.973986284237901 
1423	 0.969882184284942 
1424	 0.966379743342167 
1425	 0.962876229017321 
1426	 0.959649024804225 
1427	 0.956215274149078 
1428	 0.952538954040707 
1429	 0.94910212956287 
1430	 0.945333838771406 
1431	 0.941958674690452 
1432	 0.938495674577546 
1433	 0.935759217479855 
1434	 0.933573654941087 
1435	 0.931383300453638 
1436	 0.930075303149959 
1437	 0.928001818383506 
1438	 0.925766109502861 
1439	 0.923251269206322 
1440	 0.920500434865003 
1441	 0.917564292468105 
1442	 0.914249328315033 
1443	 0.911171083690361 
1444	 0.908380723400821 
1445	 0.905467758163533 
1446	 0.902998627307138 
1447	 0.9008488897501 
1448	 0.898801078769716 
1449	 0.896804471226202 
1450	 0.895268997112066 
1451	 0.893906892058959 
1452	 0.892969089618789 
1453	 0.892251749433082 
1454	 0.891929016519643 
1455	 0.891849515886686 
1456	 0.892059643861737 
1457	 0.892374669645813 
1458	 0.893339716104517 
1459	 0.894517983899156 
1460	 0.896544495228263 
1461	 0.899367550985196 
1462	 0.902719708486784 
1463	 0.90690839231581 
1464	 0.911847622720528 
1465	 0.918099052678437 
1466	 0.92425352029756 
1467	 0.931582728641782 
1468	 0.938006951796447 
1469	 0.944058515041941 
1470	 0.94967168870683 
1471	 0.954979939062747 
1472	 0.958916457973122 
1473	 0.96163852362225 
1474	 0.96385487791269 
1475	 0.964456445521817 
1476	 0.965468808570756 
1477	 0.96659946965824 
1478	 0.96708913692182 
1479	 0.967147898459518 
1480	 0.967145097084394 
1481	 0.966801356630147 
1482	 0.96630353492677 
1483	 0.96577942927798 
1484	 0.965122491510327 
1485	 0.964339367774281 
1486	 0.963285005451497 
1487	 0.962133602935657 
1488	 0.96086359763946 
1489	 0.959205583915162 
1490	 0.957737034182813 
1491	 0.956291168382893 
1492	 0.954791811429427 
1493	 0.953487683184867 
1494	 0.95206419238892 
1495	 0.950859834623283 
1496	 0.949810932753378 
1497	 0.948557442045811 
1498	 0.947342869719233 
1499	 0.94595175183407 
1500	 0.944278591857475 
1501	 0.942874951219302 
1502	 0.941580795220927 
1503	 0.940056515182872 
1504	 0.938630224809359 
1505	 0.936863540625124 
1506	 0.934811420121133 
1507	 0.932800275593805 
1508	 0.930618501543375 
1509	 0.928587016827473 
1510	 0.926486628721388 
1511	 0.924575873077633 
1512	 0.922713911209167 
1513	 0.921053497463078 
1514	 0.91942433865928 
1515	 0.91813758500469 
1516	 0.917032580162239 
1517	 0.916186646743444 
1518	 0.915593161617869 
1519	 0.915220476566504 
1520	 0.915135537612073 
1521	 0.915116875332674 
1522	 0.91537524648198 
1523	 0.915576413345888 
1524	 0.915949968578709 
1525	 0.916119418399204 
1526	 0.916270073330041 
1527	 0.916314045253344 
1528	 0.916254354571723 
1529	 0.916069397521306 
1530	 0.915862068921671 
1531	 0.915441169829969 
1532	 0.91484003915551 
1533	 0.914096267602719 
1534	 0.913160386137362 
1535	 0.91215513524685 
1536	 0.910917391932501 
1537	 0.909755087221039 
1538	 0.90860381560919 
1539	 0.907349050060345 
1540	 0.906021147297478 
1541	 0.904728496403913 
1542	 0.903181815441005 
1543	 0.901964660106343 
1544	 0.900970332063709 
1545	 0.899998563918557 
1546	 0.898975128884905 
1547	 0.898400578982669 
1548	 0.898041010378255 
1549	 0.89787438171112 
1550	 0.898068425394984 
1551	 0.898512997451733 
1552	 0.899119338904289 
1553	 0.899956802506134 
1554	 0.901253345702169 
1555	 0.902566202360952 
1556	 0.904104705968093 
1557	 0.905572918604071 
1558	 0.907160087977847 
1559	 0.908659472724207 
1560	 0.910121690085679 
1561	 0.911496562204597 
1562	 0.912885032304067 
1563	 0.914101975497675 
1564	 0.91512858125307 
1565	 0.916127407756945 
1566	 0.91707177010911 
1567	 0.918002687485747 
1568	 0.918814163706547 
1569	 0.919618404578384 
1570	 0.920303486542675 
1571	 0.920824913090346 
1572	 0.921362212887174 
1573	 0.921886446855491 
1574	 0.922294374947005 
1575	 0.922629786614248 
1576	 0.922814005589878 
1577	 0.922848325471666 
1578	 0.922951732307117 
1579	 0.922917980265775 
1580	 0.923042453513859 
1581	 0.923326811937866 
1582	 0.923346537210658 
1583	 0.923262071308662 
1584	 0.923269047545691 
1585	 0.923147616639734 
1586	 0.923193333000164 
1587	 0.923435425020584 
1588	 0.923459525167427 
1589	 0.923404824269837 
1590	 0.92339062899645 
1591	 0.923351056344529 
1592	 0.923229885506779 
1593	 0.923095417405622 
1594	 0.922943988793847 
1595	 0.922719334516528 
1596	 0.922449139398844 
1597	 0.92218262591453 
1598	 0.921883098145606 
1599	 0.921493828998708 
1600	 0.921075448705827 
1601	 0.920713573071723 
1602	 0.920158206700194 
1603	 0.919422265716163 
1604	 0.918764086337195 
1605	 0.918163905373549 
1606	 0.917243018422172 
1607	 0.916274391969006 
1608	 0.915001353552561 
1609	 0.913397922076654 
1610	 0.91176921713956 
1611	 0.91005025760584 
1612	 0.908094901381609 
1613	 0.906035780868339 
1614	 0.903619636455951 
1615	 0.900982293552904 
1616	 0.898004281747076 
1617	 0.894574684842216 
1618	 0.891321280580131 
1619	 0.887911952779931 
1620	 0.884411827308751 
1621	 0.880898943168326 
1622	 0.877268433753862 
1623	 0.873340601369666 
1624	 0.869702501896329 
1625	 0.866059526368397 
1626	 0.862735711878844 
1627	 0.859545915628721 
1628	 0.85654262781348 
1629	 0.853793689264967 
1630	 0.85106188537791 
1631	 0.84844159095783 
1632	 0.845827048991487 
1633	 0.843305107685853 
1634	 0.84081037401342 
1635	 0.838288252965215 
1636	 0.835931001191037 
1637	 0.833724824784571 
1638	 0.831433332638051 
1639	 0.829315586084924 
1640	 0.826893335749363 
1641	 0.824397981278231 
1642	 0.821662513396229 
1643	 0.818821544809893 
1644	 0.81555535423309 
1645	 0.812172618463429 
1646	 0.808077958996263 
1647	 0.803605454904004 
1648	 0.798404043495145 
1649	 0.792640095105406 
1650	 0.786153351804283 
1651	 0.778997522341545 
1652	 0.771209668407272 
1653	 0.762623929333929 
1654	 0.753857283561449 
1655	 0.744387367537613 
1656	 0.735092569093658 
1657	 0.725497259749211 
1658	 0.715743345912829 
1659	 0.706132323397816 
1660	 0.696499973171758 
1661	 0.687088649432158 
1662	 0.678234581881556 
1663	 0.669581731019977 
1664	 0.661198564649209 
1665	 0.65316535972998 
1666	 0.645441960914214 
1667	 0.638009775727686 
1668	 0.630988402822217 
1669	 0.624523422069558 
1670	 0.618519180776992 
1671	 0.612889746059685 
1672	 0.607841645556305 
1673	 0.603353353700294 
1674	 0.599466788356738 
1675	 0.596250290043832 
1676	 0.593542116522743 
1677	 0.59154945442966 
1678	 0.590190972482846 
1679	 0.589257982069915 
1680	 0.589151490803291 
1681	 0.58952946841516 
1682	 0.590250780140192 
1683	 0.59160584692881 
1684	 0.593274464985984 
1685	 0.595323600257051 
1686	 0.597916671089142 
1687	 0.60079096062969 
1688	 0.604029404940489 
1689	 0.607471976632913 
1690	 0.610906824572422 
1691	 0.614650759185653 
1692	 0.618718348434117 
1693	 0.622852629757995 
1694	 0.627244013830415 
1695	 0.63168388971217 
1696	 0.636225687527306 
1697	 0.640823754923988 
1698	 0.645656463326685 
1699	 0.650344592692369 
1700	 0.655168902107328 
1701	 0.659662391345185 
1702	 0.664053395917817 
1703	 0.668120287575644 
1704	 0.672038116259626 
1705	 0.675410507394419 
1706	 0.678431114182703 
1707	 0.680989809986133 
1708	 0.683073448538151 
1709	 0.684597690789707 
1710	 0.685488015870015 
1711	 0.686221830789497 
1712	 0.686361781243512 
1713	 0.686434577131345 
1714	 0.686495232207597 
1715	 0.686018387940084 
1716	 0.685017105140378 
1717	 0.684009347909314 
1718	 0.682428535124209 
1719	 0.681241584779014 
1720	 0.68006946643158 
1721	 0.679093417075597 
1722	 0.678374392857201 
1723	 0.67773108749275 
1724	 0.677150510201425 
1725	 0.676781859062439 
1726	 0.676426357331015 
1727	 0.676521218996888 
1728	 0.676853634455232 
1729	 0.677664408360493 
1730	 0.67901981643096 
1731	 0.680515929513854 
1732	 0.682399526780659 
1733	 0.684610713917803 
1734	 0.686694687159404 
1735	 0.689023133119159 
1736	 0.691361491704032 
1737	 0.693496115187063 
1738	 0.695846205271929 
1739	 0.698026608545529 
1740	 0.700073430732389 
1741	 0.701980732463854 
1742	 0.703513082347862 
1743	 0.70505396143896 
1744	 0.706320399210599 
1745	 0.707353610352959 
1746	 0.708589667783734 
1747	 0.709449413798454 
1748	 0.710080308004267 
1749	 0.710561219579761 
1750	 0.710682627387351 
1751	 0.710814263648176 
1752	 0.711124214777406 
1753	 0.711576509641825 
1754	 0.711735058403773 
1755	 0.711676030418541 
1756	 0.711776980003793 
1757	 0.712048746528976 
1758	 0.712513428780374 
1759	 0.713147839167513 
1760	 0.713949670305076 
1761	 0.714892125530218 
1762	 0.715995074963506 
1763	 0.717453025716642 
1764	 0.719018691856036 
1765	 0.720528407100776 
1766	 0.722414628484205 
1767	 0.724865372963078 
1768	 0.72691935693479 
1769	 0.729083735843373 
1770	 0.731280367522438 
1771	 0.733177486149607 
1772	 0.735450751406177 
1773	 0.738214296266785 
1774	 0.740486454629917 
1775	 0.742569794034472 
1776	 0.743809163030896 
1777	 0.745042943332601 
1778	 0.746395560011462 
1779	 0.747282180908832 
1780	 0.74822184458493 
1781	 0.749177680353175 
1782	 0.749347842679655 
1783	 0.749636911463576 
1784	 0.750536177032399 
1785	 0.751155154616453 
1786	 0.752111929718353 
1787	 0.75359231819019 
1788	 0.754733847474573 
1789	 0.755718386768994 
1790	 0.756916294762675 
1791	 0.758021983426585 
1792	 0.759269878145628 
1793	 0.760677628262494 
1794	 0.762563062268839 
1795	 0.76488333004745 
1796	 0.766845368284971 
1797	 0.769569031586285 
1798	 0.773249482896411 
1799	 0.776431301743435 
1800	 0.780603098812248 
1801	 0.768047646843423 
1802	 0.773515713625791 
1803	 0.777129322340512 
1804	 0.780373899687102 
1805	 0.784821791973407 
1806	 0.788723642627769 
1807	 0.792644604435071 
1808	 0.797944432802543 
1809	 0.803611598948618 
1810	 0.807878538242753 
1811	 0.809952777071732 
1812	 0.813026114800593 
1813	 0.814871841055166 
1814	 0.818848780582494 
1815	 0.823725401013826 
1816	 0.828638986606353 
1817	 0.837439399565707 
1818	 0.843805998537901 
1819	 0.84889320836673 
1820	 0.851384411199631 
1821	 0.853811237387785 
1822	 0.85210376938981 
1823	 0.853247615072022 
1824	 0.85128607955187 
1825	 0.854846665749166 
1826	 0.8721913365548 
1827	 0.879204977897779 
1828	 0.883137863978606 
1829	 0.884449719426214 
1830	 0.890119379130202 
1831	 0.875525721375154 
1832	 0.878202967039272 
1833	 0.937604571306972 
1834	 0.947569446403186 
1835	 0.879459807807583 
1836	 0.841589102634305 
1837	 0.742563579291321 
1838	 0.68808192903643 
1839	 0.67718540504258 
1840	 0.772399987442064 
1841	 0.801544872136344 
1842	 0.850036809917083 
1843	 0.857440453668295 
1844	 0.819866049880905 
1845	 0.822697660233896 
1846	 0.84985647193075 
1847	 0.844335313955493 
1848	 0.833061118242882 
1849	 0.829433161511948 
1850	 0.837169138589716 
1851	 0.801177611390068 
1852	 0.825541541114821 
1853	 0.940569357456203 
1854	 0.991777993878351 
1855	 1.04906466094663 
1856	 1.0578691266813 
1857	 0.992445774656482 
1858	 0.97893936283746 
1859	 0.958961777789441 
1860	 0.929778495277497 
1861	 0.907245858047766 
1862	 0.869543955045235 
1863	 0.876145807636933 
1864	 0.91518078286286 
1865	 0.928798900795859 
1866	 0.983602833675982 
1867	 1.02632377423229 
1868	 0.959306919491409 
1869	 0.927820509660366 
1870	 0.910822543853165 
1871	 0.910746083077805 
1872	 0.882790086559378 
1873	 0.863251449829001 
1874	 0.848194215595152 
1875	 0.801490000851805 
1876	 0.804452943508183 
1877	 0.834029899245002 
1878	 0.850073246455038 
1879	 0.87986609857335 
1880	 0.913912744007502 
1881	 0.92833559696743 
1882	 0.947671525804133 
1883	 0.948174432137716 
1884	 0.931825881410281 
1885	 0.923539245825336 
1886	 0.9134600479936 
1887	 0.898693536165328 
1888	 0.887362234094153 
1889	 0.882710453402962 
1890	 0.87837291864721 
1891	 0.877312590764486 
1892	 0.871110633661733 
1893	 0.862417903012862 
1894	 0.853913844120323 
1895	 0.837734521703446 
1896	 0.828471886439767 
1897	 0.820014069698534 
1898	 0.823500502895349 
1899	 0.832802251939538 
1900	 0.82668573943634 
1901	 0.817290107391885 
1902	 0.789272305534769 
1903	 0.789538760059439 
1904	 0.805838758868487 
1905	 0.805300548564275 
1906	 0.814429055325334 
1907	 0.841145956298123 
1908	 0.81880675693852 
1909	 0.807724818749063 
1910	 0.799923253713049 
1911	 0.774494815672396 
1912	 0.764239447487222 
1913	 0.750528164441252 
1914	 0.747009097299974 
1915	 0.755416307361063 
1916	 0.751627428795625 
1917	 0.746670935259438 
1918	 0.739096469700496 
1919	 0.730334162892883 
1920	 0.726088222754748 
1921	 0.722296054506363 
1922	 0.723110197080898 
1923	 0.720999644719529 
1924	 0.716531541239946 
1925	 0.715131184164525 
1926	 0.716715851325884 
1927	 0.713523350504843 
1928	 0.709244026806733 
1929	 0.707405517019698 
1930	 0.701040077256659 
1931	 0.689027309926819 
1932	 0.683282593266994 
1933	 0.68281325672405 
1934	 0.679948104648031 
1935	 0.678872329451256 
1936	 0.677222250320068 
1937	 0.67425080008989 
1938	 0.672210904511572 
1939	 0.670625549893613 
1940	 0.669176023407477 
1941	 0.669825266152515 
1942	 0.669649340516057 
1943	 0.66825095133474 
1944	 0.668878792873791 
1945	 0.666230367352639 
1946	 0.662397856464662 
1947	 0.660719513985107 
1948	 0.659073344561191 
1949	 0.657605805469277 
1950	 0.657247919184616 
1951	 0.658168826017862 
1952	 0.65561600845071 
1953	 0.65392040362954 
1954	 0.653144246873425 
1955	 0.651834705080251 
1956	 0.653720911477875 
1957	 0.655443693147875 
1958	 0.65591890861122 
1959	 0.656925838142366 
1960	 0.656314670699588 
1961	 0.653933433793363 
1962	 0.652862069588031 
1963	 0.651571470019758 
1964	 0.650353522209865 
1965	 0.650762144957661 
1966	 0.650721691410405 
1967	 0.650275949543915 
1968	 0.649931665199079 
1969	 0.649778689626994 
1970	 0.649111200826959 
1971	 0.648932859123714 
1972	 0.648981866240206 
1973	 0.649867048210203 
1974	 0.650256381719541 
1975	 0.650457068923282 
1976	 0.650861863234351 
1977	 0.650566633206674 
1978	 0.650112355322032 
1979	 0.650370569764557 
1980	 0.65099421871863 
1981	 0.65136883203774 
1982	 0.651509588125472 
1983	 0.651720656668299 
1984	 0.651341234315012 
1985	 0.650882103472399 
1986	 0.651076693671761 
1987	 0.651454541212697 
1988	 0.651990685196277 
1989	 0.652667921596705 
1990	 0.653087197265507 
1991	 0.652817812479118 
1992	 0.652414396478147 
1993	 0.652050604417771 
1994	 0.651772091325041 
1995	 0.651448236682441 
1996	 0.651471748107656 
1997	 0.651328879906801 
1998	 0.651026166228566 
1999	 0.650079649708249 
2000	 0.649024599802481 
2001	 0.648650544729051 
2002	 0.648228349699949 
2003	 0.647777448060169 
2004	 0.64765158557877 
2005	 0.647396341985139 
2006	 0.646533436529443 
2007	 0.64516184672958 
2008	 0.643492718713564 
2009	 0.642407298770271 
2010	 0.641449755044037 
2011	 0.640907607629657 
2012	 0.641146976891687 
2013	 0.640700139202467 
2014	 0.639205929807769 
2015	 0.637799563957807 
2016	 0.636810365073223 
2017	 0.635251371097652 
2018	 0.633981144419985 
2019	 0.632384277982035 
2020	 0.630706088056627 
2021	 0.62839116493693 
2022	 0.627016865076965 
2023	 0.625721978891778 
2024	 0.62495074127801 
2025	 0.624211648962234 
2026	 0.622299003460381 
2027	 0.620992962752252 
2028	 0.619963149181223 
2029	 0.618442415084279 
2030	 0.617367857724492 
2031	 0.616493746542126 
2032	 0.61542886105971 
2033	 0.61402523335046 
2034	 0.612859731776568 
2035	 0.612130302023099 
2036	 0.610802579564386 
2037	 0.609437902504495 
2038	 0.608761926901941 
2039	 0.607851113509823 
2040	 0.607364061043107 
2041	 0.607015016517176 
2042	 0.606212066114327 
2043	 0.605514139523656 
2044	 0.604619868851377 
2045	 0.603927311369373 
2046	 0.603280751118653 
2047	 0.602942708395849 
2048	 0.602671203604507 
2049	 0.602068544225917 
2050	 0.60111483436671 
2051	 0.600160523691511 
2052	 0.59881009402638 
2053	 0.598222381660015 
2054	 0.597970441875909 
2055	 0.59697231313773 
2056	 0.596159239423 
2057	 0.595247567193541 
2058	 0.594151517305926 
2059	 0.593127915469707 
2060	 0.592328404853898 
2061	 0.591515313380184 
2062	 0.590449491530521 
2063	 0.589621996443887 
2064	 0.589003087936143 
2065	 0.587886072053733 
2066	 0.58675614077022 
2067	 0.584937227333483 
2068	 0.582626816118476 
2069	 0.581359659663896 
2070	 0.579867650033553 
2071	 0.578245837413777 
2072	 0.576939550879719 
2073	 0.576080179305732 
2074	 0.5745239638679 
2075	 0.573042681921793 
2076	 0.572039065743952 
2077	 0.570842540711427 
2078	 0.569427731414523 
2079	 0.568316814419844 
2080	 0.567315771568452 
2081	 0.566134265000675 
2082	 0.565261203192045 
2083	 0.564585175929334 
2084	 0.563854860613932 
2085	 0.562751768465586 
2086	 0.561363851752933 
2087	 0.560082384589835 
2088	 0.55841597936201 
2089	 0.557072887508181 
2090	 0.556942095680915 
2091	 0.556951958859322 
2092	 0.556546731626966 
2093	 0.555938438146142 
2094	 0.554512206700083 
2095	 0.553204762037164 
2096	 0.552921727225661 
2097	 0.552643445239528 
2098	 0.552316402666189 
2099	 0.551801453031184 
2100	 0.550944395118629 
2101	 0.549923094795066 
2102	 0.54876845359371 
2103	 0.547491424473192 
2104	 0.546065980689811 
2105	 0.544372638370666 
2106	 0.542728364327933 
2107	 0.540718685245799 
2108	 0.538713212487185 
2109	 0.536465516628182 
2110	 0.533683217379951 
2111	 0.531221830348804 
2112	 0.528576532395491 
2113	 0.526258942856063 
2114	 0.523986785136648 
2115	 0.520753656840765 
2116	 0.517264131942768 
2117	 0.513876009504601 
2118	 0.510172115169547 
2119	 0.5063715813807 
2120	 0.502673460962441 
2121	 0.498901669364593 
2122	 0.49465720396801 
2123	 0.489879445805741 
2124	 0.485438069449931 
2125	 0.480904552560976 
2126	 0.475641867700154 
2127	 0.470176864406058 
2128	 0.464505156391706 
2129	 0.457824398144729 
2130	 0.450924626893274 
2131	 0.443879677820476 
2132	 0.435694122905915 
2133	 0.427938194798834 
2134	 0.420530227445505 
2135	 0.413223527522916 
2136	 0.405662980888962 
2137	 0.399803124863795 
2138	 0.394300318298558 
2139	 0.389037683731132 
2140	 0.385258424526942 
2141	 0.381799165865144 
2142	 0.379460283519847 
2143	 0.37833647049786 
2144	 0.377911235599148 
2145	 0.378276491903309 
2146	 0.37957158630438 
2147	 0.38165365466297 
2148	 0.384039626754933 
2149	 0.386830964983963 
2150	 0.388770279510244 
2151	 0.389641005549513 
2152	 0.389350913469947 
2153	 0.389166990802383 
2154	 0.388360059882943 
2155	 0.38674018381051 
2156	 0.385338662681751 
2157	 0.382957334294907 
2158	 0.3797850036193 
2159	 0.377160797125969 
2160	 0.374747099112592 
2161	 0.373072123705968 
2162	 0.371680735673101 
2163	 0.36995729711052 
2164	 0.368852058566989 
2165	 0.368575845701898 
2166	 0.369002040254889 
2167	 0.370346455148743 
2168	 0.371678479879769 
2169	 0.373396030918279 
2170	 0.375047318659818 
2171	 0.376651406036198 
2172	 0.378897287719123 
2173	 0.381358929923563 
2174	 0.383971219448288 
2175	 0.386968305473419 
2176	 0.389134120534939 
2177	 0.390367963227225 
2178	 0.391235453171593 
2179	 0.391615115566341 
2180	 0.391909970458269 
2181	 0.391942355872545 
2182	 0.391680531467352 
2183	 0.391596887873527 
2184	 0.391197505569778 
2185	 0.390961106129839 
2186	 0.391301410142711 
2187	 0.391770457151455 
2188	 0.392162996395658 
2189	 0.393014339131775 
2190	 0.394326432512863 
2191	 0.395909272812544 
2192	 0.397029293195556 
2193	 0.398084226839161 
2194	 0.400108202748703 
2195	 0.401688109710758 
2196	 0.40253320060279 
2197	 0.403729442821079 
2198	 0.404022321249601 
2199	 0.403750267429158 
2200	 0.404139196759207 
2201	 0.404420829240946 
2202	 0.403790472982006 
2203	 0.402837139511208 
2204	 0.402100125870774 
2205	 0.40104537145048 
2206	 0.399998672000256 
2207	 0.399027028677901 
2208	 0.397677547331564 
2209	 0.39565508788724 
2210	 0.394270229083993 
2211	 0.392861405370124 
2212	 0.391788201727551 
2213	 0.391426053169402 
2214	 0.391155966268712 
2215	 0.391409280775381 
2216	 0.391598391356934 
2217	 0.390924878341941 
2218	 0.390716579419817 
2219	 0.389974108596623 
2220	 0.388175361384864 
2221	 0.386864004709175 
2222	 0.385632389732611 
2223	 0.384359297734713 
2224	 0.383362504306021 
2225	 0.382421360387631 
2226	 0.380842924839027 
2227	 0.378415181836339 
2228	 0.376165677024949 
2229	 0.373282332637246 
2230	 0.369755278582406 
2231	 0.36642553239107 
2232	 0.36333702733468 
2233	 0.35929946626423 
2234	 0.354773951592759 
2235	 0.350175325474248 
2236	 0.345095515401794 
2237	 0.339741270600561 
2238	 0.335051246598129 
2239	 0.330478733134423 
2240	 0.325284092298403 
2241	 0.319280938647667 
2242	 0.312981275272166 
2243	 0.305990336729317 
2244	 0.299084643114907 
2245	 0.293262279301782 
2246	 0.286868849439699 
2247	 0.28086143279641 
2248	 0.275598828988609 
2249	 0.269731243031023 
2250	 0.264395101509626 
2251	 0.260212910534307 
2252	 0.255867932543045 
2253	 0.251273793391245 
2254	 0.247159701787596 
2255	 0.242969456847927 
2256	 0.239277227951951 
2257	 0.235822414713389 
2258	 0.233296200223746 
2259	 0.231049192563497 
2260	 0.228279021889327 
2261	 0.22496535981556 
2262	 0.221765830437398 
2263	 0.218634043673196 
2264	 0.216775293953256 
2265	 0.215847623889625 
2266	 0.214574097503199 
2267	 0.213468236679693 
2268	 0.212369242307887 
2269	 0.211839860052981 
2270	 0.212365025072093 
2271	 0.212793814631889 
2272	 0.213012414716265 
2273	 0.213064453964041 
2274	 0.213368321881922 
2275	 0.21494728885948 
2276	 0.217145039512598 
2277	 0.218774864843632 
2278	 0.220333945182999 
2279	 0.221896046530268 
2280	 0.222612641736886 
2281	 0.223351818853854 
2282	 0.224185019127648 
2283	 0.224270053310425 
2284	 0.224328584335544 
2285	 0.224933902235223 
2286	 0.225238026177837 
2287	 0.225365970433487 
2288	 0.225699444539172 
2289	 0.225932378694666 
2290	 0.225394130003437 
2291	 0.225527364353567 
2292	 0.225248379450774 
2293	 0.22478396970428 
2294	 0.225685257487072 
2295	 0.225837592349145 
2296	 0.224789958272117 
2297	 0.223947735133874 
2298	 0.221418570362679 
2299	 0.219160605022275 
2300	 0.219356236944012 
2301	 0.21890348564733 
2302	 0.218925732711196 
2303	 0.219215359483836 
2304	 0.218124553135574 
2305	 0.217238696461689 
2306	 0.217554287158929 
2307	 0.217991462678851 
2308	 0.21869084630861 
2309	 0.220166242605238 
2310	 0.220885837878125 
2311	 0.221257134314165 
2312	 0.221312485230343 
2313	 0.22228446012278 
2314	 0.224009598067693 
2315	 0.225720424195046 
2316	 0.228206529825983 
2317	 0.229332469541407 
2318	 0.22918835971519 
2319	 0.229224325246862 
2320	 0.229010903426798 
2321	 0.229020066378444 
2322	 0.229441821070454 
2323	 0.229765953128412 
2324	 0.230096156111174 
2325	 0.230622896134375 
2326	 0.230203455325393 
2327	 0.230054215203322 
2328	 0.230102730738248 
2329	 0.229204025133714 
2330	 0.228699372003685 
2331	 0.227694429039834 
2332	 0.227538513797525 
2333	 0.226968739429146 
2334	 0.226087521587505 
2335	 0.225406496618514 
2336	 0.223952790532107 
2337	 0.222610383241414 
2338	 0.220303549107768 
2339	 0.22028308508706 
2340	 0.219759127826952 
2341	 0.217085861266892 
2342	 0.216994367011801 
2343	 0.216843295863271 
2344	 0.21553417638947 
2345	 0.215362580134493 
2346	 0.21572503434249 
2347	 0.213633191816181 
2348	 0.211420664864128 
2349	 0.211516202135714 
2350	 0.210652187647715 
2351	 0.210620286569268 
2352	 0.211839098455237 
2353	 0.211745243878267 
2354	 0.211497190446986 
2355	 0.212079792601089 
2356	 0.212287253865802 
2357	 0.211106534059903 
2358	 0.209945151800798 
2359	 0.208993387425834 
2360	 0.20789999489994 
2361	 0.207084357213328 
2362	 0.206444171892824 
2363	 0.206344038430434 
2364	 0.207560018613792 
2365	 0.209646176471785 
2366	 0.211179394820529 
2367	 0.212337257951072 
2368	 0.212480377118697 
2369	 0.210933059293781 
2370	 0.211122786378232 
2371	 0.211597537382611 
2372	 0.2126900277665 
2373	 0.215595194030312 
2374	 0.218177833709678 
2375	 0.221970198861426 
2376	 0.221821780533638 
2377	 0.218329661415154 
2378	 0.216784583286826 
2379	 0.212820167629017 
2380	 0.213168608275036 
2381	 0.217622232530656 
2382	 0.219314693113178 
2383	 0.222321066681601 
2384	 0.222290050586504 
2385	 0.220835646553006 
2386	 0.21943746687696 
2387	 0.214029147721278 
2388	 0.212135216549884 
2389	 0.2117940380443 
2390	 0.211406179617035 
2391	 0.213929694850473 
2392	 0.215033086766435 
2393	 0.214877178415626 
2394	 0.215427874086563 
2395	 0.215347706258127 
2396	 0.215394639155907 
2397	 0.217483875727073 
2398	 0.217394650742338 
2399	 0.215260992324822 
2400	 0.214671597299424 
2401	 0.215276194993534 
2402	 0.211292344068494 
2403	 0.208625395314816 
2404	 0.21110483769239 
2405	 0.209461449508755 
2406	 0.208790232684652 
2407	 0.211184514299176 
2408	 0.210392249215906 
2409	 0.211709887514445 
2410	 0.213356081375756 
2411	 0.212586997925421 
2412	 0.210782397766738 
2413	 0.206888041363114 
2414	 0.208395530575342 
2415	 0.213597453085468 
2416	 0.213451767475548 
2417	 0.212528027386432 
2418	 0.212018073554571 
2419	 0.2086894884915 
2420	 0.20894889420284 
2421	 0.211804173121424 
2422	 0.211018555225733 
2423	 0.210427939562322 
2424	 0.212070543189 
2425	 0.215471132005547 
2426	 0.218469085630402 
2427	 0.220803406022438 
2428	 0.221575528789752 
2429	 0.217104611067105 
2430	 0.212249756511844 
2431	 0.20617341282118 
2432	 0.19757316570065 
2433	 0.202549637470651 
2434	 0.204345388595599 
2435	 0.211187947122431 
2436	 0.212136954893904 
2437	 0.206509091062944 
2438	 0.202069273361716 
2439	 0.19296511931672 
2440	 0.189767087245273 
2441	 0.189508017964583 
2442	 0.18831914301764 
2443	 0.191997628076498 
2444	 0.191932986418572 
2445	 0.189008463900383 
2446	 0.188569204382121 
2447	 0.189667275964239 
2448	 0.188953295273506 
2449	 0.186434903932573 
2450	 0.184130180776695 
2451	 0.181863839206892 
2452	 0.176849857544703 
2453	 0.171927857979157 
2454	 0.167326185585573 
2455	 0.156084289557995 
2456	 0.155341663998867 
2457	 0.163039851053172 
2458	 0.16617171340105 
2459	 0.175024942684858 
2460	 0.174309846587541 
2461	 0.162252439392213 
2462	 0.159895737684166 
2463	 0.159024271575592 
2464	 0.158160256703418 
2465	 0.167304222869377 
2466	 0.16618113171732 
2467	 0.152820387137705 
2468	 0.146802210339281 
2469	 0.14182194892848 
2470	 0.132590117666462 
2471	 0.120029469514565 
2472	 0.121963936788935 
2473	 0.127189152588154 
2474	 0.134119695233711 
2475	 0.162064543176416 
2476	 0.176029069757816 
2477	 0.182262782086738 
2478	 0.188609465942619 
2479	 0.190975719036887 
2480	 0.193141450660332 
2481	 0.190222497348217 
2482	 0.176580404019536 
2483	 0.14910954661626 
2484	 0.136340325443605 
2485	 0.112784597976902 
2486	 0.123790400748903 
2487	 0.163362547461601 
2488	 0.240528183601795 
2489	 0.257439228014477 
2490	 0.238415772666025 
2491	 0.256978598103392 
2492	 0.194430977607791 
2493	 0.11963000445807 
2494	 0.100040056981932 
2495	 9.05419451784815E-02 
2496	 9.00919245543315E-02 
2497	 9.04286467802976E-02 
2498	 6.93626628531511E-02 
2499	 3.58178329978072E-02 
2500	 5.71247319264005E-02 
