Wavelength	ref00039.asd
350	 2.61136199107623E-02 
351	 2.55726151728917E-02 
352	 2.44688527580955E-02 
353	 2.53314140481825E-02 
354	 2.54950228289183E-02 
355	 0.025402723627539 
356	 2.56003666628412E-02 
357	 2.56276326648185E-02 
358	 2.60423372708226E-02 
359	 2.64376256570134E-02 
360	 2.62638595752929E-02 
361	 2.55441441101152E-02 
362	 2.58467425373001E-02 
363	 2.67216276666088E-02 
364	 2.65232270689198E-02 
365	 2.59062938422781E-02 
366	 2.55297730738023E-02 
367	 2.56774691059066E-02 
368	 2.61278706940905E-02 
369	 2.64936731025375E-02 
370	 2.66068298620975E-02 
371	 2.64651683975084E-02 
372	 2.62732840317101E-02 
373	 2.62461596777369E-02 
374	 2.62419373903163E-02 
375	 2.59983557080235E-02 
376	 2.58031368180961E-02 
377	 2.60885779008915E-02 
378	 2.66669339358087E-02 
379	 2.66454503573927E-02 
380	 2.66291966242205E-02 
381	 2.68867364251868E-02 
382	 2.73916779976752E-02 
383	 2.75799208376483E-02 
384	 2.75038766477437E-02 
385	 0.027319880631434 
386	 2.72496074592861E-02 
387	 2.74763154121526E-02 
388	 2.76380061426016E-02 
389	 2.76361428809677E-02 
390	 2.76932339580773E-02 
391	 2.79458774091003E-02 
392	 2.82764806523843E-02 
393	 2.85165633259693E-02 
394	 2.84813199311497E-02 
395	 0.028468669851499 
396	 2.86084361481844E-02 
397	 2.88612176619447E-02 
398	 2.87277324037127E-02 
399	 2.86494983561127E-02 
400	 2.87734957875443E-02 
401	 0.028942516340963 
402	 2.88423150119921E-02 
403	 2.88187421716826E-02 
404	 2.91079510154937E-02 
405	 2.95872853656299E-02 
406	 2.97218378237259E-02 
407	 2.96836968546249E-02 
408	 2.98412955105258E-02 
409	 3.01203125965589E-02 
410	 3.02324818174609E-02 
411	 3.01393281326527E-02 
412	 3.00505585862499E-02 
413	 3.03463271525047E-02 
414	 3.05161091250205E-02 
415	 3.03599094958515E-02 
416	 0.030625100815884 
417	 3.08309955890916E-02 
418	 3.09330890221817E-02 
419	 3.10288446984673E-02 
420	 3.11408288777673E-02 
421	 3.13574074452183E-02 
422	 3.15575395821581E-02 
423	 3.14737243316264E-02 
424	 3.15301620701914E-02 
425	 0.031612444305652 
426	 3.16484743868384E-02 
427	 3.18555436327306E-02 
428	 3.22202740216633E-02 
429	 3.25312627832469E-02 
430	 3.25873656676012E-02 
431	 3.26168390687218E-02 
432	 3.27715560013899E-02 
433	 3.29413470104574E-02 
434	 3.28364154491798E-02 
435	 3.29288405955248E-02 
436	 3.31511654895174E-02 
437	 3.33486498609237E-02 
438	 3.33485273682371E-02 
439	 3.35926960923002E-02 
440	 0.03381148391108 
441	 0.033657344234349 
442	 3.38235068664307E-02 
443	 3.39853988578463E-02 
444	 3.40414014127639E-02 
445	 3.41530095703984E-02 
446	 3.42503440761461E-02 
447	 3.43196333960953E-02 
448	 3.43859555307698E-02 
449	 0.034553591018054 
450	 3.46909352691124E-02 
451	 3.47376283973454E-02 
452	 3.47222160113808E-02 
453	 3.50258831994121E-02 
454	 3.51866702789771E-02 
455	 3.51577027383607E-02 
456	 3.54403348065467E-02 
457	 3.56529770778996E-02 
458	 3.57101155944112E-02 
459	 3.56639780755843E-02 
460	 3.57551569631914E-02 
461	 3.58403523965588E-02 
462	 3.59010169487052E-02 
463	 3.59830587583646E-02 
464	 0.036053040213104 
465	 3.62082961783426E-02 
466	 3.64293401253068E-02 
467	 3.65076017786731E-02 
468	 3.65359206108493E-02 
469	 0.036609729232909 
470	 3.67690180440064E-02 
471	 3.68465223163776E-02 
472	 0.036843811310926 
473	 3.68614589539853E-02 
474	 0.037041350926708 
475	 3.71813370481768E-02 
476	 3.72697298274003E-02 
477	 0.037345981820092 
478	 3.74940273880934E-02 
479	 3.76140854277342E-02 
480	 3.76901167774793E-02 
481	 3.77419234573712E-02 
482	 3.78027156577525E-02 
483	 3.78858829986916E-02 
484	 0.038048465642792 
485	 3.83720441008536E-02 
486	 3.85575917111204E-02 
487	 3.86117135820202E-02 
488	 3.86207867705871E-02 
489	 3.86854878074145E-02 
490	 3.87848383778403E-02 
491	 3.89466601194684E-02 
492	 3.91882874319393E-02 
493	 3.93527622940543E-02 
494	 3.94604076783569E-02 
495	 3.95806514318865E-02 
496	 3.98194794472402E-02 
497	 0.039903115214514 
498	 0.039995510007657 
499	 4.02455155049132E-02 
500	 4.03677357218865E-02 
501	 4.05845840027592E-02 
502	 4.08881964940628E-02 
503	 4.11271724960121E-02 
504	 4.12933499951951E-02 
505	 4.13969057299889E-02 
506	 4.14989040526133E-02 
507	 4.17317524346978E-02 
508	 4.20552710742873E-02 
509	 4.22663160885569E-02 
510	 0.042251153710797 
511	 4.25124352394632E-02 
512	 4.27892622525401E-02 
513	 4.30086066764313E-02 
514	 4.32794917373306E-02 
515	 4.35925885007652E-02 
516	 4.39355037952789E-02 
517	 4.42549310459318E-02 
518	 4.44004349185542E-02 
519	 4.45909476949099E-02 
520	 4.47917019748641E-02 
521	 4.49189190087521E-02 
522	 4.52536212474596E-02 
523	 4.55215695253244E-02 
524	 4.56287013881091E-02 
525	 4.57208468692597E-02 
526	 4.61612804214995E-02 
527	 4.66291861406403E-02 
528	 4.68192895965822E-02 
529	 4.69938489330329E-02 
530	 4.71370010723927E-02 
531	 0.047316064244213 
532	 4.76254384346207E-02 
533	 4.79911940149398E-02 
534	 4.83481094878442E-02 
535	 4.86082042757234E-02 
536	 4.86305428644529E-02 
537	 4.88607897414065E-02 
538	 4.91981484963643E-02 
539	 4.94402446745843E-02 
540	 4.97787644781213E-02 
541	 0.050195147684955 
542	 5.05550129981846E-02 
543	 5.06723018630755E-02 
544	 5.10465508890211E-02 
545	 5.15022792000755E-02 
546	 5.18679789211937E-02 
547	 5.22469707929178E-02 
548	 5.26701494665506E-02 
549	 5.30867998860031E-02 
550	 5.34326142658457E-02 
551	 5.38030160835724E-02 
552	 5.42700728531666E-02 
553	 5.47405315764688E-02 
554	 5.49339526590943E-02 
555	 5.52356436432634E-02 
556	 5.56505592694684E-02 
557	 5.60989242623524E-02 
558	 5.65554371354427E-02 
559	 5.70132942889543E-02 
560	 5.74702467985589E-02 
561	 5.79352672709156E-02 
562	 5.84416761360775E-02 
563	 5.90095801821215E-02 
564	 5.96427519007094E-02 
565	 6.03219714581721E-02 
566	 6.09623598128433E-02 
567	 6.15811629395696E-02 
568	 6.22210116763129E-02 
569	 6.28539122769771E-02 
570	 6.34661502789325E-02 
571	 6.40386910616489E-02 
572	 0.064549032120456 
573	 6.49357482468798E-02 
574	 6.53104910966346E-02 
575	 6.57386194815908E-02 
576	 6.60808047057854E-02 
577	 6.63526587506911E-02 
578	 6.67092865620541E-02 
579	 0.067310279273406 
580	 6.77957275554774E-02 
581	 6.83305602617306E-02 
582	 6.89780456047915E-02 
583	 6.96085300887511E-02 
584	 7.01556586085487E-02 
585	 7.06817987623498E-02 
586	 7.12417925072527E-02 
587	 7.17071073537954E-02 
588	 7.22536330609862E-02 
589	 7.28084311847838E-02 
590	 0.073131576076236 
591	 7.35033026681252E-02 
592	 7.38997049390049E-02 
593	 7.42981968981816E-02 
594	 7.47466334854706E-02 
595	 7.51520977161647E-02 
596	 7.54714701814408E-02 
597	 7.57162568572958E-02 
598	 7.60541498050007E-02 
599	 7.62875102979208E-02 
600	 7.64420753003422E-02 
601	 7.67674861176574E-02 
602	 7.70191320798814E-02 
603	 7.71843829313695E-02 
604	 7.73226015892844E-02 
605	 7.75486951277398E-02 
606	 7.77948863023755E-02 
607	 7.80319296834649E-02 
608	 7.82655959495995E-02 
609	 7.86368896366771E-02 
610	 7.90032670157821E-02 
611	 7.93126668965598E-02 
612	 7.96804371248428E-02 
613	 8.00355567818212E-02 
614	 8.02741035723968E-02 
615	 8.03766338692249E-02 
616	 8.06657430308641E-02 
617	 8.09299575612441E-02 
618	 8.10898140279014E-02 
619	 0.081192234704142 
620	 0.081439316035311 
621	 8.17207661419198E-02 
622	 8.19360716377762E-02 
623	 8.20847275711414E-02 
624	 8.22384372240361E-02 
625	 8.24081373335654E-02 
626	 8.25875966355194E-02 
627	 0.082813932471204 
628	 8.30759221507398E-02 
629	 8.33177195432415E-02 
630	 8.34503202274999E-02 
631	 8.36308478040489E-02 
632	 8.37439282430501E-02 
633	 8.37603025723131E-02 
634	 8.40097924506246E-02 
635	 8.42794772886287E-02 
636	 8.44734932551371E-02 
637	 8.45700439151565E-02 
638	 8.46903995595822E-02 
639	 8.48237164991817E-02 
640	 8.49717863567509E-02 
641	 8.51619120452915E-02 
642	 8.52671500065422E-02 
643	 8.53245330921075E-02 
644	 0.085414187879163 
645	 8.56124270218438E-02 
646	 8.57401923420562E-02 
647	 0.085825289978017 
648	 8.60131866341534E-02 
649	 8.62241954117034E-02 
650	 8.63869577352756E-02 
651	 8.64879228442308E-02 
652	 8.66099648260347E-02 
653	 8.67476472730372E-02 
654	 8.68666517765812E-02 
655	 8.69720083282674E-02 
656	 8.72866096949427E-02 
657	 8.75476352726064E-02 
658	 8.76783417680392E-02 
659	 8.78184732786004E-02 
660	 8.80153398444024E-02 
661	 8.80898772756861E-02 
662	 8.80534123496807E-02 
663	 8.83692998319381E-02 
664	 8.85830235750049E-02 
665	 8.86130602686797E-02 
666	 8.85861115046583E-02 
667	 8.89393840859356E-02 
668	 8.91709545801885E-02 
669	 0.089213334442556 
670	 0.089419533351806 
671	 8.95165218481141E-02 
672	 8.96691920049824E-02 
673	 8.99542455612277E-02 
674	 9.00716689381203E-02 
675	 9.01878956100613E-02 
676	 9.03889033327347E-02 
677	 0.090679037205298 
678	 9.07628880515462E-02 
679	 9.09406946374678E-02 
680	 9.12235277628537E-02 
681	 9.13025499826248E-02 
682	 9.15378861328719E-02 
683	 9.18214455937125E-02 
684	 9.20451210971001E-02 
685	 9.23573503136371E-02 
686	 9.26260992659972E-02 
687	 0.092920308587531 
688	 9.33433225070264E-02 
689	 9.37128364332842E-02 
690	 9.40127068938179E-02 
691	 9.42760734797863E-02 
692	 9.45388150139819E-02 
693	 9.49802232961656E-02 
694	 9.54316445707838E-02 
695	 9.57655911123374E-02 
696	 0.096201398124489 
697	 0.096536789440534 
698	 9.68624824642576E-02 
699	 9.73440253647465E-02 
700	 9.76978067529159E-02 
701	 9.80080048677888E-02 
702	 9.83612815378906E-02 
703	 9.87967673830698E-02 
704	 9.90055245990521E-02 
705	 9.91831109568802E-02 
706	 9.95032004497058E-02 
707	 9.97576491466957E-02 
708	 0.100097895426374 
709	 0.100461944182882 
710	 0.100726030430559 
711	 0.10110187603635 
712	 0.101398076633104 
713	 0.101591225952184 
714	 0.101882977213708 
715	 0.102174160332815 
716	 0.102467948168193 
717	 0.102793521676271 
718	 0.103180180754568 
719	 0.103461664947172 
720	 0.103686882715953 
721	 0.103990853242434 
722	 0.10423452599667 
723	 0.10451100990881 
724	 0.104836930662647 
725	 0.105098921141586 
726	 0.105317859312133 
727	 0.10556444122065 
728	 0.105869551496156 
729	 0.106122258284461 
730	 0.106383081976882 
731	 0.106613825304746 
732	 0.106766910783885 
733	 0.106916109921112 
734	 0.10714730697486 
735	 0.107403576632793 
736	 0.107520645774909 
737	 0.107853416377968 
738	 0.108178170721328 
739	 0.108324634971581 
740	 0.108424387218921 
741	 0.108551472973435 
742	 0.108761363569802 
743	 0.109043048835636 
744	 0.109171932838204 
745	 0.109429116417161 
746	 0.10971813871396 
747	 0.109697893865727 
748	 0.109800804576169 
749	 0.11002528237005 
750	 0.110300604351981 
751	 0.110552356911713 
752	 0.110671154957532 
753	 0.110805778801255 
754	 0.111077354408867 
755	 0.111246207896963 
756	 0.111315187365899 
757	 0.11133817201583 
758	 0.111437214512464 
759	 0.112049849458329 
760	 0.112879697485135 
761	 0.113435711733864 
762	 0.11328127374494 
763	 0.113470707277537 
764	 0.113642834460691 
765	 0.113488165677857 
766	 0.113313814184299 
767	 0.113332600557971 
768	 0.113447139544639 
769	 0.113523987894405 
770	 0.113709832822827 
771	 0.113872936797416 
772	 0.114016790235561 
773	 0.114251620379616 
774	 0.114409799761494 
775	 0.114543165010894 
776	 0.114697666260302 
777	 0.114850470969626 
778	 0.11502678280798 
779	 0.11524870499523 
780	 0.115489159947353 
781	 0.115566312680504 
782	 0.115650746659687 
783	 0.115856120716443 
784	 0.116191605359237 
785	 0.116237284681531 
786	 0.116313303832913 
787	 0.116529279721747 
788	 0.116704008792084 
789	 0.116922785024699 
790	 0.117096445084922 
791	 0.117214936507912 
792	 0.117498847980039 
793	 0.117730426120916 
794	 0.117861020179796 
795	 0.117946532590902 
796	 0.118204090852583 
797	 0.118452913685588 
798	 0.11859054339241 
799	 0.118610129166216 
800	 0.11875348471718 
801	 0.118989030024196 
802	 0.119198431872952 
803	 0.119233110783661 
804	 0.119608842080301 
805	 0.119960689776147 
806	 0.120025698086043 
807	 0.120108426067335 
808	 0.12023152867541 
809	 0.120350257690344 
810	 0.120441274989768 
811	 0.120697078649674 
812	 0.120923546434547 
813	 0.121174622148998 
814	 0.121599348950175 
815	 0.121855731466362 
816	 0.122132263824801 
817	 0.122405770891261 
818	 0.122417117260068 
819	 0.122598032984134 
820	 0.122654219187322 
821	 0.12256960479928 
822	 0.122982332752115 
823	 0.123465099641381 
824	 0.12362364716708 
825	 0.123365816115177 
826	 0.123349010650313 
827	 0.123852116204307 
828	 0.124416798279486 
829	 0.124432898363328 
830	 0.124501063001644 
831	 0.124705833486981 
832	 0.125005159862999 
833	 0.125267591981215 
834	 0.125371357980804 
835	 0.125415011732578 
836	 0.125528525949528 
837	 0.125823391254964 
838	 0.126105244328819 
839	 0.126300804503378 
840	 0.126420899910929 
841	 0.12658952839961 
842	 0.126622756935555 
843	 0.12679955100077 
844	 0.127259592728082 
845	 0.12724309967895 
846	 0.127343343368762 
847	 0.127616430913762 
848	 0.127862628610028 
849	 0.127952902687333 
850	 0.128153569423127 
851	 0.128451896106581 
852	 0.128656781463359 
853	 0.129100213068701 
854	 0.12966131082467 
855	 0.129900342831941 
856	 0.129244958433446 
857	 0.129158073660374 
858	 0.129670839444035 
859	 0.130304858127564 
860	 0.130235358291684 
861	 0.130474201923919 
862	 0.130794405852665 
863	 0.13089088182719 
864	 0.131028014738034 
865	 0.131741896410132 
866	 0.132387899994628 
867	 0.132245341572121 
868	 0.13206117703226 
869	 0.131967310069733 
870	 0.132192103767855 
871	 0.132800979486582 
872	 0.132992858590647 
873	 0.133169760906204 
874	 0.133441656773187 
875	 0.133683615340363 
876	 0.134029120321641 
877	 0.134203449325071 
878	 0.134270744021695 
879	 0.134607443634013 
880	 0.13473219283627 
881	 0.134914391543378 
882	 0.135224573181852 
883	 0.135338489805386 
884	 0.135554840659222 
885	 0.136062317020621 
886	 0.136632179511675 
887	 0.136364700113701 
888	 0.136656439649961 
889	 0.137009632429729 
890	 0.136895697899902 
891	 0.136971528094017 
892	 0.137379439285764 
893	 0.137862971037945 
894	 0.138136043279834 
895	 0.138375886964828 
896	 0.138757016397729 
897	 0.139244356067296 
898	 0.139689459531684 
899	 0.140006885908944 
900	 0.140226965281863 
901	 0.140123690954768 
902	 0.139578597373831 
903	 0.139555388261326 
904	 0.139753833028268 
905	 0.140009508645435 
906	 0.140336122977801 
907	 0.141056023741123 
908	 0.141591473908547 
909	 0.141729248973126 
910	 0.14170365625 
911	 0.142045313309899 
912	 0.142210916741624 
913	 0.142266799888611 
914	 0.142867395647946 
915	 0.143383059583826 
916	 0.143320164040672 
917	 0.14299126132068 
918	 0.143395820763146 
919	 0.143142864559192 
920	 0.142999678544313 
921	 0.143480248981339 
922	 0.144287953584056 
923	 0.144313062955861 
924	 0.144365509541312 
925	 0.144683332221774 
926	 0.144131443138611 
927	 0.144224565260884 
928	 0.145094637000181 
929	 0.146175583047408 
930	 0.146258301225127 
931	 0.147813318799825 
932	 0.149597061947668 
933	 0.150140491025418 
934	 0.150230254125875 
935	 0.151382370759413 
936	 0.15121023801721 
937	 0.148709981096345 
938	 0.147326661471255 
939	 0.145786238257493 
940	 0.145493992195274 
941	 0.146916439571879 
942	 0.147899856571291 
943	 0.150613920342117 
944	 0.15190343988379 
945	 0.150106407670148 
946	 0.149586061818515 
947	 0.14899349948231 
948	 0.148790264743134 
949	 0.14947442769871 
950	 0.150815845280058 
951	 0.151511423592873 
952	 0.15117372076686 
953	 0.150701602936241 
954	 0.152782507522009 
955	 0.153201324694299 
956	 0.152643997405701 
957	 0.152467673052119 
958	 0.152696345682306 
959	 0.151381826793765 
960	 0.151459176105203 
961	 0.153876115696112 
962	 0.154155905661493 
963	 0.153963813237474 
964	 0.153577858695616 
965	 0.153208751340048 
966	 0.153318631913808 
967	 0.154080424250849 
968	 0.153400814959925 
969	 0.151574722737037 
970	 0.152882240473721 
971	 0.154394216237716 
972	 0.155063032255958 
973	 0.155227725354007 
974	 0.156479699871701 
975	 0.156669649374807 
976	 0.156566312806561 
977	 0.15673301607367 
978	 0.156757097131135 
979	 0.156829987941802 
980	 0.156703650027056 
981	 0.156279080826549 
982	 0.155793755630496 
983	 0.15646872790187 
984	 0.156681151998468 
985	 0.15622277924794 
986	 0.156382981061052 
987	 0.156597872062292 
988	 0.156452478536429 
989	 0.156557236784007 
990	 0.157829859759322 
991	 0.158292651393573 
992	 0.158116147749972 
993	 0.157701736021401 
994	 0.157522256670294 
995	 0.158011041754569 
996	 0.159308721326065 
997	 0.159520282475895 
998	 0.157542104807124 
999	 0.159332279368667 
1000	 0.159610914208762 
1001	 0.173324172841697 
1002	 0.173594947466785 
1003	 0.173798826475883 
1004	 0.174045298221024 
1005	 0.174238159435721 
1006	 0.174271972310893 
1007	 0.174374156792293 
1008	 0.174394562972256 
1009	 0.174596781376717 
1010	 0.174851324965634 
1011	 0.175320547874277 
1012	 0.175714637064301 
1013	 0.175965743438092 
1014	 0.175994692454307 
1015	 0.176007835448338 
1016	 0.176126291259661 
1017	 0.176332553835703 
1018	 0.176590214605839 
1019	 0.177034566996565 
1020	 0.177225485426205 
1021	 0.177299642173545 
1022	 0.177488431319067 
1023	 0.177571857583399 
1024	 0.17782813867857 
1025	 0.1782239197908 
1026	 0.178452493334801 
1027	 0.178683291823512 
1028	 0.178732991501092 
1029	 0.178713274502278 
1030	 0.17901578993711 
1031	 0.17920596145734 
1032	 0.179295441280249 
1033	 0.179467402143424 
1034	 0.17968438303402 
1035	 0.179772444496745 
1036	 0.179858060355055 
1037	 0.179921732252871 
1038	 0.179897336696991 
1039	 0.179835693324037 
1040	 0.179960122959256 
1041	 0.180246566580674 
1042	 0.180407979832362 
1043	 0.180546096078684 
1044	 0.180605691509518 
1045	 0.180619092179183 
1046	 0.180786335704194 
1047	 0.1809147715449 
1048	 0.181054981957259 
1049	 0.181293358818732 
1050	 0.181496944710137 
1051	 0.18171289939857 
1052	 0.181909468642962 
1053	 0.182010177201035 
1054	 0.182070545495146 
1055	 0.182257007163302 
1056	 0.182511590492696 
1057	 0.182775854339412 
1058	 0.183047107480356 
1059	 0.183215967764134 
1060	 0.183427048984998 
1061	 0.183903560581605 
1062	 0.184333627740516 
1063	 0.184573645076104 
1064	 0.184872962160967 
1065	 0.185120060285432 
1066	 0.185237952929373 
1067	 0.185399667319051 
1068	 0.185717702069942 
1069	 0.185911440147277 
1070	 0.186129780277572 
1071	 0.186444291362343 
1072	 0.186675575745734 
1073	 0.186959067534101 
1074	 0.187332091176693 
1075	 0.187598701529881 
1076	 0.187876455713343 
1077	 0.188222702848741 
1078	 0.188523655290726 
1079	 0.188767059986157 
1080	 0.189087856955619 
1081	 0.189411868290289 
1082	 0.189756710584436 
1083	 0.190009656382487 
1084	 0.190287796261715 
1085	 0.190503270747254 
1086	 0.190748705486056 
1087	 0.191108459704092 
1088	 0.191411510883082 
1089	 0.191737219647266 
1090	 0.192051033771482 
1091	 0.192197019657019 
1092	 0.192342288960711 
1093	 0.192625326221002 
1094	 0.192872455467444 
1095	 0.193150180642543 
1096	 0.193462863023935 
1097	 0.193893141564987 
1098	 0.194197497972964 
1099	 0.194485080595877 
1100	 0.194700900634481 
1101	 0.194859862752928 
1102	 0.195053496671274 
1103	 0.195130594411545 
1104	 0.19533880802106 
1105	 0.195685661051675 
1106	 0.195889177803711 
1107	 0.19614700252599 
1108	 0.19645843501852 
1109	 0.196696483000022 
1110	 0.19704039862164 
1111	 0.197340612046811 
1112	 0.197686773757053 
1113	 0.197994665675484 
1114	 0.19821480119534 
1115	 0.19849899604556 
1116	 0.198826201787501 
1117	 0.199267511340835 
1118	 0.199561037686837 
1119	 0.199838489204374 
1120	 0.200196336670281 
1121	 0.200459391019348 
1122	 0.200721874467749 
1123	 0.200938242299034 
1124	 0.200889198060446 
1125	 0.201011808659288 
1126	 0.201156725678853 
1127	 0.201347287521652 
1128	 0.201371921867675 
1129	 0.201388791996602 
1130	 0.20139028621856 
1131	 0.201220138768474 
1132	 0.201226745341635 
1133	 0.20142457094967 
1134	 0.201426894544191 
1135	 0.201369838915942 
1136	 0.201351379469418 
1137	 0.201285863219209 
1138	 0.201247364600862 
1139	 0.201275789980345 
1140	 0.201336247258971 
1141	 0.201124170236179 
1142	 0.200753288148967 
1143	 0.200616757922736 
1144	 0.200442831103435 
1145	 0.200335859415452 
1146	 0.200515489345782 
1147	 0.200484761861112 
1148	 0.200253217176741 
1149	 0.200139033934319 
1150	 0.200124296901117 
1151	 0.199990283381292 
1152	 0.199838756558198 
1153	 0.199670691185563 
1154	 0.199420505646665 
1155	 0.199210336739591 
1156	 0.199133120899507 
1157	 0.199116077568301 
1158	 0.199009784472798 
1159	 0.19898464872115 
1160	 0.198941761309123 
1161	 0.19889682011289 
1162	 0.198783353004014 
1163	 0.198629590612942 
1164	 0.198548522750147 
1165	 0.198476005553852 
1166	 0.198366943819701 
1167	 0.198328753490614 
1168	 0.198205384964418 
1169	 0.197983655904693 
1170	 0.197751476220337 
1171	 0.197593896426583 
1172	 0.197448658178461 
1173	 0.197345243979605 
1174	 0.197273179985524 
1175	 0.197168554799879 
1176	 0.197095113134597 
1177	 0.196987640579218 
1178	 0.196867604719232 
1179	 0.196742468612305 
1180	 0.196606412695064 
1181	 0.196445853439415 
1182	 0.196280093960021 
1183	 0.196078039207766 
1184	 0.195838304345801 
1185	 0.195606169211772 
1186	 0.195285878775061 
1187	 0.19511791050389 
1188	 0.194987432475973 
1189	 0.194917008665779 
1190	 0.195042581710721 
1191	 0.195106879917746 
1192	 0.195202197369035 
1193	 0.195320441456243 
1194	 0.195369151715989 
1195	 0.195347593834875 
1196	 0.195451866458621 
1197	 0.195535889422064 
1198	 0.19571128262925 
1199	 0.196077954514531 
1200	 0.196264423573637 
1201	 0.196391720258246 
1202	 0.196540136459013 
1203	 0.196565571866813 
1204	 0.196707892355585 
1205	 0.197061033903211 
1206	 0.197190166602382 
1207	 0.197115150549072 
1208	 0.197229584465278 
1209	 0.197350901778251 
1210	 0.197410780500153 
1211	 0.197638743799064 
1212	 0.197961731180667 
1213	 0.198187279687349 
1214	 0.198300109515344 
1215	 0.19854722569236 
1216	 0.198853857619848 
1217	 0.199171737501838 
1218	 0.199527102274419 
1219	 0.199898229005775 
1220	 0.200288910907229 
1221	 0.200705832861532 
1222	 0.201182780947709 
1223	 0.201619696633228 
1224	 0.202039725336654 
1225	 0.202492740875785 
1226	 0.202936305260402 
1227	 0.203401484583666 
1228	 0.203885665641233 
1229	 0.20441990964707 
1230	 0.204952409837214 
1231	 0.205467454640704 
1232	 0.205933713406486 
1233	 0.206414895930182 
1234	 0.20679093792801 
1235	 0.207051783319978 
1236	 0.20740101477452 
1237	 0.207710958555464 
1238	 0.208075134511358 
1239	 0.208519733838232 
1240	 0.208915337104163 
1241	 0.209329075957752 
1242	 0.20968337855799 
1243	 0.210019931374614 
1244	 0.21031159536998 
1245	 0.210503057842419 
1246	 0.210764736411185 
1247	 0.211011655911872 
1248	 0.211296232152801 
1249	 0.211722875751927 
1250	 0.212010324351331 
1251	 0.212245208427193 
1252	 0.212438187797173 
1253	 0.212629502891535 
1254	 0.212713251552108 
1255	 0.212892424082669 
1256	 0.213140778043176 
1257	 0.213336033764278 
1258	 0.213513849751555 
1259	 0.213707332170746 
1260	 0.213908930690591 
1261	 0.214086186088186 
1262	 0.214234676792891 
1263	 0.214425831219626 
1264	 0.214663912455839 
1265	 0.214820650711259 
1266	 0.214962480991356 
1267	 0.215099002535654 
1268	 0.215081833092932 
1269	 0.215206378798467 
1270	 0.215430121427325 
1271	 0.215647205945789 
1272	 0.215907760007682 
1273	 0.216219245871822 
1274	 0.216450796767336 
1275	 0.216654058638763 
1276	 0.216865001512496 
1277	 0.217021122783426 
1278	 0.21727029990839 
1279	 0.217569552660763 
1280	 0.217847285564942 
1281	 0.218178175999896 
1282	 0.218456986364673 
1283	 0.218672757015124 
1284	 0.218958949340919 
1285	 0.219279759229029 
1286	 0.219575269890703 
1287	 0.219873209619296 
1288	 0.220200718233977 
1289	 0.220554530731846 
1290	 0.220863605194643 
1291	 0.221147353842368 
1292	 0.22148750794487 
1293	 0.221795179533586 
1294	 0.222150847407298 
1295	 0.222659924097565 
1296	 0.223075654224819 
1297	 0.223450145045961 
1298	 0.22381414059194 
1299	 0.224096040993794 
1300	 0.22426736780763 
1301	 0.224528300470718 
1302	 0.224754851051527 
1303	 0.22504630353651 
1304	 0.225413251675855 
1305	 0.225738355052754 
1306	 0.226131181830905 
1307	 0.226383296652647 
1308	 0.226526197600977 
1309	 0.226738731582035 
1310	 0.22690528269082 
1311	 0.22706706312934 
1312	 0.227279750719544 
1313	 0.22745850621631 
1314	 0.227531446924401 
1315	 0.227687448377852 
1316	 0.22798521112904 
1317	 0.228142306540294 
1318	 0.228240804893799 
1319	 0.22833562106577 
1320	 0.228350827189124 
1321	 0.228289634493398 
1322	 0.228394786399708 
1323	 0.228610617756948 
1324	 0.228729521716957 
1325	 0.228936779216224 
1326	 0.228969865707331 
1327	 0.228827402423355 
1328	 0.228824000873264 
1329	 0.228775887448647 
1330	 0.228813520595359 
1331	 0.229002510349703 
1332	 0.229056106816441 
1333	 0.229111740091606 
1334	 0.229076211596606 
1335	 0.228901864696415 
1336	 0.228801110216232 
1337	 0.228627958089771 
1338	 0.228539586624012 
1339	 0.228536298318378 
1340	 0.228509065196643 
1341	 0.228550482089741 
1342	 0.2285282909252 
1343	 0.228431584535293 
1344	 0.228373120261217 
1345	 0.228141941091625 
1346	 0.228142012799086 
1347	 0.228398093193656 
1348	 0.228654173307025 
1349	 0.228955588476268 
1350	 0.229686590077865 
1351	 0.229949710056646 
1352	 0.229606225827148 
1353	 0.229721990774576 
1354	 0.229508893121621 
1355	 0.229761530257391 
1356	 0.231401853345171 
1357	 0.231930741113507 
1358	 0.230249448098153 
1359	 0.23001418287284 
1360	 0.228962654076827 
1361	 0.229353212772766 
1362	 0.240942582857628 
1363	 0.243220897984901 
1364	 0.221234627506271 
1365	 0.222463002746802 
1366	 0.240382580134422 
1367	 0.238477493496293 
1368	 0.240966221262834 
1369	 0.240747976576136 
1370	 0.226663369366834 
1371	 0.221842109799503 
1372	 0.225879082211153 
1373	 0.224993497018301 
1374	 0.22124062682375 
1375	 0.217256705375762 
1376	 0.218834266208012 
1377	 0.220727724996846 
1378	 0.222312310962491 
1379	 0.229553715194623 
1380	 0.227336896039234 
1381	 0.217650489289967 
1382	 0.214985252733008 
1383	 0.210554300813435 
1384	 0.210327233374106 
1385	 0.218197602062958 
1386	 0.216483146728275 
1387	 0.211079413485582 
1388	 0.208274609799946 
1389	 0.201557681420895 
1390	 0.200913800242092 
1391	 0.205639221641881 
1392	 0.205536277798838 
1393	 0.206177173458053 
1394	 0.204584222603126 
1395	 0.199618083635244 
1396	 0.196486773965093 
1397	 0.192056586179755 
1398	 0.190784066338343 
1399	 0.191404289809756 
1400	 0.191453652591228 
1401	 0.193942804251565 
1402	 0.19438214538864 
1403	 0.194099414567772 
1404	 0.192680060398178 
1405	 0.189939865225349 
1406	 0.187749224316554 
1407	 0.186055677203651 
1408	 0.184484325757854 
1409	 0.18420726795733 
1410	 0.184146343216038 
1411	 0.183419076157693 
1412	 0.182704277373877 
1413	 0.181520832704453 
1414	 0.179608372806789 
1415	 0.179097583036217 
1416	 0.17889420487168 
1417	 0.178587337664013 
1418	 0.17890573694801 
1419	 0.178758657462042 
1420	 0.178094375455717 
1421	 0.177989948648593 
1422	 0.17837128620722 
1423	 0.178097837976591 
1424	 0.177726032071649 
1425	 0.177254875273908 
1426	 0.176136027578174 
1427	 0.175817702168489 
1428	 0.175810096558392 
1429	 0.175851439669145 
1430	 0.17643533297487 
1431	 0.176559537791196 
1432	 0.176578013178492 
1433	 0.176463169461609 
1434	 0.175931838121668 
1435	 0.175699226236636 
1436	 0.175520614450291 
1437	 0.175422035929578 
1438	 0.175508475702201 
1439	 0.175581315744758 
1440	 0.175721246977102 
1441	 0.175775313069938 
1442	 0.175750403140989 
1443	 0.175824848781423 
1444	 0.175850662667576 
1445	 0.175798208717153 
1446	 0.176195540418839 
1447	 0.176526486387513 
1448	 0.176637195461532 
1449	 0.1767821241071 
1450	 0.176814317673547 
1451	 0.176579850972592 
1452	 0.176613727368778 
1453	 0.176733118595244 
1454	 0.176892535038879 
1455	 0.1771514206372 
1456	 0.177250431955896 
1457	 0.177299128674137 
1458	 0.177489648805553 
1459	 0.177656576025342 
1460	 0.17787132912027 
1461	 0.17826515099849 
1462	 0.17857665790333 
1463	 0.178819120607977 
1464	 0.179134664731814 
1465	 0.179522230982722 
1466	 0.179925289700492 
1467	 0.180345303337985 
1468	 0.180777228325847 
1469	 0.18126150229954 
1470	 0.181719184879041 
1471	 0.182174131298718 
1472	 0.182521210178039 
1473	 0.182727645739219 
1474	 0.183040302077188 
1475	 0.183260363920675 
1476	 0.183606833692301 
1477	 0.184081628249137 
1478	 0.184527797706167 
1479	 0.185032347969001 
1480	 0.185455213744861 
1481	 0.185827643100518 
1482	 0.186221594120379 
1483	 0.186533602626064 
1484	 0.186929883952786 
1485	 0.187423387527026 
1486	 0.187841977714016 
1487	 0.188242380215567 
1488	 0.188627717647225 
1489	 0.189018506269263 
1490	 0.189404914460706 
1491	 0.18978592258032 
1492	 0.19017891446767 
1493	 0.190626561183532 
1494	 0.191051155159425 
1495	 0.191405005576762 
1496	 0.191721787155981 
1497	 0.192190104481251 
1498	 0.192642515837855 
1499	 0.193154557091514 
1500	 0.19387412969838 
1501	 0.194400180479819 
1502	 0.194825901159712 
1503	 0.195284185202822 
1504	 0.195729111212209 
1505	 0.196160920932119 
1506	 0.196529234285063 
1507	 0.197019035996003 
1508	 0.197564664972555 
1509	 0.19807382780013 
1510	 0.19868740267242 
1511	 0.199136448073401 
1512	 0.199468974380676 
1513	 0.199858390586258 
1514	 0.200176348270686 
1515	 0.200590939177701 
1516	 0.201108217149943 
1517	 0.20152229045191 
1518	 0.201915061884717 
1519	 0.202332671300517 
1520	 0.20268389897871 
1521	 0.203110336437423 
1522	 0.20363497396554 
1523	 0.204086537214022 
1524	 0.204533855817692 
1525	 0.204953457621007 
1526	 0.205337671567941 
1527	 0.20572853983082 
1528	 0.206132035074589 
1529	 0.206482218887042 
1530	 0.20673692612323 
1531	 0.207108334478372 
1532	 0.207547185866043 
1533	 0.207917425422905 
1534	 0.208403182457313 
1535	 0.208735065313858 
1536	 0.208823529130951 
1537	 0.209091541889652 
1538	 0.209413366103666 
1539	 0.209708604861912 
1540	 0.210091246005542 
1541	 0.210432373155987 
1542	 0.21071564879237 
1543	 0.211009251048105 
1544	 0.21132462516088 
1545	 0.211624505623355 
1546	 0.211883855671719 
1547	 0.212170523271054 
1548	 0.212431564404412 
1549	 0.21276700541718 
1550	 0.21322966206952 
1551	 0.213576382931842 
1552	 0.213960696669886 
1553	 0.214247544168304 
1554	 0.214325651720159 
1555	 0.214504875611663 
1556	 0.214648615306515 
1557	 0.214881620771357 
1558	 0.215264959038316 
1559	 0.215576475807075 
1560	 0.215967363713721 
1561	 0.216242641235454 
1562	 0.216317719445692 
1563	 0.216516809625673 
1564	 0.216756331709672 
1565	 0.216956984687616 
1566	 0.217202715590866 
1567	 0.217508025502268 
1568	 0.217783948864092 
1569	 0.218022633699431 
1570	 0.218250028574315 
1571	 0.218531832514529 
1572	 0.218689276216746 
1573	 0.21868967302786 
1574	 0.218930514704553 
1575	 0.219228586967274 
1576	 0.219516299848355 
1577	 0.2199599327641 
1578	 0.220193041988296 
1579	 0.220309671888292 
1580	 0.220449586725618 
1581	 0.220558188935662 
1582	 0.220607174945009 
1583	 0.220564009735077 
1584	 0.220680720055008 
1585	 0.22078204718844 
1586	 0.220990381363138 
1587	 0.221406334889844 
1588	 0.221578647916447 
1589	 0.221666831032359 
1590	 0.221800811199897 
1591	 0.221828895774836 
1592	 0.221995673098622 
1593	 0.222268909114507 
1594	 0.22247194329123 
1595	 0.222700742731548 
1596	 0.222871473797945 
1597	 0.223008188911989 
1598	 0.223134100067961 
1599	 0.223236364109354 
1600	 0.223321163778743 
1601	 0.223366508381547 
1602	 0.223459611962613 
1603	 0.223536436329957 
1604	 0.223674346852922 
1605	 0.223898326790317 
1606	 0.224008873033594 
1607	 0.224108402163751 
1608	 0.22415920305695 
1609	 0.224118888718444 
1610	 0.224139289094156 
1611	 0.224168805457454 
1612	 0.224197415743598 
1613	 0.224228683589011 
1614	 0.224267721819867 
1615	 0.224326594997478 
1616	 0.224339202862953 
1617	 0.224338983938667 
1618	 0.224323084648515 
1619	 0.224263550175742 
1620	 0.224237228443962 
1621	 0.224200470700989 
1622	 0.224228735798633 
1623	 0.224342993758913 
1624	 0.224300080020775 
1625	 0.2242527449611 
1626	 0.224126814688606 
1627	 0.223805621797827 
1628	 0.223694552118487 
1629	 0.223642747873131 
1630	 0.223607464577716 
1631	 0.223663739408665 
1632	 0.223677498704553 
1633	 0.223703725399649 
1634	 0.223708642482243 
1635	 0.223709283239626 
1636	 0.223699299816133 
1637	 0.223657967851973 
1638	 0.223633759486192 
1639	 0.223608996050177 
1640	 0.223629275187223 
1641	 0.223592717211928 
1642	 0.223790596000327 
1643	 0.224184195174358 
1644	 0.224397020475209 
1645	 0.224726256652822 
1646	 0.224844399391564 
1647	 0.224721677169008 
1648	 0.224768157508435 
1649	 0.224844436229451 
1650	 0.224884212679833 
1651	 0.224953934733923 
1652	 0.224979933367273 
1653	 0.224982117448889 
1654	 0.22490524701844 
1655	 0.224766591064084 
1656	 0.224697509594655 
1657	 0.224585927018413 
1658	 0.224549980869251 
1659	 0.224466454946725 
1660	 0.224308364668852 
1661	 0.224201320406547 
1662	 0.224066096999859 
1663	 0.223992759588495 
1664	 0.223801685083124 
1665	 0.223508933913442 
1666	 0.223377100679314 
1667	 0.223168123416675 
1668	 0.222915387655301 
1669	 0.222727657549261 
1670	 0.222445114002882 
1671	 0.221999720057707 
1672	 0.221515033941566 
1673	 0.221016488337836 
1674	 0.220327052245534 
1675	 0.21966461899311 
1676	 0.219001914234066 
1677	 0.218180602906263 
1678	 0.217456078708745 
1679	 0.216546738495527 
1680	 0.215519925706906 
1681	 0.2145641109405 
1682	 0.213287518279477 
1683	 0.21193134628247 
1684	 0.210510411003894 
1685	 0.208949282674028 
1686	 0.207428123488955 
1687	 0.206031055885585 
1688	 0.204885750227663 
1689	 0.203832205473211 
1690	 0.20273500837435 
1691	 0.201714789903063 
1692	 0.200596235996513 
1693	 0.199653569106398 
1694	 0.198940231053381 
1695	 0.198236793520517 
1696	 0.197540165083814 
1697	 0.197002000761053 
1698	 0.196648820012109 
1699	 0.19623060610234 
1700	 0.19586161180432 
1701	 0.195526179098887 
1702	 0.195197628825157 
1703	 0.194873799630834 
1704	 0.194628994195995 
1705	 0.194401461274046 
1706	 0.194159842545902 
1707	 0.193914679582414 
1708	 0.193614412198827 
1709	 0.193491508986349 
1710	 0.193431260563317 
1711	 0.19335311405756 
1712	 0.193504358376731 
1713	 0.193502891350589 
1714	 0.193454657315615 
1715	 0.193288101427255 
1716	 0.192976039254277 
1717	 0.192738416496828 
1718	 0.192415079633438 
1719	 0.19214034111833 
1720	 0.191955591010213 
1721	 0.191715465207478 
1722	 0.191370441518568 
1723	 0.191113635617376 
1724	 0.190961286523615 
1725	 0.190727563482129 
1726	 0.190412306585303 
1727	 0.19027853603416 
1728	 0.190197862661035 
1729	 0.190111971443052 
1730	 0.190106785609646 
1731	 0.190214555843138 
1732	 0.190333088129715 
1733	 0.190518488982221 
1734	 0.190716244842417 
1735	 0.190869964315734 
1736	 0.19105264128988 
1737	 0.191299307403192 
1738	 0.191653820235111 
1739	 0.191976390990305 
1740	 0.192265226885023 
1741	 0.192679553147408 
1742	 0.19307044616863 
1743	 0.193247448059817 
1744	 0.193546751510307 
1745	 0.193879290834222 
1746	 0.193862962492615 
1747	 0.194040834136028 
1748	 0.19430822409262 
1749	 0.194214879457048 
1750	 0.194454458725847 
1751	 0.194684137408048 
1752	 0.194452876510391 
1753	 0.194397061801963 
1754	 0.194340204543177 
1755	 0.194216334271562 
1756	 0.194170023532861 
1757	 0.193967867200265 
1758	 0.193821544350643 
1759	 0.193628644013649 
1760	 0.193512995313138 
1761	 0.193539301470597 
1762	 0.193452733530064 
1763	 0.193259545703239 
1764	 0.193190686701684 
1765	 0.193161331760573 
1766	 0.193128024617872 
1767	 0.193170979834612 
1768	 0.19324328988627 
1769	 0.193311906170182 
1770	 0.193269797575034 
1771	 0.193223168093114 
1772	 0.193249088734778 
1773	 0.193150670910546 
1774	 0.193426401462632 
1775	 0.193800463416389 
1776	 0.194352013067443 
1777	 0.194726094431939 
1778	 0.194952345064125 
1779	 0.195274757645455 
1780	 0.195502220585033 
1781	 0.195517318645137 
1782	 0.195430624692817 
1783	 0.19514504036333 
1784	 0.194778355830996 
1785	 0.194941841964163 
1786	 0.194963288799791 
1787	 0.194863932757147 
1788	 0.195067133468902 
1789	 0.194762207843014 
1790	 0.194416753747997 
1791	 0.194495640700522 
1792	 0.1944973337248 
1793	 0.194346010447874 
1794	 0.194620494800321 
1795	 0.194852526468605 
1796	 0.19425542415373 
1797	 0.193885708272479 
1798	 0.193514249922118 
1799	 0.19281089303632 
1800	 0.191894351286475 
1801	 0.203644478973353 
1802	 0.203673925603819 
1803	 0.203729666701892 
1804	 0.204030614939304 
1805	 0.203800811308256 
1806	 0.202139975820531 
1807	 0.201791282331268 
1808	 0.202334983014345 
1809	 0.202162046149681 
1810	 0.202362711037714 
1811	 0.203887115178142 
1812	 0.204104172107244 
1813	 0.202950577432002 
1814	 0.202827366800454 
1815	 0.202169045841509 
1816	 0.202844932032131 
1817	 0.205800860999921 
1818	 0.207495309288259 
1819	 0.209214617398593 
1820	 0.211934988306215 
1821	 0.21332312641732 
1822	 0.212580365796163 
1823	 0.213198954847194 
1824	 0.214302854458193 
1825	 0.214887252714274 
1826	 0.212041103272313 
1827	 0.214189878344057 
1828	 0.219579051390059 
1829	 0.231322114920631 
1830	 0.239574461225227 
1831	 0.260671767331323 
1832	 0.270686356192238 
1833	 0.254677834663666 
1834	 0.250160638612752 
1835	 0.239072639812468 
1836	 0.225154388594576 
1837	 0.197816461466056 
1838	 0.189558113556327 
1839	 0.195288361357891 
1840	 0.216460825374595 
1841	 0.240775314687403 
1842	 0.29472938148469 
1843	 0.31347946083373 
1844	 0.318455312865028 
1845	 0.320736932484119 
1846	 0.318412293945144 
1847	 0.311853464074454 
1848	 0.299227550271708 
1849	 0.263332659405124 
1850	 0.267583087824404 
1851	 0.318089118015259 
1852	 0.289050593780083 
1853	 0.225819698325656 
1854	 0.208524943607935 
1855	 0.16347049170635 
1856	 0.141494035222266 
1857	 0.143411766048526 
1858	 0.176601154239314 
1859	 0.193031048333231 
1860	 0.195846215339061 
1861	 0.201813067292768 
1862	 0.233301677086455 
1863	 0.235460165942209 
1864	 0.193953770057487 
1865	 0.196552596364508 
1866	 0.222740101898553 
1867	 0.235150263334482 
1868	 0.274115414929724 
1869	 0.325217758326928 
1870	 0.346878962938761 
1871	 0.347149467403535 
1872	 0.335799327576904 
1873	 0.323583235454439 
1874	 0.282853896286157 
1875	 0.212255402872001 
1876	 0.191878417974459 
1877	 0.18577534988413 
1878	 0.178514622089901 
1879	 0.180714913524005 
1880	 0.183119017805062 
1881	 0.182838042104491 
1882	 0.17586874998606 
1883	 0.1746367433274 
1884	 0.180017351147267 
1885	 0.178801836618223 
1886	 0.170965343946345 
1887	 0.169989045336465 
1888	 0.176738204419169 
1889	 0.178989859582857 
1890	 0.179873881052933 
1891	 0.185912395323906 
1892	 0.187462277036754 
1893	 0.18078092435581 
1894	 0.178204210788512 
1895	 0.17730915227104 
1896	 0.176935608526851 
1897	 0.174016719260762 
1898	 0.176273693425761 
1899	 0.176611951214087 
1900	 0.183012849770284 
1901	 0.189859830632114 
1902	 0.201816930296948 
1903	 0.20288393406092 
1904	 0.196560109891044 
1905	 0.196836586869851 
1906	 0.202817397347805 
1907	 0.17549595338642 
1908	 0.17583013822792 
1909	 0.180458375570205 
1910	 0.146957738095102 
1911	 0.139045437608353 
1912	 0.127542277528101 
1913	 0.10221222599313 
1914	 0.107070616650232 
1915	 0.12835818234554 
1916	 0.132626339304455 
1917	 0.139608586549557 
1918	 0.144525028565477 
1919	 0.138809194386898 
1920	 0.127431863601183 
1921	 0.121457576098107 
1922	 0.119045775697437 
1923	 0.118914791578962 
1924	 0.122806835075801 
1925	 0.124718658468739 
1926	 0.129365370906951 
1927	 0.129334046477914 
1928	 0.126800274619154 
1929	 0.123748891721738 
1930	 0.12102203500605 
1931	 0.119713994929347 
1932	 0.121973603264783 
1933	 0.123157012811666 
1934	 0.12475675578073 
1935	 0.12788508243873 
1936	 0.12824054264704 
1937	 0.12874543068881 
1938	 0.127928374647009 
1939	 0.12568861312574 
1940	 0.122541573724218 
1941	 0.121521201650527 
1942	 0.119729984839723 
1943	 0.118757446765658 
1944	 0.118892361591803 
1945	 0.119353528677942 
1946	 0.120135302637575 
1947	 0.119955239444579 
1948	 0.119488145916753 
1949	 0.119717279535365 
1950	 0.119745613698825 
1951	 0.118663835278801 
1952	 0.120829071702419 
1953	 0.121281092922643 
1954	 0.120550331988963 
1955	 0.121540564738803 
1956	 0.121796968553448 
1957	 0.122003137133396 
1958	 0.122246157092839 
1959	 0.122716495329324 
1960	 0.123122833008649 
1961	 0.122953488893212 
1962	 0.123875885667158 
1963	 0.125270920499176 
1964	 0.125847271281988 
1965	 0.126258408905176 
1966	 0.125984003667124 
1967	 0.125036009855886 
1968	 0.124512611421502 
1969	 0.124423687396626 
1970	 0.124431884689989 
1971	 0.124763761892421 
1972	 0.125472891508689 
1973	 0.126238231385061 
1974	 0.126992019671702 
1975	 0.127606491628173 
1976	 0.127893734513416 
1977	 0.12828141178836 
1978	 0.128708517414931 
1979	 0.129471029874243 
1980	 0.13037169343317 
1981	 0.130934604209825 
1982	 0.131289079367245 
1983	 0.13146901884737 
1984	 0.131357074751521 
1985	 0.131378955538929 
1986	 0.13168386002103 
1987	 0.132154301624198 
1988	 0.132913840085311 
1989	 0.133696984801054 
1990	 0.134292222941859 
1991	 0.135033760870256 
1992	 0.135407320868461 
1993	 0.135577976464159 
1994	 0.136338330299454 
1995	 0.137023865777769 
1996	 0.137849461691041 
1997	 0.138882503770179 
1998	 0.139705261496837 
1999	 0.140293943771133 
2000	 0.141250053514225 
2001	 0.141795454399261 
2002	 0.142309528828365 
2003	 0.142464234717926 
2004	 0.141795615854368 
2005	 0.141580068509437 
2006	 0.142023643194615 
2007	 0.143056770032081 
2008	 0.144470636212142 
2009	 0.145728572751219 
2010	 0.14618726110406 
2011	 0.145891529419812 
2012	 0.145542518633798 
2013	 0.145095572759517 
2014	 0.144879257304581 
2015	 0.145611726848682 
2016	 0.146608489844595 
2017	 0.147543470317137 
2018	 0.148828206436876 
2019	 0.149484344350206 
2020	 0.149912138940523 
2021	 0.149638679810488 
2022	 0.149721734859229 
2023	 0.149980415807161 
2024	 0.150248104162456 
2025	 0.151070234659534 
2026	 0.152100500296829 
2027	 0.152700780660065 
2028	 0.15310846852734 
2029	 0.153277245366699 
2030	 0.153580846801906 
2031	 0.153669272559502 
2032	 0.153621463399189 
2033	 0.153528428228773 
2034	 0.153756476047098 
2035	 0.15382156236276 
2036	 0.154011358860051 
2037	 0.154602829471446 
2038	 0.155278357641834 
2039	 0.155499482288571 
2040	 0.155536769299607 
2041	 0.155655534723832 
2042	 0.155461742148744 
2043	 0.155441839624253 
2044	 0.15595958956408 
2045	 0.156341704437596 
2046	 0.156827094626878 
2047	 0.157450660084323 
2048	 0.158087191275165 
2049	 0.158307060555965 
2050	 0.158527027601934 
2051	 0.158641689592546 
2052	 0.158630136038788 
2053	 0.15885355666479 
2054	 0.159104042888768 
2055	 0.159833917898088 
2056	 0.160432704998201 
2057	 0.16039085595344 
2058	 0.16092050697847 
2059	 0.161308718595162 
2060	 0.161530388117437 
2061	 0.161727796911139 
2062	 0.162390877151585 
2063	 0.162726085686077 
2064	 0.163380776002505 
2065	 0.164016599412618 
2066	 0.164308676299821 
2067	 0.164758455533502 
2068	 0.164775500227893 
2069	 0.164513087396162 
2070	 0.164756572281225 
2071	 0.164877759768244 
2072	 0.165084763127799 
2073	 0.165259066565403 
2074	 0.165889759850726 
2075	 0.16621021877339 
2076	 0.166566878403609 
2077	 0.166649795051845 
2078	 0.166751464572206 
2079	 0.16737660301521 
2080	 0.167764619312775 
2081	 0.168490818885748 
2082	 0.16883780275176 
2083	 0.168547677838931 
2084	 0.168821256755762 
2085	 0.168764776511666 
2086	 0.1687811638085 
2087	 0.169014995815797 
2088	 0.169632375528172 
2089	 0.169565246708152 
2090	 0.169891593276243 
2091	 0.17037290099876 
2092	 0.17040148874026 
2093	 0.170885066953289 
2094	 0.171527101499746 
2095	 0.172183560151183 
2096	 0.172916187391443 
2097	 0.173250363748927 
2098	 0.173138523124808 
2099	 0.173020322328118 
2100	 0.17338644067317 
2101	 0.173812799026613 
2102	 0.174066075025425 
2103	 0.174391611385598 
2104	 0.174712973772106 
2105	 0.174749594909434 
2106	 0.174931705423025 
2107	 0.17534639341018 
2108	 0.175690800848761 
2109	 0.175860645541525 
2110	 0.175856550338977 
2111	 0.176249109297134 
2112	 0.176458127326152 
2113	 0.176301126513825 
2114	 0.176339392133746 
2115	 0.176499915522807 
2116	 0.176903438364163 
2117	 0.177281629262519 
2118	 0.178151038503569 
2119	 0.178699012816994 
2120	 0.179084238354464 
2121	 0.179238141020938 
2122	 0.179666458534855 
2123	 0.179404391849764 
2124	 0.179028514398301 
2125	 0.178925445172871 
2126	 0.178998894848621 
2127	 0.179596366814278 
2128	 0.18027953213275 
2129	 0.180943000739614 
2130	 0.181060317674279 
2131	 0.181183785818992 
2132	 0.181659683550243 
2133	 0.181939398585917 
2134	 0.182299242841516 
2135	 0.182817174765003 
2136	 0.183259820279529 
2137	 0.183669817796328 
2138	 0.18376577804972 
2139	 0.183586808109361 
2140	 0.183337401208366 
2141	 0.182955477824421 
2142	 0.182767347500784 
2143	 0.182610399613655 
2144	 0.182789386290187 
2145	 0.182541957457516 
2146	 0.18212318467575 
2147	 0.182024684052126 
2148	 0.181585441028459 
2149	 0.181486566839763 
2150	 0.181492262474583 
2151	 0.181489715903549 
2152	 0.181659284134642 
2153	 0.181785149476364 
2154	 0.181906383791285 
2155	 0.181890210017719 
2156	 0.18201469036115 
2157	 0.181714788327941 
2158	 0.18161764691858 
2159	 0.18197448872246 
2160	 0.182025872215596 
2161	 0.182225424373607 
2162	 0.182114174764034 
2163	 0.181832636942288 
2164	 0.18176563779273 
2165	 0.181570632592692 
2166	 0.181574642119568 
2167	 0.181551969172876 
2168	 0.181447081674934 
2169	 0.181411769940685 
2170	 0.181280902893328 
2171	 0.181135669754275 
2172	 0.18050347158774 
2173	 0.180237090203098 
2174	 0.179850450765251 
2175	 0.179336750271285 
2176	 0.179688563397811 
2177	 0.180133092351513 
2178	 0.18018944966266 
2179	 0.180361059872226 
2180	 0.180054144888158 
2181	 0.179353412486014 
2182	 0.179037173086516 
2183	 0.178759716886496 
2184	 0.178841828446539 
2185	 0.179153400114501 
2186	 0.179347236437654 
2187	 0.179212982443543 
2188	 0.178789577227326 
2189	 0.178418651560794 
2190	 0.177826880074108 
2191	 0.177093983179928 
2192	 0.177155221969921 
2193	 0.177604524429286 
2194	 0.177509453381258 
2195	 0.177524912178865 
2196	 0.177528618233997 
2197	 0.177105652530903 
2198	 0.177145734263322 
2199	 0.177464190909303 
2200	 0.177593811804608 
2201	 0.17751867982621 
2202	 0.177685494102836 
2203	 0.177982896910349 
2204	 0.17771361772734 
2205	 0.177595493827257 
2206	 0.177039055992727 
2207	 0.176437899967308 
2208	 0.176229808361879 
2209	 0.176387631353735 
2210	 0.17621184181423 
2211	 0.176141781523695 
2212	 0.176079457700027 
2213	 0.175820860781358 
2214	 0.175420499785485 
2215	 0.176153108462196 
2216	 0.176791912581022 
2217	 0.176937934857379 
2218	 0.17757098458773 
2219	 0.177152083864652 
2220	 0.176559666946897 
2221	 0.17632220143278 
2222	 0.175479476826745 
2223	 0.175012907216344 
2224	 0.174651698511226 
2225	 0.173982820087712 
2226	 0.173831218685099 
2227	 0.173678434093784 
2228	 0.173579610472901 
2229	 0.173693348560093 
2230	 0.173399279144183 
2231	 0.173222525845483 
2232	 0.173057924176209 
2233	 0.172766870396638 
2234	 0.172174059885846 
2235	 0.172554354947446 
2236	 0.172803813583676 
2237	 0.171945170524076 
2238	 0.171721327620844 
2239	 0.171031475848324 
2240	 0.169711238932706 
2241	 0.169384649069351 
2242	 0.168436718646038 
2243	 0.166900591954018 
2244	 0.165865734969829 
2245	 0.165300369448424 
2246	 0.165401571911421 
2247	 0.165703993612949 
2248	 0.16546115339051 
2249	 0.164915100000848 
2250	 0.164108924957502 
2251	 0.162781376456854 
2252	 0.16219989116582 
2253	 0.161210235115136 
2254	 0.159330618311979 
2255	 0.158712379443907 
2256	 0.157512462021044 
2257	 0.155751796983362 
2258	 0.153992716774577 
2259	 0.153707284810573 
2260	 0.152466702298009 
2261	 0.151762033059222 
2262	 0.152139548075345 
2263	 0.151324368924952 
2264	 0.150482229434468 
2265	 0.150097015218195 
2266	 0.148591377551334 
2267	 0.147188970209993 
2268	 0.146633907575099 
2269	 0.145486248254403 
2270	 0.144465548087031 
2271	 0.144556458720139 
2272	 0.144528436174487 
2273	 0.143517524716699 
2274	 0.143060777969923 
2275	 0.142984342402791 
2276	 0.14214144925846 
2277	 0.142027713525401 
2278	 0.142048323258556 
2279	 0.141548530509489 
2280	 0.141396246214349 
2281	 0.141620758146141 
2282	 0.142272705660833 
2283	 0.142687716570075 
2284	 0.142877930299575 
2285	 0.143318206968516 
2286	 0.143631376205846 
2287	 0.14389727983968 
2288	 0.14392692758716 
2289	 0.144283889176272 
2290	 0.144408943694651 
2291	 0.143166100285203 
2292	 0.142643514720102 
2293	 0.141875664097293 
2294	 0.140141172110569 
2295	 0.140018973182586 
2296	 0.139960546688215 
2297	 0.139640875806104 
2298	 0.139188013963044 
2299	 0.138444585892412 
2300	 0.137830819805596 
2301	 0.137312455095188 
2302	 0.137323550781313 
2303	 0.136645160457047 
2304	 0.135983382969655 
2305	 0.135312852231958 
2306	 0.134100146027044 
2307	 0.132745592826346 
2308	 0.131309789418996 
2309	 0.129826074519734 
2310	 0.128153407471911 
2311	 0.128850455838408 
2312	 0.130132533781126 
2313	 0.130044439530408 
2314	 0.131306494823792 
2315	 0.131805442848403 
2316	 0.130639453849641 
2317	 0.13005947114934 
2318	 0.129242275083105 
2319	 0.128831986928046 
2320	 0.129665321858575 
2321	 0.13007489398209 
2322	 0.131132912461946 
2323	 0.131527317391796 
2324	 0.13107823185152 
2325	 0.131952445350448 
2326	 0.132657340111168 
2327	 0.133469086895734 
2328	 0.134282092711962 
2329	 0.132022526866384 
2330	 0.130600442257594 
2331	 0.129921679242362 
2332	 0.130030765829543 
2333	 0.131103265321335 
2334	 0.129859929688705 
2335	 0.129861024793238 
2336	 0.130603016703353 
2337	 0.130605212613935 
2338	 0.132547138994182 
2339	 0.133606038397588 
2340	 0.132595345445773 
2341	 0.131580180913723 
2342	 0.12925843743657 
2343	 0.128149433292957 
2344	 0.1283421255617 
2345	 0.127832599871322 
2346	 0.129331267444856 
2347	 0.129666236034255 
2348	 0.12721146581627 
2349	 0.125405562779068 
2350	 0.123200291309668 
2351	 0.121076960969859 
2352	 0.121157407578819 
2353	 0.120548474803118 
2354	 0.120129863402574 
2355	 0.122409906018183 
2356	 0.12344521617707 
2357	 0.123436696278398 
2358	 0.124270830165204 
2359	 0.122841154410146 
2360	 0.120650403704546 
2361	 0.119755624633788 
2362	 0.119552105698713 
2363	 0.120863559291607 
2364	 0.121579616855279 
2365	 0.121141367162703 
2366	 0.121068277893664 
2367	 0.119268445961941 
2368	 0.116946425396737 
2369	 0.11746199332005 
2370	 0.1186528246485 
2371	 0.119391990142688 
2372	 0.119733587464462 
2373	 0.120248402596572 
2374	 0.12070152071004 
2375	 0.120668642162311 
2376	 0.120371581739204 
2377	 0.120656482141423 
2378	 0.120469832974697 
2379	 0.119559553628862 
2380	 0.117843874691103 
2381	 0.115544331058244 
2382	 0.113874328237499 
2383	 0.110349414213304 
2384	 0.109481570236515 
2385	 0.110444755248048 
2386	 0.112670589859962 
2387	 0.118317378040222 
2388	 0.120257415892627 
2389	 0.121347779519916 
2390	 0.121454126477842 
2391	 0.118215949389382 
2392	 0.117403292232332 
2393	 0.118616383063734 
2394	 0.118658779963652 
2395	 0.118974211119911 
2396	 0.117981012532892 
2397	 0.115019489821075 
2398	 0.113458144484641 
2399	 0.110200839955142 
2400	 0.109964868964621 
2401	 0.112840990978156 
2402	 0.115350986845989 
2403	 0.112708088323774 
2404	 0.112749936015746 
2405	 0.110172761077401 
2406	 0.105131048814566 
2407	 0.108028476387447 
2408	 0.108371113194404 
2409	 0.107480549733465 
2410	 0.109078630480943 
2411	 0.103903345924033 
2412	 0.102777050019337 
2413	 0.10520191624011 
2414	 0.102976267454227 
2415	 0.103072097126751 
2416	 0.103862075432962 
2417	 0.103844893001869 
2418	 0.1036405435647 
2419	 0.103955538461428 
2420	 0.10700465878009 
2421	 0.110385412618776 
2422	 0.11131860835487 
2423	 0.111927691346293 
2424	 0.112728413146428 
2425	 0.109000442823133 
2426	 0.1064586489316 
2427	 0.10586725740364 
2428	 0.105884292288866 
2429	 0.105222026025898 
2430	 0.100572031800394 
2431	 9.95574843676932E-02 
2432	 0.100156538551054 
2433	 0.103444052543466 
2434	 0.106613180461554 
2435	 0.113776344242439 
2436	 0.115345547165767 
2437	 0.11455388318904 
2438	 0.111602091512422 
2439	 0.100317955971457 
2440	 9.61989495774168E-02 
2441	 9.25833405653033E-02 
2442	 9.10741122553269E-02 
2443	 9.76441166048704E-02 
2444	 9.89274323572715E-02 
2445	 9.85645747736478E-02 
2446	 9.99719578426752E-02 
2447	 9.85295200510363E-02 
2448	 9.91448937944924E-02 
2449	 0.104272806488933 
2450	 0.104647455214297 
2451	 0.102964117850264 
2452	 0.101814160173021 
2453	 9.65571143526702E-02 
2454	 9.53418155951885E-02 
2455	 9.70871337299598E-02 
2456	 9.57445326874804E-02 
2457	 9.41982874242522E-02 
2458	 9.45225279581352E-02 
2459	 9.54342423091843E-02 
2460	 9.63330087716718E-02 
2461	 9.87349100255639E-02 
2462	 9.91075447065791E-02 
2463	 9.78300746591419E-02 
2464	 9.78472036120877E-02 
2465	 0.096245179112077 
2466	 9.71066722953671E-02 
2467	 9.98798604907628E-02 
2468	 0.100548305579142 
2469	 0.1026582675557 
2470	 0.106986070651343 
2471	 0.113432664100326 
2472	 0.11285331158674 
2473	 0.111127543873308 
2474	 0.103550956970368 
2475	 7.87638059403957E-02 
2476	 7.84510906700946E-02 
2477	 9.34239060535991E-02 
2478	 0.103232145698948 
2479	 0.131519204189331 
2480	 0.140517606884079 
2481	 0.119916535419543 
2482	 0.134575544672454 
2483	 0.173789025671758 
2484	 0.190272881183459 
2485	 0.217357920050637 
2486	 0.223845236148384 
2487	 0.252526536103611 
2488	 0.227141356381939 
2489	 0.199954713940711 
2490	 0.192580491369947 
2491	 0.119945857418084 
2492	 0.104198253285417 
2493	 0.150089836171525 
2494	 0.122828549231472 
2495	 8.89876497624869E-02 
2496	 8.76880889177655E-02 
2497	 6.00376861679992E-02 
2498	 4.06424195166487E-02 
2499	 3.90411087410097E-02 
2500	 4.89250446519991E-02 
