Wavelength	ref00058.asd
350	 3.28196147630482E-02 
351	 3.30468019711359E-02 
352	 3.28874669379722E-02 
353	 3.32521904467763E-02 
354	 3.24182131928418E-02 
355	 3.22415403174954E-02 
356	 3.34301261991522E-02 
357	 0.03308690717582 
358	 3.26527642274181E-02 
359	 3.26269621404962E-02 
360	 3.31064047583695E-02 
361	 3.38272479264183E-02 
362	 3.41488674000486E-02 
363	 3.41319370839685E-02 
364	 3.42323566158029E-02 
365	 3.38157370409686E-02 
366	 3.34325232487529E-02 
367	 3.33632277045911E-02 
368	 3.33062824880779E-02 
369	 3.39522525601194E-02 
370	 3.44282587957423E-02 
371	 3.41693565212917E-02 
372	 3.47343563983459E-02 
373	 3.47545667151422E-02 
374	 0.034473452797004 
375	 3.48151688997565E-02 
376	 3.49892139443298E-02 
377	 3.51576592462458E-02 
378	 3.54658211185174E-02 
379	 3.59258617098092E-02 
380	 3.58783775220047E-02 
381	 3.60923814582592E-02 
382	 3.69389024124656E-02 
383	 3.68629639240328E-02 
384	 3.69101617260769E-02 
385	 3.72470870612884E-02 
386	 3.76616492545156E-02 
387	 3.82276099538704E-02 
388	 3.85840546560468E-02 
389	 3.86001467197774E-02 
390	 3.84539245995531E-02 
391	 0.039162673593314 
392	 3.98260698673593E-02 
393	 3.98033345512062E-02 
394	 3.97790544409341E-02 
395	 4.00608691998582E-02 
396	 4.05701882661153E-02 
397	 4.10264991708903E-02 
398	 4.11330082995675E-02 
399	 4.09397972896788E-02 
400	 4.08185740286633E-02 
401	 4.12766679066786E-02 
402	 0.041230160097998 
403	 4.12377945033308E-02 
404	 4.16576653081542E-02 
405	 4.19690658932691E-02 
406	 4.21917085098927E-02 
407	 4.23833672349537E-02 
408	 4.25986385593932E-02 
409	 4.27160359994728E-02 
410	 4.27879551907913E-02 
411	 4.28834755043264E-02 
412	 4.30614422694517E-02 
413	 4.31278399381707E-02 
414	 0.043188717741457 
415	 0.043350753253641 
416	 4.36396640611484E-02 
417	 4.38080225334527E-02 
418	 4.38005088713099E-02 
419	 4.37145314565728E-02 
420	 4.39655944898854E-02 
421	 4.42446509817921E-02 
422	 4.43497976254737E-02 
423	 0.044246401548991 
424	 4.44585032478042E-02 
425	 4.46459931987111E-02 
426	 4.46190828889989E-02 
427	 4.48567728902336E-02 
428	 4.49430034556621E-02 
429	 4.50146778106815E-02 
430	 4.52710849046622E-02 
431	 4.51742631554625E-02 
432	 4.51960767028874E-02 
433	 4.53393256241287E-02 
434	 4.52020202257955E-02 
435	 4.53453953032796E-02 
436	 4.55888790689773E-02 
437	 4.57157821399014E-02 
438	 4.56433064268507E-02 
439	 4.58615636746861E-02 
440	 4.62037410141238E-02 
441	 4.63253536621517E-02 
442	 4.63121967108159E-02 
443	 4.65477389723945E-02 
444	 4.69701660181021E-02 
445	 4.71176176412703E-02 
446	 4.74949830842636E-02 
447	 0.0478666799605 
448	 4.80542730323442E-02 
449	 4.83354219375943E-02 
450	 4.86383876677887E-02 
451	 4.89324975315016E-02 
452	 4.92057600018059E-02 
453	 4.94840705600123E-02 
454	 4.97406434562182E-02 
455	 4.99753441780439E-02 
456	 5.02227076378482E-02 
457	 5.03656609989268E-02 
458	 5.03962380415476E-02 
459	 5.03913070702542E-02 
460	 0.050599437864223 
461	 5.07459270317654E-02 
462	 5.07554281784203E-02 
463	 5.06929214415154E-02 
464	 5.07673040371883E-02 
465	 5.08475249045117E-02 
466	 5.08850606913558E-02 
467	 5.10123621388981E-02 
468	 0.051135361253241 
469	 5.11563258892954E-02 
470	 5.10518665383004E-02 
471	 5.10435138194003E-02 
472	 5.12040102878401E-02 
473	 5.14362491600788E-02 
474	 5.15388449772716E-02 
475	 5.15846466337491E-02 
476	 5.16901739905329E-02 
477	 5.18756547487247E-02 
478	 5.19676299706231E-02 
479	 5.20787703081139E-02 
480	 5.22555065159795E-02 
481	 5.25024566095116E-02 
482	 5.27340651479514E-02 
483	 5.29294748074898E-02 
484	 5.31929256540017E-02 
485	 5.37223321984054E-02 
486	 5.40962104464188E-02 
487	 5.44396628189156E-02 
488	 5.48643141927356E-02 
489	 0.055136628085804 
490	 5.54942065871878E-02 
491	 5.60060231407777E-02 
492	 5.66431163084599E-02 
493	 0.057239797068068 
494	 5.79472149089331E-02 
495	 5.88048704208954E-02 
496	 5.96857073788283E-02 
497	 6.05550006519371E-02 
498	 6.16039857468425E-02 
499	 6.29133498689788E-02 
500	 6.39950881615188E-02 
501	 6.52900843777223E-02 
502	 6.68051086886906E-02 
503	 6.82857227661988E-02 
504	 6.98106890844759E-02 
505	 0.071439139529824 
506	 7.31938250842429E-02 
507	 7.50400259366276E-02 
508	 7.69555280072945E-02 
509	 7.89544714471872E-02 
510	 8.10582154374444E-02 
511	 8.32806738565515E-02 
512	 8.55120479692163E-02 
513	 8.77844373162727E-02 
514	 9.02531005103917E-02 
515	 9.28694912251038E-02 
516	 9.56102106465852E-02 
517	 9.84037615135815E-02 
518	 0.101091625212547 
519	 0.103877045512332 
520	 0.106612313989509 
521	 0.109078999380327 
522	 0.11144428255531 
523	 0.113911625369993 
524	 0.116445820013055 
525	 0.118726041550514 
526	 0.120994818032451 
527	 0.123236272966639 
528	 0.125349147874149 
529	 0.127138959173663 
530	 0.128769381947979 
531	 0.130325885305196 
532	 0.131835449849064 
533	 0.13318791657513 
534	 0.134428711826201 
535	 0.135543781813548 
536	 0.136389033829524 
537	 0.137329321130759 
538	 0.138206167975703 
539	 0.13880592072479 
540	 0.139460747812404 
541	 0.140162712961512 
542	 0.140799199719696 
543	 0.141205749269204 
544	 0.141716000128339 
545	 0.142239004121035 
546	 0.142710231603639 
547	 0.143313118356577 
548	 0.143812961207205 
549	 0.144205262487125 
550	 0.144577112100826 
551	 0.144926044726217 
552	 0.145186976988445 
553	 0.14531939691299 
554	 0.145318220860472 
555	 0.145242765827673 
556	 0.145148822886948 
557	 0.145051261636199 
558	 0.144867478910756 
559	 0.144457339688699 
560	 0.143861499826465 
561	 0.143235925847295 
562	 0.142579467420671 
563	 0.141775236666976 
564	 0.140806067086438 
565	 0.139866635833508 
566	 0.138868996090305 
567	 0.137751885576109 
568	 0.13650045092554 
569	 0.135276049354204 
570	 0.134024303764213 
571	 0.132781828892986 
572	 0.131661643419406 
573	 0.130470931753316 
574	 0.129369334278731 
575	 0.128431945309894 
576	 0.12738326473436 
577	 0.126340951636125 
578	 0.125351517945053 
579	 0.124433678487923 
580	 0.123654694081135 
581	 0.122904062335319 
582	 0.122125836099033 
583	 0.121356360607617 
584	 0.120595703805215 
585	 0.119872745351397 
586	 0.119205487659111 
587	 0.118512819638242 
588	 0.118017784711734 
589	 0.117669862417157 
590	 0.117228425099325 
591	 0.116758864880573 
592	 0.116383889875715 
593	 0.116110898197182 
594	 0.115746765055642 
595	 0.115488019379783 
596	 0.115245166619782 
597	 0.114877656422616 
598	 0.114509616932312 
599	 0.114136883297229 
600	 0.113813229587111 
601	 0.113639089179482 
602	 0.113243221088886 
603	 0.112862151458483 
604	 0.112662123656324 
605	 0.112288766761405 
606	 0.111895655750839 
607	 0.111505187659217 
608	 0.111094460057602 
609	 0.110758785056954 
610	 0.110383454580778 
611	 0.10992047708139 
612	 0.109439387217289 
613	 0.108902497712404 
614	 0.108400554277529 
615	 0.107969034347377 
616	 0.107305262129911 
617	 0.106657855369888 
618	 0.10610634661644 
619	 0.105590742786578 
620	 0.105117371335096 
621	 0.104771372414668 
622	 0.104545421226753 
623	 0.104225363371958 
624	 0.104041186315309 
625	 0.103932739935468 
626	 0.103780744403988 
627	 0.103730952616585 
628	 0.103745232179368 
629	 0.103786008075205 
630	 0.103820882411037 
631	 0.103767606497504 
632	 0.103567768638233 
633	 0.103194172327678 
634	 0.102663342830563 
635	 0.102020730760303 
636	 0.101228323431915 
637	 0.100225370204676 
638	 0.099051439416816 
639	 0.097800584008523 
640	 9.64872238313135E-02 
641	 9.50583121454069E-02 
642	 9.35320236549249E-02 
643	 9.20204465697924E-02 
644	 9.06048962183977E-02 
645	 0.089261636829808 
646	 8.78741002078304E-02 
647	 8.65650324731354E-02 
648	 8.55725742347525E-02 
649	 8.47019559727185E-02 
650	 8.39512299655937E-02 
651	 8.33793185574201E-02 
652	 8.30708505548114E-02 
653	 8.28358546401452E-02 
654	 0.082575119186923 
655	 0.082284809160042 
656	 8.22987733928206E-02 
657	 8.21295241402483E-02 
658	 8.16587470674999E-02 
659	 8.10731240363066E-02 
660	 8.04417895858535E-02 
661	 7.97479145384028E-02 
662	 7.90190271489144E-02 
663	 7.83584890690981E-02 
664	 7.76325603714548E-02 
665	 7.69178384695954E-02 
666	 7.63556585194617E-02 
667	 7.60608908607377E-02 
668	 7.56755615865807E-02 
669	 7.52742027689403E-02 
670	 7.53050561278163E-02 
671	 7.53520525376704E-02 
672	 7.55723535617372E-02 
673	 0.076033780400272 
674	 0.076352892806744 
675	 7.68869199742554E-02 
676	 7.76485434820598E-02 
677	 7.85254822151281E-02 
678	 7.95379429628425E-02 
679	 8.06899359237356E-02 
680	 8.19717365413657E-02 
681	 8.33676070410799E-02 
682	 8.51999398700794E-02 
683	 8.73379290440523E-02 
684	 8.96460408910052E-02 
685	 9.21455742264158E-02 
686	 9.56181219237063E-02 
687	 0.100039862365078 
688	 0.104459964607053 
689	 0.108291978103443 
690	 0.112377261998703 
691	 0.117245116443579 
692	 0.122603984504929 
693	 0.128619496902951 
694	 0.13523818827312 
695	 0.142269137416248 
696	 0.149463849419085 
697	 0.157096735292421 
698	 0.164987134120417 
699	 0.172764275327839 
700	 0.180685950193418 
701	 0.188782155915576 
702	 0.196874788250182 
703	 0.204552116973951 
704	 0.211896322741003 
705	 0.219102248069555 
706	 0.226376720654239 
707	 0.233682781507865 
708	 0.240712323361552 
709	 0.247526774113272 
710	 0.254294215546093 
711	 0.260880758648811 
712	 0.267404071571594 
713	 0.273838160256823 
714	 0.279986841525423 
715	 0.285906897009767 
716	 0.291602193268497 
717	 0.29727633948127 
718	 0.303165676784352 
719	 0.309162935791864 
720	 0.314821010871059 
721	 0.319747095563778 
722	 0.323906489638436 
723	 0.328014493633109 
724	 0.332391419293726 
725	 0.336396232211583 
726	 0.340237215709849 
727	 0.343886049193577 
728	 0.347383299683163 
729	 0.350706122110996 
730	 0.353749134741651 
731	 0.356560155658894 
732	 0.359229002774315 
733	 0.361572345297976 
734	 0.363712758187599 
735	 0.365809442023951 
736	 0.367959699424277 
737	 0.369869626485019 
738	 0.371612002015329 
739	 0.373263991962346 
740	 0.37468069756632 
741	 0.376026749649663 
742	 0.3771485086774 
743	 0.377891317658396 
744	 0.378601826315907 
745	 0.379339343129931 
746	 0.379985320810204 
747	 0.380337630617705 
748	 0.380790971780614 
749	 0.381196770579693 
750	 0.381460741910301 
751	 0.381709714531309 
752	 0.38185054479601 
753	 0.381914110456162 
754	 0.381961842598317 
755	 0.38203426085529 
756	 0.382040062527446 
757	 0.382054183780898 
758	 0.382330695003256 
759	 0.383705355991041 
760	 0.386710550972965 
761	 0.39037447097292 
762	 0.389802248825 
763	 0.388211531251294 
764	 0.386727010077548 
765	 0.385507990325598 
766	 0.384137283190051 
767	 0.38300061001544 
768	 0.382221543917103 
769	 0.381803476654059 
770	 0.381434837956983 
771	 0.381262293376869 
772	 0.381293418590847 
773	 0.381378071828045 
774	 0.381216254202654 
775	 0.381173130389539 
776	 0.381342058922151 
777	 0.38117749211119 
778	 0.381135119202665 
779	 0.381274113178853 
780	 0.38148196544349 
781	 0.38146467450021 
782	 0.381570513912722 
783	 0.38180466013921 
784	 0.381982077827015 
785	 0.382044075999471 
786	 0.382172245324829 
787	 0.382341106103781 
788	 0.382306467905655 
789	 0.382453659422736 
790	 0.382662150654433 
791	 0.38282255676811 
792	 0.383052967046207 
793	 0.383411690453193 
794	 0.383677326323114 
795	 0.383690161963023 
796	 0.383895034102257 
797	 0.38414584580665 
798	 0.384359169502311 
799	 0.384513023288785 
800	 0.38470047708303 
801	 0.384906246886379 
802	 0.385092205556153 
803	 0.385222445871584 
804	 0.385524358003832 
805	 0.385892292212885 
806	 0.386185415926864 
807	 0.386339529448044 
808	 0.38646278327678 
809	 0.386609372695508 
810	 0.386759846339882 
811	 0.386706992706376 
812	 0.386566264227128 
813	 0.386379041438429 
814	 0.386158096348039 
815	 0.38601830078503 
816	 0.386130251827167 
817	 0.386452485687043 
818	 0.386731598966617 
819	 0.387164285664921 
820	 0.387634393372387 
821	 0.387975048991266 
822	 0.388012879507132 
823	 0.388071224943795 
824	 0.388429956191252 
825	 0.389086979059536 
826	 0.389406013019587 
827	 0.389495067857517 
828	 0.38949424438055 
829	 0.389584868552742 
830	 0.389992445480762 
831	 0.390338400180892 
832	 0.390574299869059 
833	 0.390905161222031 
834	 0.391202325768085 
835	 0.391536520087994 
836	 0.391929856185309 
837	 0.392323023876823 
838	 0.392651633112761 
839	 0.392934280870385 
840	 0.39319103392002 
841	 0.393412258656316 
842	 0.39348297154736 
843	 0.393646146587593 
844	 0.394086273772311 
845	 0.394476773716232 
846	 0.394701093119001 
847	 0.394720452108976 
848	 0.394624510214365 
849	 0.394838468503744 
850	 0.395146374590576 
851	 0.395388192486734 
852	 0.395504450713492 
853	 0.395624738864629 
854	 0.39583698319016 
855	 0.396196806187687 
856	 0.396683083671293 
857	 0.396747223979057 
858	 0.396795045523133 
859	 0.397051549639814 
860	 0.397206235803175 
861	 0.397384444120126 
862	 0.397588772225735 
863	 0.397764688015101 
864	 0.397772884981768 
865	 0.397832023225975 
866	 0.398021326474164 
867	 0.398294741118219 
868	 0.398368618014154 
869	 0.398502533368613 
870	 0.39871222017927 
871	 0.39892569475455 
872	 0.399311482741517 
873	 0.399529692862371 
874	 0.399602945457905 
875	 0.399802793904998 
876	 0.400018260942832 
877	 0.400248498427415 
878	 0.400429415291121 
879	 0.400466055136157 
880	 0.400694388154774 
881	 0.401010883546953 
882	 0.401242088658497 
883	 0.401242306995661 
884	 0.401275577726098 
885	 0.401579922010616 
886	 0.401995124357247 
887	 0.401698976831673 
888	 0.4016261744141 
889	 0.40181534129252 
890	 0.40207696276873 
891	 0.402314148899208 
892	 0.402203407072311 
893	 0.401945777566797 
894	 0.401807896886651 
895	 0.401603659208151 
896	 0.401086944858852 
897	 0.400753007478796 
898	 0.4010950044298 
899	 0.401005554595366 
900	 0.40095589556915 
901	 0.40132509549258 
902	 0.402134546456026 
903	 0.402158052305605 
904	 0.402557971036676 
905	 0.403165008167681 
906	 0.403078309733372 
907	 0.402984026639192 
908	 0.402634338451758 
909	 0.402317441011971 
910	 0.402636759460394 
911	 0.402549296736677 
912	 0.402272456703224 
913	 0.402244859781302 
914	 0.402846753317444 
915	 0.403439181583816 
916	 0.40341659863832 
917	 0.403169149756845 
918	 0.403955431173637 
919	 0.404208639038514 
920	 0.404616317077932 
921	 0.405254525562565 
922	 0.405082594403894 
923	 0.404653087696844 
924	 0.404330877252886 
925	 0.404197980996085 
926	 0.403928290586879 
927	 0.40307353055605 
928	 0.401911942855511 
929	 0.400758062448892 
930	 0.399627758817046 
931	 0.398405491378266 
932	 0.396475128890896 
933	 0.394195339095259 
934	 0.394138515654487 
935	 0.393950716667806 
936	 0.39404313713796 
937	 0.394585415149582 
938	 0.393971902997961 
939	 0.394608253386611 
940	 0.394970322621892 
941	 0.394449566175398 
942	 0.395737676855309 
943	 0.394966027108297 
944	 0.393687895698025 
945	 0.393562440826421 
946	 0.393387610816365 
947	 0.392329623865885 
948	 0.391985167312888 
949	 0.393217118787494 
950	 0.394103787060139 
951	 0.392449015074165 
952	 0.391001657154729 
953	 0.391544324552662 
954	 0.391184822536964 
955	 0.393088100712769 
956	 0.394011462599278 
957	 0.392303820393895 
958	 0.392372808047402 
959	 0.391358113853705 
960	 0.391434407796669 
961	 0.393132901798244 
962	 0.392248071387875 
963	 0.392511322752414 
964	 0.392536951056428 
965	 0.392119463575259 
966	 0.394571608117485 
967	 0.394278681227793 
968	 0.394047973244802 
969	 0.395498942231811 
970	 0.395716062561569 
971	 0.395575376438709 
972	 0.395181244627422 
973	 0.394875001449716 
974	 0.395359756403261 
975	 0.395320321897058 
976	 0.39576852728726 
977	 0.396571550950288 
978	 0.395914541916159 
979	 0.396361166248639 
980	 0.396797472131227 
981	 0.396488468244049 
982	 0.39598779268162 
983	 0.397605404202581 
984	 0.39876865446439 
985	 0.398603677882929 
986	 0.398482079534146 
987	 0.399058499646781 
988	 0.399914775094398 
989	 0.400734435675972 
990	 0.401325440364945 
991	 0.400920014311466 
992	 0.400380442170508 
993	 0.400835330151238 
994	 0.402466645056572 
995	 0.400859796176935 
996	 0.400185737921557 
997	 0.401036734804658 
998	 0.401874468239964 
999	 0.401878840564395 
1000	 0.40138212733264 
1001	 0.399704282841178 
1002	 0.399734781125409 
1003	 0.400058331143825 
1004	 0.400517393978352 
1005	 0.400778755169872 
1006	 0.401224773398804 
1007	 0.401522622341252 
1008	 0.401422361440854 
1009	 0.401626367811537 
1010	 0.402021365272933 
1011	 0.402377739271069 
1012	 0.402657570609309 
1013	 0.403098945634204 
1014	 0.403444575773036 
1015	 0.403698363989639 
1016	 0.404028814355282 
1017	 0.404306057174391 
1018	 0.404610717642055 
1019	 0.404950287058937 
1020	 0.405216405150366 
1021	 0.405479864075692 
1022	 0.405706769487833 
1023	 0.405823944022624 
1024	 0.405983426240964 
1025	 0.406367289738117 
1026	 0.406811589845761 
1027	 0.407250728363648 
1028	 0.407612787615686 
1029	 0.407797368080848 
1030	 0.407938480521641 
1031	 0.408130806868353 
1032	 0.40842602630173 
1033	 0.408669440302994 
1034	 0.408879834574884 
1035	 0.409117003778647 
1036	 0.409360086000544 
1037	 0.409559899152121 
1038	 0.409715871104939 
1039	 0.410069536481511 
1040	 0.410333060524779 
1041	 0.410669551171007 
1042	 0.410998884900981 
1043	 0.411249172018383 
1044	 0.411416146884848 
1045	 0.411454878158 
1046	 0.411587550610381 
1047	 0.411686091617526 
1048	 0.411708441864619 
1049	 0.411884734992017 
1050	 0.412101382320949 
1051	 0.412404410532787 
1052	 0.412595361088296 
1053	 0.412696070078991 
1054	 0.412800247405135 
1055	 0.412929135427326 
1056	 0.413059174491175 
1057	 0.413279159557013 
1058	 0.41338576345986 
1059	 0.413258303938201 
1060	 0.41336429615757 
1061	 0.413597854663227 
1062	 0.41379186506467 
1063	 0.414212325934548 
1064	 0.414470515953492 
1065	 0.41448406195513 
1066	 0.414290499097026 
1067	 0.414163743780322 
1068	 0.413911839607941 
1069	 0.413701120711905 
1070	 0.413740924241471 
1071	 0.413853953906728 
1072	 0.414013689463834 
1073	 0.414106459875801 
1074	 0.414142412826061 
1075	 0.41417550264997 
1076	 0.414118316592355 
1077	 0.414078127538932 
1078	 0.413968299150233 
1079	 0.413906890642005 
1080	 0.413967068917198 
1081	 0.413926511464225 
1082	 0.413833129896532 
1083	 0.413782318143792 
1084	 0.413688942833535 
1085	 0.413499115008575 
1086	 0.413348283247582 
1087	 0.413213004289525 
1088	 0.413024140486791 
1089	 0.412749089157105 
1090	 0.412551560768551 
1091	 0.412422900202796 
1092	 0.41231287703301 
1093	 0.412200093109681 
1094	 0.411944717488661 
1095	 0.411581209800932 
1096	 0.411256713783692 
1097	 0.410880645177629 
1098	 0.410549263005948 
1099	 0.410258469440336 
1100	 0.40995032995175 
1101	 0.409598835843671 
1102	 0.409156749300241 
1103	 0.408824187932595 
1104	 0.408567182523334 
1105	 0.408200185697893 
1106	 0.407830251319939 
1107	 0.407424750970576 
1108	 0.406753377388513 
1109	 0.405956139429641 
1110	 0.405319601773576 
1111	 0.40457643688997 
1112	 0.403627028877337 
1113	 0.402756356702053 
1114	 0.401893161450036 
1115	 0.40089597706359 
1116	 0.399751656549854 
1117	 0.398745071796604 
1118	 0.397514362900463 
1119	 0.396431267157727 
1120	 0.395636614010739 
1121	 0.394843692642144 
1122	 0.394403335034145 
1123	 0.394101438733399 
1124	 0.393385931386018 
1125	 0.392754929149429 
1126	 0.392396877541119 
1127	 0.392158944386444 
1128	 0.391881330876417 
1129	 0.391907323024818 
1130	 0.391792336515069 
1131	 0.391670675246237 
1132	 0.391394436121617 
1133	 0.39116167807114 
1134	 0.390735865953807 
1135	 0.390079656915142 
1136	 0.389429092851906 
1137	 0.388933212922069 
1138	 0.388213516074944 
1139	 0.387321021868677 
1140	 0.386392331776393 
1141	 0.385231195326357 
1142	 0.384095729512426 
1143	 0.3830374761068 
1144	 0.382024403518363 
1145	 0.381011266051174 
1146	 0.379976143021616 
1147	 0.379089482762584 
1148	 0.378212893133257 
1149	 0.377545225435305 
1150	 0.377068712367878 
1151	 0.376658754374833 
1152	 0.376425257621321 
1153	 0.376204465530172 
1154	 0.375987598547821 
1155	 0.376045912595768 
1156	 0.376086778183076 
1157	 0.376177139313665 
1158	 0.37638116332814 
1159	 0.3764064714026 
1160	 0.376416483588079 
1161	 0.376372709854909 
1162	 0.376403509397245 
1163	 0.376395866303164 
1164	 0.376417303064721 
1165	 0.376508942243707 
1166	 0.376542076725019 
1167	 0.376550536001895 
1168	 0.376570753474071 
1169	 0.376578118403326 
1170	 0.376610134377674 
1171	 0.376620424778238 
1172	 0.376563862008744 
1173	 0.376516770176181 
1174	 0.376379244723162 
1175	 0.376317774063221 
1176	 0.376368713168701 
1177	 0.376340557405652 
1178	 0.376363088301847 
1179	 0.376300987610194 
1180	 0.376140430115176 
1181	 0.376010098906988 
1182	 0.375870641081558 
1183	 0.375753404919091 
1184	 0.375621749617523 
1185	 0.375527746430761 
1186	 0.375444158919266 
1187	 0.375382519157795 
1188	 0.375332037466584 
1189	 0.375334770284087 
1190	 0.375421067632626 
1191	 0.375387576355066 
1192	 0.375345347705737 
1193	 0.375329787400061 
1194	 0.375291901591376 
1195	 0.375207964000924 
1196	 0.375181122720878 
1197	 0.375165116237074 
1198	 0.37517604396487 
1199	 0.375238959440099 
1200	 0.375235923954608 
1201	 0.375177542513227 
1202	 0.37521763944347 
1203	 0.375241870232682 
1204	 0.375338151510453 
1205	 0.375598362994936 
1206	 0.375757023105421 
1207	 0.375870794107827 
1208	 0.376000558912812 
1209	 0.376082317165611 
1210	 0.376212706945311 
1211	 0.376389555916654 
1212	 0.376533816185135 
1213	 0.376710726741991 
1214	 0.376918305360269 
1215	 0.377092102461859 
1216	 0.377241159956268 
1217	 0.377449274022003 
1218	 0.377708223439614 
1219	 0.377871698904207 
1220	 0.378006635865901 
1221	 0.378196762613636 
1222	 0.378302711310754 
1223	 0.378499659182042 
1224	 0.378847881918952 
1225	 0.379105049089111 
1226	 0.379341813474127 
1227	 0.379568070449974 
1228	 0.379764092415631 
1229	 0.379960903385861 
1230	 0.380175182963312 
1231	 0.380338202321753 
1232	 0.380542707360982 
1233	 0.380749324576167 
1234	 0.380993649503679 
1235	 0.381308694223657 
1236	 0.381495161891131 
1237	 0.381653694457488 
1238	 0.381799018400629 
1239	 0.381820304791919 
1240	 0.381956161783459 
1241	 0.382129694794055 
1242	 0.382334952779015 
1243	 0.382621191801594 
1244	 0.382850138608059 
1245	 0.383109334857274 
1246	 0.383333675951272 
1247	 0.383522174044848 
1248	 0.383679671875272 
1249	 0.383814302955469 
1250	 0.383934993085903 
1251	 0.383999014118612 
1252	 0.384067613302896 
1253	 0.384184958129556 
1254	 0.384340778109392 
1255	 0.384454174309898 
1256	 0.384590861451205 
1257	 0.384698278948229 
1258	 0.384748258357944 
1259	 0.384846498243398 
1260	 0.384973879495171 
1261	 0.385086345984996 
1262	 0.385253421866751 
1263	 0.385314478442723 
1264	 0.385210048322757 
1265	 0.38530601889296 
1266	 0.385511707235472 
1267	 0.385605150623515 
1268	 0.385826147380604 
1269	 0.385923921134575 
1270	 0.385774905822859 
1271	 0.385738559430477 
1272	 0.385711897497757 
1273	 0.385772008770963 
1274	 0.38576625344331 
1275	 0.385765648236305 
1276	 0.38576855575588 
1277	 0.385799839949199 
1278	 0.385706746479239 
1279	 0.385592168764938 
1280	 0.385420811511735 
1281	 0.38504076162518 
1282	 0.384897497451772 
1283	 0.384926289454496 
1284	 0.384776408317165 
1285	 0.384641866640602 
1286	 0.384479523599556 
1287	 0.384195459177348 
1288	 0.383932766459184 
1289	 0.383763446057595 
1290	 0.383478118594067 
1291	 0.383049008829155 
1292	 0.38267386723749 
1293	 0.382278979760318 
1294	 0.381885049256429 
1295	 0.381592739142952 
1296	 0.381144086174711 
1297	 0.380659616755841 
1298	 0.380122148935532 
1299	 0.37955150043427 
1300	 0.378873866247125 
1301	 0.378260701697986 
1302	 0.377647625617771 
1303	 0.377023417529348 
1304	 0.376416716079771 
1305	 0.375747793513561 
1306	 0.375070051575713 
1307	 0.374324083794651 
1308	 0.373484467058042 
1309	 0.372682887219973 
1310	 0.371852626612646 
1311	 0.371017533676822 
1312	 0.370210139814902 
1313	 0.369352476777546 
1314	 0.368476641748851 
1315	 0.367555133930397 
1316	 0.366608829569173 
1317	 0.365618356703597 
1318	 0.364535470280119 
1319	 0.36348024472924 
1320	 0.362402155478689 
1321	 0.361344382135519 
1322	 0.360161168066987 
1323	 0.358923407188324 
1324	 0.357642776747859 
1325	 0.356174156656019 
1326	 0.354852715173052 
1327	 0.353604805587915 
1328	 0.352213279840135 
1329	 0.350756584983441 
1330	 0.349339953724455 
1331	 0.347834348617989 
1332	 0.346406559831115 
1333	 0.34511913817245 
1334	 0.343752081859045 
1335	 0.342304220638272 
1336	 0.340974813964698 
1337	 0.339628518684722 
1338	 0.338389625494334 
1339	 0.337327630487158 
1340	 0.336081116422778 
1341	 0.334587235110945 
1342	 0.333229630573814 
1343	 0.331631424279656 
1344	 0.330056243181918 
1345	 0.328470762680186 
1346	 0.326811051666075 
1347	 0.324728088540388 
1348	 0.322661908235446 
1349	 0.320749533105966 
1350	 0.319205788051238 
1351	 0.316949390119219 
1352	 0.314918266564343 
1353	 0.312268461479931 
1354	 0.308868556362311 
1355	 0.30477856874752 
1356	 0.302403506301066 
1357	 0.297965699522844 
1358	 0.294035944944672 
1359	 0.288061780289703 
1360	 0.28971844002429 
1361	 0.284023740600937 
1362	 0.27812994416648 
1363	 0.266028767117561 
1364	 0.245180343550465 
1365	 0.236236792062675 
1366	 0.246283245500109 
1367	 0.245613223714908 
1368	 0.249886058046889 
1369	 0.251009445350667 
1370	 0.245691871073858 
1371	 0.245035373336961 
1372	 0.247131035835458 
1373	 0.249002268681507 
1374	 0.255024084035859 
1375	 0.253738493321638 
1376	 0.252443435586214 
1377	 0.248486395685565 
1378	 0.244449888395782 
1379	 0.236686400146715 
1380	 0.23052509158156 
1381	 0.223944785458447 
1382	 0.220542033050568 
1383	 0.22056471741775 
1384	 0.21416229204868 
1385	 0.207085943547465 
1386	 0.202141440933597 
1387	 0.192977072928392 
1388	 0.190699587154743 
1389	 0.195170921252402 
1390	 0.194117627493189 
1391	 0.192845592080452 
1392	 0.19015096605532 
1393	 0.184961433686171 
1394	 0.181421017000181 
1395	 0.17734844338078 
1396	 0.174582563305597 
1397	 0.174257970706117 
1398	 0.17121452260808 
1399	 0.166804583531289 
1400	 0.163944300652344 
1401	 0.160074959310277 
1402	 0.157149093237103 
1403	 0.155855864585699 
1404	 0.154241141302367 
1405	 0.152759732496867 
1406	 0.151605175876139 
1407	 0.148090796921978 
1408	 0.146561720545896 
1409	 0.145071468271667 
1410	 0.142738916951154 
1411	 0.141803991590899 
1412	 0.142013904651913 
1413	 0.141458255324824 
1414	 0.141091314119273 
1415	 0.14000816227511 
1416	 0.138615321373537 
1417	 0.13766620346335 
1418	 0.136412006075657 
1419	 0.135542186925207 
1420	 0.135005672320417 
1421	 0.134505475207426 
1422	 0.133978808945081 
1423	 0.133625970411909 
1424	 0.133693787668919 
1425	 0.133281523999407 
1426	 0.132499823274165 
1427	 0.132027817778989 
1428	 0.131510263954719 
1429	 0.131010472196861 
1430	 0.130697634894411 
1431	 0.130348490277527 
1432	 0.129852428663508 
1433	 0.129465259573617 
1434	 0.129054187886349 
1435	 0.128844043012431 
1436	 0.128926516428133 
1437	 0.128722272489969 
1438	 0.128469406116509 
1439	 0.128342259582811 
1440	 0.128077648773386 
1441	 0.127853772137505 
1442	 0.127800991602214 
1443	 0.127685175729451 
1444	 0.127508975221844 
1445	 0.127504567854597 
1446	 0.127667943592009 
1447	 0.128043867695074 
1448	 0.128364255149064 
1449	 0.128792778927931 
1450	 0.129039111650333 
1451	 0.129204297208822 
1452	 0.129459338482406 
1453	 0.12968910938443 
1454	 0.12994978405519 
1455	 0.130347414558614 
1456	 0.130536535206044 
1457	 0.130646450159753 
1458	 0.130708564047859 
1459	 0.130611478731466 
1460	 0.130698646093726 
1461	 0.130814410238954 
1462	 0.13101135768843 
1463	 0.131375011814031 
1464	 0.131672974054858 
1465	 0.132017647375838 
1466	 0.132306558387608 
1467	 0.1323699454763 
1468	 0.132869125203157 
1469	 0.133623528305674 
1470	 0.13427632891786 
1471	 0.135123540368566 
1472	 0.135943448641117 
1473	 0.136510709573716 
1474	 0.137304292613101 
1475	 0.138326802805683 
1476	 0.139240915370209 
1477	 0.140069410497838 
1478	 0.140999111596344 
1479	 0.14193559067287 
1480	 0.1429207429851 
1481	 0.143995661392272 
1482	 0.14503710169474 
1483	 0.146033476946883 
1484	 0.147065675523655 
1485	 0.148042249356201 
1486	 0.149110543595011 
1487	 0.150191032945264 
1488	 0.151375742666809 
1489	 0.152499714276197 
1490	 0.153496571254118 
1491	 0.15456601547682 
1492	 0.155587850931077 
1493	 0.156622780941609 
1494	 0.157731286465505 
1495	 0.158740824780392 
1496	 0.159700506721384 
1497	 0.160707042734674 
1498	 0.161704940822919 
1499	 0.162780496669667 
1500	 0.163946227230444 
1501	 0.165029951276694 
1502	 0.16614416593509 
1503	 0.167230046467747 
1504	 0.168230224528666 
1505	 0.169342532441674 
1506	 0.170524816763921 
1507	 0.171650015132853 
1508	 0.172827564145227 
1509	 0.173897186414822 
1510	 0.174825404429489 
1511	 0.1759328506686 
1512	 0.177093282463351 
1513	 0.178222150032838 
1514	 0.179483426054584 
1515	 0.180614660577865 
1516	 0.181633258081582 
1517	 0.182717988160141 
1518	 0.1838189526248 
1519	 0.184910073406359 
1520	 0.186017482850219 
1521	 0.187104256619061 
1522	 0.188186413864949 
1523	 0.189252901339864 
1524	 0.190291584502314 
1525	 0.191361926838154 
1526	 0.192439487627369 
1527	 0.193521773617902 
1528	 0.194638627798383 
1529	 0.19573438039062 
1530	 0.196867130173356 
1531	 0.197903705583271 
1532	 0.198865750043047 
1533	 0.199865378402999 
1534	 0.200788110157515 
1535	 0.201779346352302 
1536	 0.202882302787697 
1537	 0.203898267048039 
1538	 0.204837885007046 
1539	 0.205863524055912 
1540	 0.206936522400498 
1541	 0.207943511595859 
1542	 0.208976238010699 
1543	 0.209994072861642 
1544	 0.210932953696019 
1545	 0.211899247047772 
1546	 0.212966546246354 
1547	 0.213913635170219 
1548	 0.214747948991923 
1549	 0.215627185941649 
1550	 0.216429294048839 
1551	 0.217304580491589 
1552	 0.218283103234608 
1553	 0.21921106426414 
1554	 0.220142861013688 
1555	 0.221064839017294 
1556	 0.221983626132807 
1557	 0.222861972411231 
1558	 0.223655822316029 
1559	 0.224537983469613 
1560	 0.225469221013729 
1561	 0.226362141167729 
1562	 0.227358956979993 
1563	 0.228272082765995 
1564	 0.229060443456357 
1565	 0.229881072360682 
1566	 0.230767765273797 
1567	 0.231578038266219 
1568	 0.232426409137026 
1569	 0.233310000247059 
1570	 0.23416345817688 
1571	 0.235010280649566 
1572	 0.235788275749694 
1573	 0.236515772305107 
1574	 0.237316526120384 
1575	 0.238097366225055 
1576	 0.238827581949972 
1577	 0.239567752342536 
1578	 0.240341875876398 
1579	 0.241023613709495 
1580	 0.241818336073584 
1581	 0.242788473350374 
1582	 0.243502085495284 
1583	 0.244107513465865 
1584	 0.244745363539157 
1585	 0.245287925222932 
1586	 0.245886514603104 
1587	 0.246491662181244 
1588	 0.24718142907336 
1589	 0.247887601246404 
1590	 0.248632244887882 
1591	 0.249518259082971 
1592	 0.250230669090404 
1593	 0.250886779158224 
1594	 0.251499087554056 
1595	 0.252005306591052 
1596	 0.252623441354342 
1597	 0.253273573197405 
1598	 0.253875003193426 
1599	 0.254497512814632 
1600	 0.255115643224577 
1601	 0.255671153523611 
1602	 0.256295745143338 
1603	 0.257002771396877 
1604	 0.25763176957811 
1605	 0.258252725472346 
1606	 0.258797156920942 
1607	 0.259264581593355 
1608	 0.259796455407641 
1609	 0.260268930270055 
1610	 0.260846907923015 
1611	 0.261541068360096 
1612	 0.262107163796091 
1613	 0.26268525049791 
1614	 0.26315098642817 
1615	 0.263470401735535 
1616	 0.263920970326412 
1617	 0.264364145533313 
1618	 0.264855420815751 
1619	 0.265427353534458 
1620	 0.265960480733918 
1621	 0.266513876322046 
1622	 0.26697172584809 
1623	 0.267399999677274 
1624	 0.267836338694413 
1625	 0.26820498771621 
1626	 0.268585390460545 
1627	 0.26899430472024 
1628	 0.269387149402741 
1629	 0.269731018561701 
1630	 0.270120153142464 
1631	 0.270533600212858 
1632	 0.270991877640759 
1633	 0.271508971633175 
1634	 0.271929560622874 
1635	 0.272383745101878 
1636	 0.27273926255418 
1637	 0.272941582853097 
1638	 0.273267033719836 
1639	 0.273640900291296 
1640	 0.273948701081933 
1641	 0.274273514562699 
1642	 0.274549801536115 
1643	 0.274729196298219 
1644	 0.275000412900881 
1645	 0.275284244683309 
1646	 0.27559467529391 
1647	 0.275937119675301 
1648	 0.27633197778421 
1649	 0.276805308531227 
1650	 0.277149520114713 
1651	 0.277524690045088 
1652	 0.277719770513056 
1653	 0.277737801796082 
1654	 0.2778651948852 
1655	 0.277907032984656 
1656	 0.278119700445002 
1657	 0.278486609837378 
1658	 0.278649087822612 
1659	 0.278853437835308 
1660	 0.279006610461606 
1661	 0.279000544409621 
1662	 0.279071073817889 
1663	 0.279345691589339 
1664	 0.279678249630252 
1665	 0.279757656032191 
1666	 0.279833537475541 
1667	 0.279897052828325 
1668	 0.279887313456594 
1669	 0.280004409050339 
1670	 0.280141715715547 
1671	 0.280314289130651 
1672	 0.280487451017082 
1673	 0.280643486453038 
1674	 0.280727537012935 
1675	 0.280734808373874 
1676	 0.280763902506586 
1677	 0.280771097344971 
1678	 0.280856031239585 
1679	 0.280975847869975 
1680	 0.281098254238156 
1681	 0.281227506928732 
1682	 0.281259028969374 
1683	 0.281306776571707 
1684	 0.281155893916123 
1685	 0.28091438038127 
1686	 0.280876458407734 
1687	 0.28084784707575 
1688	 0.280861119920407 
1689	 0.28085293898812 
1690	 0.280717573938434 
1691	 0.280680384393525 
1692	 0.280865590654409 
1693	 0.280775079132779 
1694	 0.280503628253598 
1695	 0.280310668061285 
1696	 0.279955672786944 
1697	 0.279666389795917 
1698	 0.279454113591512 
1699	 0.279281803700789 
1700	 0.279116774430516 
1701	 0.278941890092929 
1702	 0.278895337435698 
1703	 0.278742667305173 
1704	 0.278478890713362 
1705	 0.278225156157056 
1706	 0.277927280818861 
1707	 0.277673978762102 
1708	 0.277406608384949 
1709	 0.277172787661283 
1710	 0.277019775135533 
1711	 0.276801801704771 
1712	 0.276589824372839 
1713	 0.276334372387751 
1714	 0.276117948006907 
1715	 0.275669119505488 
1716	 0.274987202765152 
1717	 0.27448884215525 
1718	 0.273841047848779 
1719	 0.273399558645336 
1720	 0.273289156766856 
1721	 0.272906202183296 
1722	 0.272384360539062 
1723	 0.271937946995369 
1724	 0.271452685862098 
1725	 0.270999369550473 
1726	 0.270626336709149 
1727	 0.270221772874814 
1728	 0.26975758525569 
1729	 0.269336315151454 
1730	 0.268929433482551 
1731	 0.268650128715405 
1732	 0.268188081160762 
1733	 0.267563344670067 
1734	 0.267003034169069 
1735	 0.266467327693669 
1736	 0.266203454319681 
1737	 0.265939413364323 
1738	 0.265511607566085 
1739	 0.264873297369146 
1740	 0.264160511996202 
1741	 0.26364333578528 
1742	 0.263106884919913 
1743	 0.262591016555153 
1744	 0.261985928951816 
1745	 0.261336849271706 
1746	 0.260792490395727 
1747	 0.260215804469987 
1748	 0.259673646717973 
1749	 0.259005946911085 
1750	 0.258342269590697 
1751	 0.25801855817668 
1752	 0.257493917437815 
1753	 0.256656404176684 
1754	 0.255867283875863 
1755	 0.254803357320136 
1756	 0.25374811592443 
1757	 0.253138091909873 
1758	 0.252507032732235 
1759	 0.252006604119918 
1760	 0.251433110677003 
1761	 0.250888414238172 
1762	 0.250248051727634 
1763	 0.249520329926728 
1764	 0.248827233364258 
1765	 0.248052286185244 
1766	 0.247389487061238 
1767	 0.24680791624877 
1768	 0.246159588693923 
1769	 0.245486865733782 
1770	 0.24497035287658 
1771	 0.244618368397793 
1772	 0.244037653506831 
1773	 0.243412827265755 
1774	 0.242509101793479 
1775	 0.241746448893779 
1776	 0.241421584670158 
1777	 0.241031918253381 
1778	 0.240863200424313 
1779	 0.24065366801567 
1780	 0.240048132156283 
1781	 0.239771270575174 
1782	 0.239489842729867 
1783	 0.238845010846961 
1784	 0.238359928868706 
1785	 0.238013820204455 
1786	 0.237432989910917 
1787	 0.236919861605145 
1788	 0.236827423119489 
1789	 0.236509406670429 
1790	 0.235789762354713 
1791	 0.235781016644736 
1792	 0.23550749244779 
1793	 0.234631671492069 
1794	 0.234858011853263 
1795	 0.234638609671652 
1796	 0.233559276728365 
1797	 0.233322227755377 
1798	 0.232686485840099 
1799	 0.231642473885508 
1800	 0.231770914995325 
1801	 0.225477795216271 
1802	 0.225329960117364 
1803	 0.225315229195191 
1804	 0.226367120973409 
1805	 0.226352048390865 
1806	 0.226140134958759 
1807	 0.225927036513199 
1808	 0.224429724481389 
1809	 0.223876420457899 
1810	 0.223618048568773 
1811	 0.224655322787295 
1812	 0.223910544991612 
1813	 0.221998484472847 
1814	 0.221228666954278 
1815	 0.219954101606233 
1816	 0.218887457197581 
1817	 0.219927756971129 
1818	 0.219708193869746 
1819	 0.218790526404541 
1820	 0.215453965064374 
1821	 0.214649257882136 
1822	 0.214967710309711 
1823	 0.214332825796561 
1824	 0.215314583946256 
1825	 0.215056036717642 
1826	 0.209126510908929 
1827	 0.209112551363144 
1828	 0.212509343959674 
1829	 0.226865769681386 
1830	 0.225498535180142 
1831	 0.2164779701535 
1832	 0.214080728237272 
1833	 0.182373040062657 
1834	 0.168522971807991 
1835	 0.207879106015196 
1836	 0.230267178965729 
1837	 0.266972177391285 
1838	 0.274826765729486 
1839	 0.259388395859984 
1840	 0.201133216218284 
1841	 0.189216584930097 
1842	 0.137625412961617 
1843	 0.157233450758085 
1844	 0.27754920434277 
1845	 0.305943820601887 
1846	 0.317868661816011 
1847	 0.338664750892119 
1848	 0.345377478565966 
1849	 0.305922418996291 
1850	 0.27657731851388 
1851	 0.251983546399166 
1852	 0.2335505421302 
1853	 0.192613195005325 
1854	 0.173078187752841 
1855	 0.183961657243445 
1856	 0.182948747129176 
1857	 0.164951386915314 
1858	 0.169346739878978 
1859	 0.169427880061873 
1860	 0.176450368179358 
1861	 0.182360622441427 
1862	 0.208362695382273 
1863	 0.192470004414975 
1864	 0.124756794974412 
1865	 0.109431545193875 
1866	 0.104308016914803 
1867	 7.92216415002501E-02 
1868	 8.97483395702456E-02 
1869	 0.145878497031433 
1870	 0.167333171119753 
1871	 0.166646454820696 
1872	 0.163561412879488 
1873	 0.146480209151592 
1874	 0.147248222337975 
1875	 0.1692129555865 
1876	 0.150092634281428 
1877	 0.12269860176285 
1878	 0.112720880662771 
1879	 9.67446125707578E-02 
1880	 7.45902602380113E-02 
1881	 6.93505754655611E-02 
1882	 0.078923623877506 
1883	 8.31849083477079E-02 
1884	 9.07684909879578E-02 
1885	 8.99477546638018E-02 
1886	 8.58604666817259E-02 
1887	 8.25982221475471E-02 
1888	 8.55453644181861E-02 
1889	 7.79780735842619E-02 
1890	 7.70633127938036E-02 
1891	 8.40523433603584E-02 
1892	 8.94542819585603E-02 
1893	 9.53934769655542E-02 
1894	 9.53967963284656E-02 
1895	 8.81408942282289E-02 
1896	 9.24860437623213E-02 
1897	 9.15239017473296E-02 
1898	 0.111187601475619 
1899	 0.151005033470988 
1900	 0.166305671896932 
1901	 0.172762539428576 
1902	 0.140226886459818 
1903	 0.130372118747487 
1904	 0.116032801686731 
1905	 0.113641286706009 
1906	 0.132276746701962 
1907	 0.127169301180962 
1908	 0.127954906005403 
1909	 0.112748366564156 
1910	 0.102815135686876 
1911	 9.92126565170643E-02 
1912	 9.27075804875691E-02 
1913	 9.04711422764644E-02 
1914	 8.34275780782151E-02 
1915	 7.26336643577135E-02 
1916	 7.10290105009559E-02 
1917	 7.18494889570225E-02 
1918	 7.13314637546667E-02 
1919	 7.15907877884716E-02 
1920	 6.69740670220146E-02 
1921	 0.063766973389089 
1922	 6.11370544143596E-02 
1923	 5.86521156594272E-02 
1924	 5.68905385848101E-02 
1925	 5.66360286444679E-02 
1926	 5.67522678414485E-02 
1927	 5.64534491949187E-02 
1928	 5.76377299201832E-02 
1929	 5.82733483014344E-02 
1930	 5.77795201119513E-02 
1931	 5.55984867679939E-02 
1932	 5.45214982018003E-02 
1933	 5.56608627656442E-02 
1934	 5.56352011804315E-02 
1935	 0.054400649315429 
1936	 5.47459088650396E-02 
1937	 0.055663942102109 
1938	 5.69196340078594E-02 
1939	 0.058798362437641 
1940	 6.10935444133275E-02 
1941	 6.16308098622445E-02 
1942	 6.16744495419299E-02 
1943	 5.98735213811363E-02 
1944	 5.77047329664662E-02 
1945	 5.85214853535836E-02 
1946	 5.87506585058098E-02 
1947	 5.89500802440803E-02 
1948	 0.060599151803809 
1949	 6.14815779840506E-02 
1950	 6.18699132533111E-02 
1951	 6.10933399402554E-02 
1952	 6.19764447160652E-02 
1953	 6.15001426605699E-02 
1954	 0.061309556746669 
1955	 6.17989617063709E-02 
1956	 6.10156388443502E-02 
1957	 6.19364883634638E-02 
1958	 6.27119495380669E-02 
1959	 0.063307996246216 
1960	 6.44333724780591E-02 
1961	 6.65544200864928E-02 
1962	 6.70133208887209E-02 
1963	 6.75023752183887E-02 
1964	 6.78038821113425E-02 
1965	 6.72554186316503E-02 
1966	 6.71892891903937E-02 
1967	 6.71507257032127E-02 
1968	 6.68837718139766E-02 
1969	 6.72477962068009E-02 
1970	 6.78977499584121E-02 
1971	 6.87365513751581E-02 
1972	 6.99419372874148E-02 
1973	 7.12404297425925E-02 
1974	 7.22140906625964E-02 
1975	 7.28850080403378E-02 
1976	 7.24700371488102E-02 
1977	 7.22605931458712E-02 
1978	 7.28068229339647E-02 
1979	 7.25726633191125E-02 
1980	 7.26619737247575E-02 
1981	 7.30067943152309E-02 
1982	 7.35608176735923E-02 
1983	 7.38965330635903E-02 
1984	 7.49112194572832E-02 
1985	 7.59248404096339E-02 
1986	 7.70956289289747E-02 
1987	 7.75501963638689E-02 
1988	 7.74929918926722E-02 
1989	 7.79296312676495E-02 
1990	 7.81681778134964E-02 
1991	 7.86348847464048E-02 
1992	 7.92050833204985E-02 
1993	 7.97632812144186E-02 
1994	 8.04968450339191E-02 
1995	 0.081307501753791 
1996	 8.21925509089183E-02 
1997	 8.35232852912016E-02 
1998	 8.44935236199104E-02 
1999	 8.50178162560712E-02 
2000	 8.54484499332252E-02 
2001	 8.53724041942972E-02 
2002	 8.52566747229094E-02 
2003	 0.085621739202202 
2004	 8.60370204539371E-02 
2005	 0.086499219053012 
2006	 8.70172580132728E-02 
2007	 0.087919508855842 
2008	 8.82939816421323E-02 
2009	 8.82667617248063E-02 
2010	 8.85305841414263E-02 
2011	 8.87447819699128E-02 
2012	 8.90189019598024E-02 
2013	 8.94565075247815E-02 
2014	 8.97827831126291E-02 
2015	 8.99922650949185E-02 
2016	 9.10184174368469E-02 
2017	 9.25427526008047E-02 
2018	 0.093071797527207 
2019	 9.35797878449014E-02 
2020	 9.39102323877722E-02 
2021	 9.44802701723386E-02 
2022	 0.094778035946128 
2023	 9.53561188985178E-02 
2024	 9.62258107692331E-02 
2025	 9.65697740968368E-02 
2026	 9.67234476783122E-02 
2027	 9.72160921137865E-02 
2028	 9.79584348441412E-02 
2029	 9.84462977978832E-02 
2030	 9.86710196949433E-02 
2031	 9.91682003771606E-02 
2032	 9.96679035133253E-02 
2033	 0.10004671953154 
2034	 0.100550732411069 
2035	 0.101398006257941 
2036	 0.102233956707714 
2037	 0.102964207325952 
2038	 0.103560999476609 
2039	 0.104476348929881 
2040	 0.1050324167407 
2041	 0.105147969264352 
2042	 0.105852093237978 
2043	 0.106331554645015 
2044	 0.106551452875883 
2045	 0.106849166283784 
2046	 0.10726041094633 
2047	 0.107563627429532 
2048	 0.108008505017116 
2049	 0.10862844098844 
2050	 0.109708262518554 
2051	 0.110547899269181 
2052	 0.111157303359044 
2053	 0.111991381984734 
2054	 0.112229903640542 
2055	 0.11236995335973 
2056	 0.112743011252413 
2057	 0.112765961140339 
2058	 0.11327386094521 
2059	 0.113840569394943 
2060	 0.114742358015772 
2061	 0.115099974909664 
2062	 0.115694838959336 
2063	 0.115951483165294 
2064	 0.115772806687441 
2065	 0.116289884745505 
2066	 0.117004624811652 
2067	 0.1175346423537 
2068	 0.118294648711264 
2069	 0.119099124233834 
2070	 0.119540021909762 
2071	 0.120061517212085 
2072	 0.120550781518923 
2073	 0.121220658936447 
2074	 0.121231476400927 
2075	 0.121312517901889 
2076	 0.121841412409453 
2077	 0.12231891699011 
2078	 0.123289414380282 
2079	 0.124081768870097 
2080	 0.124356881331393 
2081	 0.124901563031343 
2082	 0.125178205940507 
2083	 0.125494216616298 
2084	 0.126261427779921 
2085	 0.126482790253532 
2086	 0.126774963327598 
2087	 0.127272560182257 
2088	 0.12795884200864 
2089	 0.128336704410391 
2090	 0.128974474399931 
2091	 0.129738345035231 
2092	 0.1305054365942 
2093	 0.131142538840383 
2094	 0.131661652774076 
2095	 0.132006891821935 
2096	 0.132037756526874 
2097	 0.132252531503434 
2098	 0.132820902335595 
2099	 0.133241615725793 
2100	 0.133769972018834 
2101	 0.134463798213471 
2102	 0.134943388301964 
2103	 0.135174820531166 
2104	 0.135841906111889 
2105	 0.136463163092086 
2106	 0.136725619045857 
2107	 0.137326911787231 
2108	 0.137802588935978 
2109	 0.13816786613857 
2110	 0.138963324791677 
2111	 0.139845896722048 
2112	 0.140537970920063 
2113	 0.141193245518556 
2114	 0.141906289856448 
2115	 0.142610481507204 
2116	 0.143090943907713 
2117	 0.143664802276498 
2118	 0.144446576251612 
2119	 0.144960840350658 
2120	 0.145274098311093 
2121	 0.145617326497216 
2122	 0.146138720662322 
2123	 0.146295369104532 
2124	 0.146390923990539 
2125	 0.147053554087817 
2126	 0.147597592061789 
2127	 0.147865242158909 
2128	 0.148182117316879 
2129	 0.148611965119469 
2130	 0.148887793791566 
2131	 0.149026851746921 
2132	 0.149704115095858 
2133	 0.150154511101293 
2134	 0.150605952465147 
2135	 0.15097786540996 
2136	 0.151921554540119 
2137	 0.15228585599137 
2138	 0.152729426452998 
2139	 0.153479425998504 
2140	 0.153962546618397 
2141	 0.154652494716118 
2142	 0.155113151224762 
2143	 0.155332186305336 
2144	 0.155367480217519 
2145	 0.155231960797958 
2146	 0.155528085570389 
2147	 0.156183843922053 
2148	 0.156629772433709 
2149	 0.156933468732665 
2150	 0.15705034369298 
2151	 0.157489497397061 
2152	 0.158212994528872 
2153	 0.158646841432273 
2154	 0.159137800464677 
2155	 0.159783341998359 
2156	 0.159849747833844 
2157	 0.159002036219957 
2158	 0.158799867377493 
2159	 0.15896296375932 
2160	 0.159376681603186 
2161	 0.160309615513965 
2162	 0.160913641224965 
2163	 0.161261021375099 
2164	 0.161435329917159 
2165	 0.161168967427059 
2166	 0.161253793091815 
2167	 0.161298700089988 
2168	 0.161494728870147 
2169	 0.161920481707939 
2170	 0.162232025987499 
2171	 0.16262826188328 
2172	 0.162970564965672 
2173	 0.162804196243104 
2174	 0.162111886899683 
2175	 0.161676852854669 
2176	 0.161187818953524 
2177	 0.161232212130943 
2178	 0.162073354147743 
2179	 0.16259439849264 
2180	 0.163394568725613 
2181	 0.163601434271996 
2182	 0.163224931393158 
2183	 0.163243891367603 
2184	 0.163011720342191 
2185	 0.163498172867787 
2186	 0.164160122494348 
2187	 0.164353678418615 
2188	 0.164333791852986 
2189	 0.164556059279254 
2190	 0.164609949322904 
2191	 0.164439509200288 
2192	 0.164838102350955 
2193	 0.164918211870441 
2194	 0.164738337098717 
2195	 0.16513512458632 
2196	 0.165571805334066 
2197	 0.165985162495046 
2198	 0.16639031332139 
2199	 0.166540866907226 
2200	 0.166422241941212 
2201	 0.166220103769654 
2202	 0.166058488573923 
2203	 0.1658722309681 
2204	 0.165841525784693 
2205	 0.165668531894241 
2206	 0.165862675480788 
2207	 0.166070820677526 
2208	 0.165797998400789 
2209	 0.165056984809191 
2210	 0.164979743145895 
2211	 0.164768545480453 
2212	 0.164717031165048 
2213	 0.165619689681175 
2214	 0.166456167309187 
2215	 0.167033527265523 
2216	 0.167412740327243 
2217	 0.16765004887541 
2218	 0.167813588536151 
2219	 0.167809921736691 
2220	 0.167837232897781 
2221	 0.16756149495637 
2222	 0.167564252378885 
2223	 0.167852616456871 
2224	 0.167638085140378 
2225	 0.167942770745473 
2226	 0.168300781909559 
2227	 0.167973733681792 
2228	 0.16798790923256 
2229	 0.167888964772084 
2230	 0.167409624355842 
2231	 0.166993260201558 
2232	 0.16657025705806 
2233	 0.166079527955006 
2234	 0.165463294134219 
2235	 0.165028258750532 
2236	 0.164664860829819 
2237	 0.164555031382221 
2238	 0.165054208143128 
2239	 0.165512734781787 
2240	 0.165495967912807 
2241	 0.165913195379836 
2242	 0.165901112787222 
2243	 0.165518293882035 
2244	 0.164850496476811 
2245	 0.163887480483359 
2246	 0.163221693660424 
2247	 0.162408925944944 
2248	 0.161805144519853 
2249	 0.161533292848395 
2250	 0.161498052389158 
2251	 0.161020063041443 
2252	 0.16075580601129 
2253	 0.160929236224585 
2254	 0.15999856943187 
2255	 0.159240877174007 
2256	 0.159112167692708 
2257	 0.159372756887092 
2258	 0.159667680875582 
2259	 0.160121152626575 
2260	 0.159993694919954 
2261	 0.159241156799976 
2262	 0.157664618772088 
2263	 0.1560133921198 
2264	 0.154874027538127 
2265	 0.153910867441606 
2266	 0.154086541035742 
2267	 0.154652034044359 
2268	 0.154885048960905 
2269	 0.15475437127461 
2270	 0.153175937699078 
2271	 0.152007347340142 
2272	 0.151617364680463 
2273	 0.151301371516426 
2274	 0.151462065118473 
2275	 0.151355068125726 
2276	 0.15148765510543 
2277	 0.150863782889708 
2278	 0.150220426339072 
2279	 0.150380336324871 
2280	 0.149578329404127 
2281	 0.14963089913616 
2282	 0.149936832636125 
2283	 0.148768948685252 
2284	 0.148791073617097 
2285	 0.148653368978176 
2286	 0.14782823444974 
2287	 0.146619686070011 
2288	 0.146341803881443 
2289	 0.145096609741584 
2290	 0.144632625090933 
2291	 0.144317932024774 
2292	 0.14340432651363 
2293	 0.143365625250866 
2294	 0.142091954059701 
2295	 0.141707980279404 
2296	 0.142422491409768 
2297	 0.141477570431667 
2298	 0.140402761807409 
2299	 0.140127632166796 
2300	 0.14066450415411 
2301	 0.141383017541765 
2302	 0.140923962320713 
2303	 0.139561012321528 
2304	 0.137346744901632 
2305	 0.135271751934916 
2306	 0.134561846641036 
2307	 0.13403602659597 
2308	 0.133772391257782 
2309	 0.133484199639666 
2310	 0.133054843189763 
2311	 0.13303834193251 
2312	 0.132740891709955 
2313	 0.132087775136833 
2314	 0.131133930410322 
2315	 0.130216610784896 
2316	 0.130623305014842 
2317	 0.131551570657428 
2318	 0.131943251371824 
2319	 0.133231324401658 
2320	 0.133009185634772 
2321	 0.132217023567369 
2322	 0.130512069132192 
2323	 0.129891995838071 
2324	 0.1288981749439 
2325	 0.128169616632291 
2326	 0.128862344918332 
2327	 0.129625636189545 
2328	 0.130252546440266 
2329	 0.131036913410315 
2330	 0.13112119589232 
2331	 0.129158657536905 
2332	 0.127141739690269 
2333	 0.12581026863262 
2334	 0.125573588359827 
2335	 0.126535397992088 
2336	 0.126874633553561 
2337	 0.126716117445343 
2338	 0.124966791647529 
2339	 0.122731694794946 
2340	 0.12147283851095 
2341	 0.120057230728076 
2342	 0.119511728025965 
2343	 0.119898436030247 
2344	 0.119989226512276 
2345	 0.118998377017243 
2346	 0.118301213378775 
2347	 0.118000678828102 
2348	 0.117722460391227 
2349	 0.119224273879704 
2350	 0.12076731190861 
2351	 0.120612000374449 
2352	 0.119136745777213 
2353	 0.118202449473494 
2354	 0.117719748632114 
2355	 0.116867132133848 
2356	 0.116173026940246 
2357	 0.11398506058671 
2358	 0.112416344837017 
2359	 0.112618767206369 
2360	 0.112887351094314 
2361	 0.114526213346359 
2362	 0.114318623124323 
2363	 0.112374841564396 
2364	 0.112681583297936 
2365	 0.113683694774502 
2366	 0.115383801048015 
2367	 0.115467090487611 
2368	 0.112552906387318 
2369	 0.109896761814399 
2370	 0.107431530015765 
2371	 0.106582228448492 
2372	 0.106573882411042 
2373	 0.109195267119767 
2374	 0.109718401124548 
2375	 0.109956271680449 
2376	 0.109160301596232 
2377	 0.107141084107191 
2378	 0.105732124278332 
2379	 0.105112254214511 
2380	 0.104168759877224 
2381	 0.101816289385522 
2382	 0.101030575934042 
2383	 9.93847196834872E-02 
2384	 0.098498271677152 
2385	 0.101577982131798 
2386	 0.102806334258633 
2387	 0.102344295819262 
2388	 0.103021041216748 
2389	 0.103377963379595 
2390	 0.102605667226736 
2391	 0.101723638525306 
2392	 0.101371772419463 
2393	 0.101053992034784 
2394	 0.100784117087803 
2395	 0.102109242045141 
2396	 0.102604276778946 
2397	 0.101077716127109 
2398	 0.101076771441928 
2399	 0.101231156275073 
2400	 0.100636668583484 
2401	 0.101190343776876 
2402	 0.100350392344905 
2403	 9.75390092219361E-02 
2404	 9.86406419706931E-02 
2405	 9.90848518504413E-02 
2406	 9.82250351174506E-02 
2407	 9.90672229645431E-02 
2408	 9.75251732811901E-02 
2409	 9.31795896896644E-02 
2410	 9.04020528135192E-02 
2411	 9.00457573376422E-02 
2412	 9.12668038905882E-02 
2413	 9.60381773410871E-02 
2414	 9.94637018528211E-02 
2415	 9.89747325264924E-02 
2416	 9.61014613721161E-02 
2417	 8.97159493938032E-02 
2418	 8.87697425498428E-02 
2419	 8.97234403979194E-02 
2420	 8.59460355481778E-02 
2421	 8.49445730281626E-02 
2422	 8.30583799087981E-02 
2423	 7.85326496526543E-02 
2424	 7.78808681712224E-02 
2425	 8.05645609821558E-02 
2426	 8.22205340077773E-02 
2427	 7.75935486686908E-02 
2428	 7.51354278226309E-02 
2429	 7.27057072919815E-02 
2430	 6.45416355253445E-02 
2431	 6.88538279909189E-02 
2432	 7.38860430509627E-02 
2433	 7.20000332983167E-02 
2434	 7.34151677628234E-02 
2435	 7.33973170720046E-02 
2436	 7.29503628336015E-02 
2437	 7.64382969825895E-02 
2438	 7.67091793333997E-02 
2439	 7.16141086099794E-02 
2440	 7.00268894709663E-02 
2441	 6.73617337750416E-02 
2442	 6.77896706495949E-02 
2443	 7.39311989478472E-02 
2444	 7.67074947022566E-02 
2445	 8.18412310009714E-02 
2446	 8.24163231480678E-02 
2447	 7.85709693720134E-02 
2448	 7.55987077315132E-02 
2449	 6.75282586493884E-02 
2450	 6.36315534267584E-02 
2451	 5.71576186351296E-02 
2452	 6.01382923129664E-02 
2453	 7.50831014689021E-02 
2454	 8.12950937013103E-02 
2455	 9.32915626677126E-02 
2456	 9.40539987211268E-02 
2457	 8.10923365885313E-02 
2458	 7.59126275192677E-02 
2459	 6.59995624578109E-02 
2460	 6.55077688323031E-02 
2461	 7.61870095662257E-02 
2462	 7.95284156137891E-02 
2463	 8.58081178617535E-02 
2464	 8.90885367276676E-02 
2465	 8.52379506306187E-02 
2466	 8.24343436371745E-02 
2467	 8.08740753061284E-02 
2468	 7.79290469850534E-02 
2469	 7.11658709846319E-02 
2470	 6.77291072258294E-02 
2471	 6.57165049954874E-02 
2472	 6.25448771542186E-02 
2473	 5.41616565555825E-02 
2474	 5.54430376782488E-02 
2475	 6.53914727924585E-02 
2476	 7.61082431991067E-02 
2477	 0.103351895167725 
2478	 0.116665883276474 
2479	 0.12463848717448 
2480	 0.121774284495453 
2481	 0.10236370764758 
2482	 0.089506535622997 
2483	 6.01746594842429E-02 
2484	 4.14901079022144E-02 
2485	 2.44429894113885E-02 
2486	 2.79020856222542E-02 
2487	 3.73842376560243E-02 
2488	 8.46124059988077E-02 
2489	 0.128330789594625 
2490	 0.121628838426717 
2491	 0.160526230381811 
2492	 0.137949424277059 
2493	 0.101657023185901 
2494	 0.128870852642579 
2495	 0.126585672083215 
2496	 0.162785779537074 
2497	 0.138202353412138 
2498	 0.05225025779104 
2499	 2.15212565497355E-02 
2500	 2.81728510509746E-02 
