Wavelength	ref00077.asd
350	 7.00041542037218E-02 
351	 6.98234981017205E-02 
352	 7.02673855508629E-02 
353	 7.07880358580351E-02 
354	 7.05599197969556E-02 
355	 7.05356524054069E-02 
356	 7.12021076923428E-02 
357	 7.14776341325109E-02 
358	 7.12386958450821E-02 
359	 7.11040785720437E-02 
360	 7.16920770678102E-02 
361	 7.27184662245326E-02 
362	 7.23310866937881E-02 
363	 7.14683799863829E-02 
364	 7.24922481956738E-02 
365	 7.25719522075903E-02 
366	 7.25186654119077E-02 
367	 7.27341747967652E-02 
368	 7.24250165877558E-02 
369	 7.26056023308319E-02 
370	 7.28511418198956E-02 
371	 7.27220393382376E-02 
372	 7.28113302784632E-02 
373	 7.29113299855311E-02 
374	 7.31098132458619E-02 
375	 7.35518223887117E-02 
376	 7.36456253612699E-02 
377	 7.38045736333012E-02 
378	 7.41532338052588E-02 
379	 7.43654174374308E-02 
380	 7.43718270412322E-02 
381	 7.44310260489163E-02 
382	 7.47118742489988E-02 
383	 7.49807534638455E-02 
384	 7.49606892301902E-02 
385	 7.49496005186693E-02 
386	 7.53887388031023E-02 
387	 0.075824644383028 
388	 7.60378063768542E-02 
389	 7.60807386476966E-02 
390	 7.62638963187157E-02 
391	 7.68075522753978E-02 
392	 7.71234880114968E-02 
393	 7.69319444809518E-02 
394	 7.68589327737843E-02 
395	 7.75678946554853E-02 
396	 7.83377660674436E-02 
397	 7.82397331273574E-02 
398	 7.80462525398813E-02 
399	 7.80806382326312E-02 
400	 7.85001797131964E-02 
401	 7.92543485873957E-02 
402	 7.90019094154534E-02 
403	 7.86873649711728E-02 
404	 7.89557147798532E-02 
405	 7.91750757770028E-02 
406	 7.94281791707091E-02 
407	 7.96095835466526E-02 
408	 7.96329801814709E-02 
409	 7.97380007486807E-02 
410	 7.99168419155483E-02 
411	 8.01299165329303E-02 
412	 0.080334961913449 
413	 8.07771337895191E-02 
414	 0.081041652290507 
415	 8.09856670491694E-02 
416	 8.12174170925346E-02 
417	 8.15829418234565E-02 
418	 8.18595789857912E-02 
419	 8.18791714228607E-02 
420	 8.18914845489844E-02 
421	 8.21860225200197E-02 
422	 8.26317327042866E-02 
423	 8.27646713756971E-02 
424	 8.28879160787362E-02 
425	 8.31368495277179E-02 
426	 8.34940023323017E-02 
427	 0.083687491167759 
428	 8.37651442096819E-02 
429	 8.38512297290461E-02 
430	 8.40616082078477E-02 
431	 8.42662031995733E-02 
432	 8.46196897706901E-02 
433	 8.49603190295193E-02 
434	 8.49111814168618E-02 
435	 8.53164610843681E-02 
436	 8.55491610531918E-02 
437	 8.53376847429878E-02 
438	 8.56297572672794E-02 
439	 8.59008641973517E-02 
440	 8.60708479080159E-02 
441	 8.62172110194111E-02 
442	 8.64125500855805E-02 
443	 8.66777278224599E-02 
444	 8.69587327441297E-02 
445	 8.71444483917528E-02 
446	 8.72728334646022E-02 
447	 8.75009202801658E-02 
448	 8.78628997210337E-02 
449	 8.80508550369739E-02 
450	 8.82426202380878E-02 
451	 0.088435706669266 
452	 8.85706757446698E-02 
453	 8.87136642425445E-02 
454	 8.89403767050799E-02 
455	 8.92106309431258E-02 
456	 8.93556093571372E-02 
457	 8.95331564139295E-02 
458	 8.96948094806949E-02 
459	 8.97935992711092E-02 
460	 8.99094697867261E-02 
461	 0.090147509828907 
462	 9.04169578434793E-02 
463	 9.05381989163238E-02 
464	 9.05972622532487E-02 
465	 9.07425636588608E-02 
466	 0.09096856450233 
467	 9.10319243294782E-02 
468	 0.091207580659339 
469	 9.14638808443164E-02 
470	 9.16804874915574E-02 
471	 9.17492671160394E-02 
472	 0.091871603467892 
473	 9.21008749964811E-02 
474	 9.23601850683163E-02 
475	 9.24525033440219E-02 
476	 9.25220458891283E-02 
477	 9.26747634787437E-02 
478	 9.28530644988862E-02 
479	 9.30190149985451E-02 
480	 9.31987007519963E-02 
481	 9.34184784586518E-02 
482	 9.35799229583559E-02 
483	 0.093693897429371 
484	 9.38708472950264E-02 
485	 9.42866055478403E-02 
486	 9.44963583145204E-02 
487	 9.46363793558192E-02 
488	 9.48955830279468E-02 
489	 9.52909018927434E-02 
490	 9.56330428705927E-02 
491	 9.58994317325062E-02 
492	 9.61585802962162E-02 
493	 9.64821258301182E-02 
494	 9.68667578447289E-02 
495	 9.72742692986141E-02 
496	 9.76356421934428E-02 
497	 9.80102802322383E-02 
498	 9.84554744215116E-02 
499	 9.89768157481177E-02 
500	 9.94071403960481E-02 
501	 9.99223859460667E-02 
502	 0.100558576890214 
503	 0.101244566489738 
504	 0.101839518915913 
505	 0.102375888354953 
506	 0.102940348662829 
507	 0.103667417927404 
508	 0.104403536975284 
509	 0.105109939424599 
510	 0.10579958897291 
511	 0.10653412891573 
512	 0.107363805738289 
513	 0.108175855187586 
514	 0.108756664362496 
515	 0.10961089259518 
516	 0.110543151934277 
517	 0.111321341067307 
518	 0.111928566899545 
519	 0.112712356572356 
520	 0.113547035154636 
521	 0.114183942897608 
522	 0.114882288067513 
523	 0.115676142904445 
524	 0.116415005766967 
525	 0.116762961553661 
526	 0.117343955379676 
527	 0.118125123934653 
528	 0.118884469979903 
529	 0.119347123993743 
530	 0.119717632486409 
531	 0.120134870363139 
532	 0.120675333731619 
533	 0.121209029355523 
534	 0.121748799866143 
535	 0.122251230332112 
536	 0.122544339203325 
537	 0.123033315320606 
538	 0.123567694501644 
539	 0.12392937681482 
540	 0.124453052478445 
541	 0.124936920869599 
542	 0.125345294472062 
543	 0.12579796999314 
544	 0.126295350016395 
545	 0.126785908420981 
546	 0.127223769711446 
547	 0.127579215197443 
548	 0.128027273009368 
549	 0.12846587292999 
550	 0.128747483477527 
551	 0.129253890613299 
552	 0.129728701759832 
553	 0.130068477579511 
554	 0.130408505360645 
555	 0.130744168707723 
556	 0.131092541495253 
557	 0.131474733106338 
558	 0.131930149823182 
559	 0.132321029387558 
560	 0.132663069239216 
561	 0.133068402402264 
562	 0.133481944013871 
563	 0.133848534066113 
564	 0.134152668417333 
565	 0.134438992585941 
566	 0.134781192598748 
567	 0.135075963686089 
568	 0.135245244959 
569	 0.135664310963638 
570	 0.135878254683724 
571	 0.135885404795983 
572	 0.136119263707028 
573	 0.136304014166993 
574	 0.136503631404976 
575	 0.136767196120501 
576	 0.136942122859045 
577	 0.137162190744681 
578	 0.137452604356234 
579	 0.13776495893444 
580	 0.137935510827375 
581	 0.138114833014596 
582	 0.138313379144158 
583	 0.138320082219949 
584	 0.138323449512419 
585	 0.138424466089049 
586	 0.138659076856087 
587	 0.138936373681406 
588	 0.139175292019777 
589	 0.139320952034257 
590	 0.139356365475264 
591	 0.13943077892556 
592	 0.139506582194663 
593	 0.13960602384614 
594	 0.139929197504535 
595	 0.140147895927893 
596	 0.140209030381619 
597	 0.14018973214413 
598	 0.140257288155524 
599	 0.140351637478795 
600	 0.140449143973672 
601	 0.140570786817643 
602	 0.140637372679118 
603	 0.140729744923098 
604	 0.140886220856906 
605	 0.140955477115199 
606	 0.140962987635726 
607	 0.140966890407522 
608	 0.141034937649077 
609	 0.141134424642353 
610	 0.141215479342368 
611	 0.141264100832443 
612	 0.141318914707097 
613	 0.141357962196045 
614	 0.14133908030995 
615	 0.141266929850809 
616	 0.141344788973553 
617	 0.141337171373705 
618	 0.141289971609617 
619	 0.141416860734282 
620	 0.141412117404452 
621	 0.1414204418623 
622	 0.141535199131486 
623	 0.141637014285887 
624	 0.141727518851192 
625	 0.141817041796492 
626	 0.141931223128985 
627	 0.142129843092559 
628	 0.142349529474165 
629	 0.142520915490774 
630	 0.142583233958823 
631	 0.142679220817305 
632	 0.14283837994306 
633	 0.143022641906198 
634	 0.143085084856702 
635	 0.143186536521998 
636	 0.143252260066266 
637	 0.143143515393978 
638	 0.143083950367702 
639	 0.142890089416018 
640	 0.14253973021374 
641	 0.142260642704969 
642	 0.141974971929303 
643	 0.141561402704164 
644	 0.141006555714596 
645	 0.140702807215752 
646	 0.140306223241784 
647	 0.139832542385417 
648	 0.139502978443061 
649	 0.139188825313347 
650	 0.138885962291773 
651	 0.138663682894685 
652	 0.138671895443945 
653	 0.138687174956444 
654	 0.138692660042513 
655	 0.138715414444051 
656	 0.13869242797904 
657	 0.138584437033626 
658	 0.138392304901752 
659	 0.138126647343911 
660	 0.137727909891585 
661	 0.137256037860174 
662	 0.136791650420066 
663	 0.136413313260107 
664	 0.135872015344038 
665	 0.135201992372055 
666	 0.134571003794818 
667	 0.134248919318952 
668	 0.133867398194957 
669	 0.133437096076618 
670	 0.133306725203443 
671	 0.13310637491449 
672	 0.1329838594519 
673	 0.13300843337056 
674	 0.132811989677993 
675	 0.132930323032325 
676	 0.133191262584852 
677	 0.133237754191935 
678	 0.133423554681076 
679	 0.133610212908981 
680	 0.133792629613474 
681	 0.134131720612556 
682	 0.134700822088976 
683	 0.135417605689703 
684	 0.136238647697616 
685	 0.137299450823017 
686	 0.138691164543072 
687	 0.140516223459322 
688	 0.142637762416956 
689	 0.144642519740515 
690	 0.146897946445158 
691	 0.149529432548668 
692	 0.152166701462881 
693	 0.155084531133828 
694	 0.157928053687493 
695	 0.16037663654182 
696	 0.162643242178784 
697	 0.164755249416542 
698	 0.166839828400438 
699	 0.168998329670683 
700	 0.17102910518862 
701	 0.172911755811857 
702	 0.174682357163772 
703	 0.176413505659058 
704	 0.177833472128951 
705	 0.179088849072844 
706	 0.180348966990931 
707	 0.181545866829328 
708	 0.18273465960657 
709	 0.183853700885552 
710	 0.184805778736964 
711	 0.185707334701544 
712	 0.186603754519355 
713	 0.187476824797724 
714	 0.188253691971869 
715	 0.189299126435514 
716	 0.19062590740229 
717	 0.192154727019433 
718	 0.193709810056959 
719	 0.19474088471126 
720	 0.195088868893942 
721	 0.19504384899344 
722	 0.195122468350629 
723	 0.195810346296715 
724	 0.197010185519917 
725	 0.197896017765126 
726	 0.198433168901847 
727	 0.198766257198389 
728	 0.19910867071247 
729	 0.199688355114031 
730	 0.200078381483389 
731	 0.2003007373147 
732	 0.200511447272521 
733	 0.200470764083819 
734	 0.200628691521708 
735	 0.201052385063266 
736	 0.201440523076675 
737	 0.201747100317802 
738	 0.202067021386654 
739	 0.202450275733884 
740	 0.202774553475097 
741	 0.20310594665752 
742	 0.203383194091476 
743	 0.203588100606798 
744	 0.204090291239359 
745	 0.204540130763146 
746	 0.204844013778257 
747	 0.205135686382075 
748	 0.205541060255083 
749	 0.205963490598687 
750	 0.206344299675235 
751	 0.2067485806776 
752	 0.207017581390949 
753	 0.207318104481401 
754	 0.207785259528565 
755	 0.208113037815882 
756	 0.208441430345346 
757	 0.208763150758249 
758	 0.209004903540622 
759	 0.20925778663968 
760	 0.209756601898932 
761	 0.210528351629463 
762	 0.210814206978062 
763	 0.211189771769761 
764	 0.211568159536274 
765	 0.211834826419175 
766	 0.212168549273173 
767	 0.212350649181619 
768	 0.212522159075711 
769	 0.212848410590096 
770	 0.213129091127488 
771	 0.213516556543792 
772	 0.213947529934543 
773	 0.21419538479067 
774	 0.214482811202783 
775	 0.214816242068336 
776	 0.215137348342551 
777	 0.21533602744044 
778	 0.215628465491606 
779	 0.216017998468847 
780	 0.216422105990777 
781	 0.216725555944259 
782	 0.216909007208095 
783	 0.21719503579719 
784	 0.217808261508499 
785	 0.218049143733817 
786	 0.218397728548923 
787	 0.218917258923131 
788	 0.21915573649483 
789	 0.219719991013056 
790	 0.220284041495377 
791	 0.220554296722051 
792	 0.220661914323277 
793	 0.220906039532136 
794	 0.221271206443371 
795	 0.221634750656819 
796	 0.22198180905196 
797	 0.22220248824232 
798	 0.222440329971454 
799	 0.222924532212416 
800	 0.223329440279933 
801	 0.223674335148526 
802	 0.224007462763905 
803	 0.224367715414581 
804	 0.224594371602653 
805	 0.2248582018855 
806	 0.225238626293329 
807	 0.225497853914013 
808	 0.225771231886824 
809	 0.226111835098911 
810	 0.226571937083245 
811	 0.227295696537909 
812	 0.228174745601879 
813	 0.229106454493306 
814	 0.230004250285871 
815	 0.230920979980723 
816	 0.231602944023526 
817	 0.231963907834665 
818	 0.232149098902965 
819	 0.232148301389815 
820	 0.232145135140015 
821	 0.232338434377971 
822	 0.232918722495421 
823	 0.233339507122998 
824	 0.233612155966409 
825	 0.233814974065721 
826	 0.233676979956047 
827	 0.233873105647757 
828	 0.234326133362573 
829	 0.234649937463591 
830	 0.234807202384746 
831	 0.234968072309344 
832	 0.235214469294669 
833	 0.235519167209846 
834	 0.235687852731502 
835	 0.23573357041741 
836	 0.235769698480109 
837	 0.235972379871171 
838	 0.236130226441594 
839	 0.236288980649675 
840	 0.236512172890075 
841	 0.236801454391007 
842	 0.23706849144557 
843	 0.237272774680458 
844	 0.237463876460867 
845	 0.237933881835181 
846	 0.238275103281749 
847	 0.238517457009044 
848	 0.238821354062257 
849	 0.238850790903162 
850	 0.238980833388742 
851	 0.239375191723407 
852	 0.239920032751378 
853	 0.239957054736078 
854	 0.240044438111131 
855	 0.240429555059616 
856	 0.240831412327159 
857	 0.241132888855302 
858	 0.241350176770118 
859	 0.24155873483401 
860	 0.241861451818522 
861	 0.242153422297891 
862	 0.242445870650831 
863	 0.242758301333264 
864	 0.24306118513256 
865	 0.243262703888572 
866	 0.243527504597095 
867	 0.243976956318509 
868	 0.244197218333909 
869	 0.244608647623675 
870	 0.245070713580143 
871	 0.245269907858718 
872	 0.245450122262766 
873	 0.245723556424026 
874	 0.246087535876055 
875	 0.246461905293858 
876	 0.246872201228024 
877	 0.247177772006055 
878	 0.247469974508439 
879	 0.248021217811583 
880	 0.248312343196529 
881	 0.248650647152052 
882	 0.249136339650193 
883	 0.249433264816288 
884	 0.24952903535748 
885	 0.24981524996972 
886	 0.250387844834412 
887	 0.250672399459242 
888	 0.250997000009505 
889	 0.251447339679703 
890	 0.251973331529253 
891	 0.252305427044808 
892	 0.253284667962713 
893	 0.254373943546573 
894	 0.254918903948071 
895	 0.255623939993053 
896	 0.256257187571237 
897	 0.257069786443135 
898	 0.258191169241165 
899	 0.25833335601457 
900	 0.25844776916692 
901	 0.258641242755527 
902	 0.258665755671941 
903	 0.259171911460007 
904	 0.2596580703672 
905	 0.259945270484432 
906	 0.260141622170384 
907	 0.260388306170086 
908	 0.261337028047624 
909	 0.262448295054506 
910	 0.26246574829873 
911	 0.263240976277679 
912	 0.264005312629231 
913	 0.264210850461951 
914	 0.26397777976623 
915	 0.264736013214959 
916	 0.265089037332526 
917	 0.264855766952122 
918	 0.265446339264169 
919	 0.265214890914631 
920	 0.265068714788319 
921	 0.265458324016708 
922	 0.265768329335846 
923	 0.26583355757651 
924	 0.266216570399149 
925	 0.267168426310137 
926	 0.268234080743974 
927	 0.26917459357212 
928	 0.270378065998144 
929	 0.271844386189792 
930	 0.27256934860818 
931	 0.275498047422412 
932	 0.278017006402184 
933	 0.278070785455665 
934	 0.278903474719047 
935	 0.280143700178579 
936	 0.281456644986133 
937	 0.282290019384737 
938	 0.281957683681277 
939	 0.281741813550535 
940	 0.28169929908345 
941	 0.281660389189555 
942	 0.281633171342787 
943	 0.281073270317174 
944	 0.281024748494121 
945	 0.281969312574975 
946	 0.282310199347035 
947	 0.282821401730921 
948	 0.28376496557015 
949	 0.284619053513531 
950	 0.283663929793626 
951	 0.283300043669624 
952	 0.283805130963517 
953	 0.284567009270851 
954	 0.284452410080805 
955	 0.285540196440368 
956	 0.285759985790532 
957	 0.284245267253079 
958	 0.284337384761729 
959	 0.283361012934463 
960	 0.283095655497594 
961	 0.284390788547937 
962	 0.28468704119786 
963	 0.283212337314044 
964	 0.28239815271818 
965	 0.283145190831048 
966	 0.282713296785204 
967	 0.282321208519557 
968	 0.281535277716994 
969	 0.280589531413531 
970	 0.281036291862156 
971	 0.280619622044917 
972	 0.280806459714576 
973	 0.281933803249753 
974	 0.281836043191446 
975	 0.281764713624301 
976	 0.281904238680324 
977	 0.281978491797741 
978	 0.281468512315891 
979	 0.28101703027484 
980	 0.281430445431639 
981	 0.282180711970066 
982	 0.281672236989544 
983	 0.282022667474748 
984	 0.282022082734131 
985	 0.281665787713362 
986	 0.282189989887442 
987	 0.282469682943582 
988	 0.282315484729343 
989	 0.282104407087777 
990	 0.282422726189964 
991	 0.282870656619733 
992	 0.282664942913098 
993	 0.282316074257382 
994	 0.282869562488968 
995	 0.283686088789185 
996	 0.283546064298398 
997	 0.283110306882229 
998	 0.283361794506655 
999	 0.282150399762657 
1000	 0.28329058137033 
1001	 0.28044882497412 
1002	 0.280727136562789 
1003	 0.281047683298323 
1004	 0.281514550957982 
1005	 0.281772808220765 
1006	 0.282109473226575 
1007	 0.28230755381841 
1008	 0.282216490500557 
1009	 0.282368531474164 
1010	 0.282696649509267 
1011	 0.282787881284364 
1012	 0.283045556713331 
1013	 0.283351999953658 
1014	 0.283608960914635 
1015	 0.283949080242232 
1016	 0.284242664163832 
1017	 0.284514274625969 
1018	 0.28474494942559 
1019	 0.28497022351065 
1020	 0.285146138185857 
1021	 0.285185659075333 
1022	 0.285375389640069 
1023	 0.285609130661971 
1024	 0.285824440675354 
1025	 0.286171605823722 
1026	 0.286517547558747 
1027	 0.286732224292622 
1028	 0.28691372519388 
1029	 0.287063627430884 
1030	 0.287215400681998 
1031	 0.287502562227721 
1032	 0.287812668487763 
1033	 0.288007990180504 
1034	 0.288180333395554 
1035	 0.288361691702964 
1036	 0.288346051845129 
1037	 0.288563446342355 
1038	 0.288992192898939 
1039	 0.289277339786628 
1040	 0.28942994539563 
1041	 0.289680895026157 
1042	 0.289801035876289 
1043	 0.289810875625383 
1044	 0.29007706105104 
1045	 0.290418434724827 
1046	 0.290586714461393 
1047	 0.290913641610945 
1048	 0.291259358661518 
1049	 0.291474572567142 
1050	 0.291732596929347 
1051	 0.292047245705495 
1052	 0.29226868699388 
1053	 0.292435251855658 
1054	 0.292638467307572 
1055	 0.292882949481713 
1056	 0.293245714699104 
1057	 0.293573828788012 
1058	 0.29388314621268 
1059	 0.294116404748706 
1060	 0.294221950478069 
1061	 0.294333356392377 
1062	 0.294550264987648 
1063	 0.294783658736709 
1064	 0.295016484956547 
1065	 0.295283756739628 
1066	 0.295650420558689 
1067	 0.2958871746002 
1068	 0.296027053349164 
1069	 0.296237926572562 
1070	 0.296406580381818 
1071	 0.296554147154175 
1072	 0.296804401695753 
1073	 0.297146955409115 
1074	 0.297546659987783 
1075	 0.29785839641422 
1076	 0.298124975832498 
1077	 0.298367319253279 
1078	 0.298465477263172 
1079	 0.298604428158602 
1080	 0.298859908311766 
1081	 0.299085563524875 
1082	 0.299274010151628 
1083	 0.299516355196257 
1084	 0.299871480606041 
1085	 0.300210343018126 
1086	 0.300637871589601 
1087	 0.301064235710433 
1088	 0.301339688909435 
1089	 0.301551892205653 
1090	 0.301837100548313 
1091	 0.30220052424502 
1092	 0.302665928920675 
1093	 0.303226580926767 
1094	 0.303621263642967 
1095	 0.303979225664037 
1096	 0.304419073595597 
1097	 0.304875991335376 
1098	 0.305304664824152 
1099	 0.305765087861002 
1100	 0.306297358042959 
1101	 0.306745056167606 
1102	 0.307188615046962 
1103	 0.307814508993004 
1104	 0.308406417607721 
1105	 0.30895303547428 
1106	 0.309726692765135 
1107	 0.310513014395042 
1108	 0.311257008301347 
1109	 0.312088792451466 
1110	 0.31297557740047 
1111	 0.314018070019497 
1112	 0.315190473075328 
1113	 0.316498935260583 
1114	 0.31818413134963 
1115	 0.319825669898726 
1116	 0.321545864786153 
1117	 0.323492124777971 
1118	 0.325394057725012 
1119	 0.327042414983725 
1120	 0.328676364573207 
1121	 0.330076970133895 
1122	 0.33125422862693 
1123	 0.332581871911883 
1124	 0.333460225126537 
1125	 0.334115889639949 
1126	 0.334581285841661 
1127	 0.334678906407281 
1128	 0.334674980402082 
1129	 0.334452556967186 
1130	 0.334230948862849 
1131	 0.333884709860921 
1132	 0.333660080631957 
1133	 0.333412795719231 
1134	 0.333173849899943 
1135	 0.333120625836182 
1136	 0.332930715359221 
1137	 0.332645665523765 
1138	 0.33255687790564 
1139	 0.332735186962265 
1140	 0.333011398427463 
1141	 0.333485429545791 
1142	 0.334044268911347 
1143	 0.334443079859582 
1144	 0.334766824185225 
1145	 0.335011810517576 
1146	 0.335246057621502 
1147	 0.33530812806293 
1148	 0.335247492687931 
1149	 0.33510392840232 
1150	 0.334999806776745 
1151	 0.334557079755934 
1152	 0.333973259205062 
1153	 0.333186082821173 
1154	 0.332238059879816 
1155	 0.331452571353463 
1156	 0.330755307850595 
1157	 0.330124740396601 
1158	 0.32962796211077 
1159	 0.329071932550601 
1160	 0.32854040144287 
1161	 0.327998907626165 
1162	 0.327593513796425 
1163	 0.327156337970983 
1164	 0.32687699748274 
1165	 0.326777036609058 
1166	 0.326598411836181 
1167	 0.326419623201872 
1168	 0.326304451475895 
1169	 0.326160142535853 
1170	 0.326133278148253 
1171	 0.326208848652225 
1172	 0.326280394643555 
1173	 0.326325440173036 
1174	 0.326358433238828 
1175	 0.326464565060489 
1176	 0.326598091369661 
1177	 0.326771085410382 
1178	 0.327061607225752 
1179	 0.327270535035472 
1180	 0.327476312185794 
1181	 0.327648557205988 
1182	 0.327838137363539 
1183	 0.327961808934941 
1184	 0.327972041038757 
1185	 0.328061432102351 
1186	 0.328158628087155 
1187	 0.328232503244341 
1188	 0.328370326729281 
1189	 0.328447436899445 
1190	 0.32837626014675 
1191	 0.32834036320487 
1192	 0.328310161506348 
1193	 0.3283133205833 
1194	 0.328390542487637 
1195	 0.328572212760561 
1196	 0.328701377720208 
1197	 0.328861399475299 
1198	 0.329010199908736 
1199	 0.329164834723286 
1200	 0.329294586447587 
1201	 0.329359843046311 
1202	 0.329524906801813 
1203	 0.329751105303015 
1204	 0.329934933734426 
1205	 0.330226253260732 
1206	 0.330399883404067 
1207	 0.330418180572196 
1208	 0.330523582542137 
1209	 0.330668602563457 
1210	 0.330730947472209 
1211	 0.330866428916122 
1212	 0.330964850502667 
1213	 0.331089138805812 
1214	 0.331197902584463 
1215	 0.331323414079245 
1216	 0.331486679214627 
1217	 0.331633888904994 
1218	 0.331775203678004 
1219	 0.331891457151375 
1220	 0.332029060397206 
1221	 0.332095982873639 
1222	 0.332096838965619 
1223	 0.332120877707667 
1224	 0.332080591061139 
1225	 0.332121026690459 
1226	 0.332235074003854 
1227	 0.332297540763842 
1228	 0.332375145758375 
1229	 0.332422463541466 
1230	 0.332538408626843 
1231	 0.332619483063469 
1232	 0.332712588074131 
1233	 0.332863206434779 
1234	 0.332979973766885 
1235	 0.333032471349634 
1236	 0.333159915517287 
1237	 0.333325131394941 
1238	 0.333514134709196 
1239	 0.333779986615887 
1240	 0.333943636559111 
1241	 0.334067123353925 
1242	 0.334230576730599 
1243	 0.334353546303846 
1244	 0.334488679795568 
1245	 0.334676111113118 
1246	 0.334844861806414 
1247	 0.334969585397677 
1248	 0.33511499279469 
1249	 0.335279957384896 
1250	 0.335458044931505 
1251	 0.335653217840816 
1252	 0.335821737571179 
1253	 0.336027337465263 
1254	 0.336265017614879 
1255	 0.336503267652414 
1256	 0.33677326339191 
1257	 0.336991362326994 
1258	 0.337214569420394 
1259	 0.337398942776846 
1260	 0.337476437960002 
1261	 0.337685274395941 
1262	 0.337968421055418 
1263	 0.338199989555132 
1264	 0.338484217264953 
1265	 0.338739663046217 
1266	 0.338926817973122 
1267	 0.339141830536007 
1268	 0.339343358449624 
1269	 0.339599611533207 
1270	 0.339934918931914 
1271	 0.340178298394626 
1272	 0.340414432840381 
1273	 0.340645497731235 
1274	 0.340821866726191 
1275	 0.340885932396786 
1276	 0.341034639026842 
1277	 0.341179520678832 
1278	 0.34140273850432 
1279	 0.341672017201433 
1280	 0.341924226154004 
1281	 0.342293753775874 
1282	 0.342499866220662 
1283	 0.342544365588184 
1284	 0.3427471732301 
1285	 0.342961412137185 
1286	 0.343177827048506 
1287	 0.3435173454121 
1288	 0.343766846089157 
1289	 0.343903136463198 
1290	 0.344118823139087 
1291	 0.344325968261522 
1292	 0.344601941731102 
1293	 0.34499140004452 
1294	 0.345317789923016 
1295	 0.345636293750491 
1296	 0.346011410295033 
1297	 0.346290750499562 
1298	 0.346479564400659 
1299	 0.346763751263888 
1300	 0.347049619614359 
1301	 0.347366587188722 
1302	 0.347765576306378 
1303	 0.348071372794586 
1304	 0.348335944601371 
1305	 0.348627050384872 
1306	 0.348854739906988 
1307	 0.349179561702089 
1308	 0.349614679504054 
1309	 0.349955560818857 
1310	 0.350267903999678 
1311	 0.350621332520929 
1312	 0.350972957175348 
1313	 0.35128856934209 
1314	 0.351586855495162 
1315	 0.351948523641841 
1316	 0.352289949807727 
1317	 0.352645406691176 
1318	 0.353094570571343 
1319	 0.35351698447557 
1320	 0.353835462263908 
1321	 0.354284745053297 
1322	 0.354755649179157 
1323	 0.355268791579783 
1324	 0.355856985440921 
1325	 0.356532989347589 
1326	 0.35722312268791 
1327	 0.358025735307187 
1328	 0.358763335712457 
1329	 0.359532830672678 
1330	 0.360256800252129 
1331	 0.360932527354417 
1332	 0.361613129188932 
1333	 0.362314321293921 
1334	 0.362903007432034 
1335	 0.363355000111503 
1336	 0.363917501821106 
1337	 0.364423295064637 
1338	 0.365010264187109 
1339	 0.365688125904442 
1340	 0.366478585695135 
1341	 0.367344770617804 
1342	 0.368424762394329 
1343	 0.370017347634535 
1344	 0.371636474529674 
1345	 0.373920787674003 
1346	 0.376024132667465 
1347	 0.378366150245892 
1348	 0.380940483220231 
1349	 0.38405979485868 
1350	 0.387946038940559 
1351	 0.392085593214597 
1352	 0.397214984911933 
1353	 0.402726528932966 
1354	 0.406693025651574 
1355	 0.413526213790914 
1356	 0.420028994985753 
1357	 0.430297073686673 
1358	 0.439992332767401 
1359	 0.454824479785164 
1360	 0.460989507101928 
1361	 0.47592409276733 
1362	 0.469980817116629 
1363	 0.483955575918425 
1364	 0.501530817243129 
1365	 0.518574909453898 
1366	 0.541658812152541 
1367	 0.548003434444132 
1368	 0.537617098522948 
1369	 0.530991973311598 
1370	 0.513970512596475 
1371	 0.512957645419025 
1372	 0.523235377366031 
1373	 0.523803617463086 
1374	 0.526470084195899 
1375	 0.527855897764755 
1376	 0.516395208636454 
1377	 0.506681603111201 
1378	 0.506570700770387 
1379	 0.511012597861077 
1380	 0.513095464172762 
1381	 0.52305833029081 
1382	 0.524572461294871 
1383	 0.5194128251505 
1384	 0.518708138379203 
1385	 0.519597053207599 
1386	 0.517864310803134 
1387	 0.516246512065785 
1388	 0.513358638337674 
1389	 0.507329098626018 
1390	 0.505883281238916 
1391	 0.508407731910844 
1392	 0.505351353364882 
1393	 0.503692716968046 
1394	 0.497742231851185 
1395	 0.484454582790647 
1396	 0.477620633473623 
1397	 0.471179339278608 
1398	 0.467352161625515 
1399	 0.468852567185847 
1400	 0.466280793130532 
1401	 0.462630817771684 
1402	 0.459387536765312 
1403	 0.455424089792193 
1404	 0.451100362404219 
1405	 0.447472554431309 
1406	 0.443764640244339 
1407	 0.43955633021447 
1408	 0.435762867231113 
1409	 0.432389246543964 
1410	 0.42943278249666 
1411	 0.425491696663919 
1412	 0.421277212068875 
1413	 0.417400428414296 
1414	 0.413163511767634 
1415	 0.410105628904068 
1416	 0.407640757720903 
1417	 0.405012027496216 
1418	 0.402872947977392 
1419	 0.400189450834979 
1420	 0.397176487719929 
1421	 0.394689683407077 
1422	 0.392200752903493 
1423	 0.390022389024612 
1424	 0.387749937001806 
1425	 0.38619890415797 
1426	 0.385001515221989 
1427	 0.383761853978911 
1428	 0.382883091017592 
1429	 0.381983512586489 
1430	 0.380765044095452 
1431	 0.379958163249837 
1432	 0.379481057787001 
1433	 0.378984638747489 
1434	 0.37859726973669 
1435	 0.378304670100648 
1436	 0.378375957046417 
1437	 0.377981779714571 
1438	 0.377587428327949 
1439	 0.376923478411356 
1440	 0.375677615474554 
1441	 0.37475039586698 
1442	 0.373994604085075 
1443	 0.373097808525224 
1444	 0.372291703286127 
1445	 0.371467353307048 
1446	 0.370455944643311 
1447	 0.36930064934617 
1448	 0.367954097613873 
1449	 0.366390983516414 
1450	 0.365183796881575 
1451	 0.363878702600467 
1452	 0.362910946639043 
1453	 0.36225706300283 
1454	 0.361496727950922 
1455	 0.360694491566541 
1456	 0.360100887897018 
1457	 0.359416299272652 
1458	 0.359165976601557 
1459	 0.359120012698348 
1460	 0.359236598638446 
1461	 0.359731019035827 
1462	 0.360116402144695 
1463	 0.360497971016004 
1464	 0.361172554386221 
1465	 0.362190093436424 
1466	 0.362962448235698 
1467	 0.364081199176343 
1468	 0.364668190149208 
1469	 0.364727612838485 
1470	 0.364892441849814 
1471	 0.364898891109788 
1472	 0.364775212998547 
1473	 0.364600187875432 
1474	 0.364280511076819 
1475	 0.363686683720495 
1476	 0.363224601029293 
1477	 0.362853556330089 
1478	 0.362310733435806 
1479	 0.361650466002832 
1480	 0.361099469496122 
1481	 0.360489424603192 
1482	 0.35992673230337 
1483	 0.359589035620163 
1484	 0.359049147632819 
1485	 0.358309779030115 
1486	 0.357701370486296 
1487	 0.357116543339508 
1488	 0.356541346886988 
1489	 0.355885764528648 
1490	 0.355289012479481 
1491	 0.354611761170532 
1492	 0.354029665011416 
1493	 0.35370477851348 
1494	 0.353336504827362 
1495	 0.353022407420417 
1496	 0.352760888502223 
1497	 0.352497452761217 
1498	 0.352210925025449 
1499	 0.352064343795802 
1500	 0.351949197511589 
1501	 0.351936470822821 
1502	 0.352100963890501 
1503	 0.3520831020152 
1504	 0.352038318691985 
1505	 0.352023271689877 
1506	 0.35191400345732 
1507	 0.351908236552029 
1508	 0.352008645220418 
1509	 0.352047979420949 
1510	 0.352072670047951 
1511	 0.352118290495753 
1512	 0.352163659309541 
1513	 0.352214390010725 
1514	 0.352264827525429 
1515	 0.352341574545434 
1516	 0.352457991621144 
1517	 0.352530655282389 
1518	 0.352581414765312 
1519	 0.352670099008572 
1520	 0.352752609030125 
1521	 0.352836578811452 
1522	 0.352993789564209 
1523	 0.353060686470765 
1524	 0.353048332941051 
1525	 0.353081594014088 
1526	 0.353067099562912 
1527	 0.353124414632497 
1528	 0.353227300372174 
1529	 0.353343793503482 
1530	 0.353573830147531 
1531	 0.353667872904618 
1532	 0.353649096618947 
1533	 0.353736913466165 
1534	 0.353786997030544 
1535	 0.353880445138494 
1536	 0.354057501700538 
1537	 0.354260405795944 
1538	 0.354445007330673 
1539	 0.354691650048875 
1540	 0.355162618035283 
1541	 0.355395509324624 
1542	 0.355443570489251 
1543	 0.355609379653722 
1544	 0.355725151466169 
1545	 0.355826154130714 
1546	 0.355969356699001 
1547	 0.356156869200985 
1548	 0.356298309994974 
1549	 0.356468790449063 
1550	 0.356748372780546 
1551	 0.357010620577478 
1552	 0.357289626041757 
1553	 0.357493483237209 
1554	 0.357651470933297 
1555	 0.357845399528906 
1556	 0.357929140341097 
1557	 0.358114545557135 
1558	 0.3584791353177 
1559	 0.358734107953981 
1560	 0.358997701994493 
1561	 0.359202670861408 
1562	 0.359253756829095 
1563	 0.359382911570615 
1564	 0.359552519632863 
1565	 0.35968419008603 
1566	 0.359881351940087 
1567	 0.360120262600234 
1568	 0.360245772115701 
1569	 0.360320972342245 
1570	 0.360414241526315 
1571	 0.360420848593704 
1572	 0.36057803551205 
1573	 0.360801612566122 
1574	 0.361036501219611 
1575	 0.361373578287361 
1576	 0.361556489441116 
1577	 0.361697944750319 
1578	 0.361824206523402 
1579	 0.361827114688374 
1580	 0.362016936191557 
1581	 0.362291964408854 
1582	 0.362515104925342 
1583	 0.362801166040239 
1584	 0.363037547885565 
1585	 0.363199165725351 
1586	 0.363472623086402 
1587	 0.363813972802402 
1588	 0.364116536913186 
1589	 0.364456217473899 
1590	 0.364748827942319 
1591	 0.36503220901653 
1592	 0.365246942750158 
1593	 0.365409801782336 
1594	 0.365613353725861 
1595	 0.365763919637729 
1596	 0.365984266722725 
1597	 0.366289932142647 
1598	 0.366500372780346 
1599	 0.366660246632121 
1600	 0.366884180163003 
1601	 0.367087887522188 
1602	 0.367340834520851 
1603	 0.36767756477152 
1604	 0.367951177724546 
1605	 0.368236197336543 
1606	 0.36842444058466 
1607	 0.368491264909932 
1608	 0.368750121931522 
1609	 0.369046454449147 
1610	 0.369314094240901 
1611	 0.369730520756538 
1612	 0.369968461458115 
1613	 0.370044200280989 
1614	 0.370222933965468 
1615	 0.370419914299177 
1616	 0.370602252653214 
1617	 0.370812785912942 
1618	 0.370949849615068 
1619	 0.37103561603804 
1620	 0.371141823488436 
1621	 0.371184070111173 
1622	 0.371319312019718 
1623	 0.371529442532186 
1624	 0.371676443307354 
1625	 0.371834094531487 
1626	 0.371993035391667 
1627	 0.372099352718024 
1628	 0.372290574180191 
1629	 0.372567446365255 
1630	 0.372755320633577 
1631	 0.372939484979453 
1632	 0.373084545878321 
1633	 0.373198878122909 
1634	 0.373243584410877 
1635	 0.373191345082263 
1636	 0.373330625001529 
1637	 0.373484402441649 
1638	 0.373655951295154 
1639	 0.37403771467278 
1640	 0.374119234343112 
1641	 0.373987540377934 
1642	 0.37404343841247 
1643	 0.374045346985558 
1644	 0.374179201441568 
1645	 0.374456102173242 
1646	 0.374648625581943 
1647	 0.374894712189419 
1648	 0.374970744008535 
1649	 0.374970588021011 
1650	 0.374989399419297 
1651	 0.374939579663781 
1652	 0.374828382775543 
1653	 0.374678495864796 
1654	 0.374623332107612 
1655	 0.374481995567417 
1656	 0.374448899469637 
1657	 0.374616268016443 
1658	 0.374382301472108 
1659	 0.374306168703838 
1660	 0.374167194965408 
1661	 0.373959137195814 
1662	 0.373959770659815 
1663	 0.373814821474593 
1664	 0.373657959206962 
1665	 0.37360308147607 
1666	 0.373445979880838 
1667	 0.373456958149349 
1668	 0.373585936088344 
1669	 0.373620719331815 
1670	 0.373602278029323 
1671	 0.373476160124426 
1672	 0.373283456297465 
1673	 0.373134486604853 
1674	 0.373213574538101 
1675	 0.373394384662436 
1676	 0.373443901131368 
1677	 0.373550970530212 
1678	 0.373555092100529 
1679	 0.373370103101142 
1680	 0.373367969121826 
1681	 0.373405139967166 
1682	 0.373377582342424 
1683	 0.373487565012516 
1684	 0.373436641419393 
1685	 0.37329576681453 
1686	 0.373243990712725 
1687	 0.373090076211742 
1688	 0.37311954676743 
1689	 0.373217893823314 
1690	 0.373428286780939 
1691	 0.373492878940235 
1692	 0.373457706206616 
1693	 0.373407984338038 
1694	 0.373128582698384 
1695	 0.373047240612704 
1696	 0.373191054866426 
1697	 0.373168842885417 
1698	 0.373182522268339 
1699	 0.373145603711063 
1700	 0.372890759568035 
1701	 0.372773364227292 
1702	 0.372686113923378 
1703	 0.372668914500699 
1704	 0.372832236128488 
1705	 0.372814937443034 
1706	 0.372781049857919 
1707	 0.372740620689949 
1708	 0.372497343161766 
1709	 0.37240774307134 
1710	 0.372418222760913 
1711	 0.372417849183753 
1712	 0.372478507597935 
1713	 0.372574414392838 
1714	 0.372678031473099 
1715	 0.372819605493798 
1716	 0.373091318294497 
1717	 0.373147933720559 
1718	 0.3730777299197 
1719	 0.373122579791541 
1720	 0.373083128464835 
1721	 0.373114000935678 
1722	 0.373272006690897 
1723	 0.373380641055585 
1724	 0.373455509104965 
1725	 0.373521375251934 
1726	 0.373657543384047 
1727	 0.373691730697708 
1728	 0.373576120431329 
1729	 0.373670957908427 
1730	 0.373787051467825 
1731	 0.373967162446468 
1732	 0.374274881341957 
1733	 0.374608429246734 
1734	 0.374914542003391 
1735	 0.375230138311098 
1736	 0.375683107993837 
1737	 0.375852913572696 
1738	 0.375906443476335 
1739	 0.375984595147987 
1740	 0.375885268009174 
1741	 0.375919186155276 
1742	 0.376022079523195 
1743	 0.376297558080054 
1744	 0.376484736473096 
1745	 0.376327895859567 
1746	 0.37650555231834 
1747	 0.376806758558786 
1748	 0.376806252913609 
1749	 0.376771896310901 
1750	 0.376788246835866 
1751	 0.376480566661899 
1752	 0.376253146015271 
1753	 0.376566064877432 
1754	 0.376773779895799 
1755	 0.377023476524197 
1756	 0.377350775878978 
1757	 0.377753621102972 
1758	 0.378159310927797 
1759	 0.378604932590117 
1760	 0.378894675785797 
1761	 0.379116683458168 
1762	 0.379314155325394 
1763	 0.379244358968986 
1764	 0.37972457025429 
1765	 0.380425223394653 
1766	 0.381110654808586 
1767	 0.382322586959822 
1768	 0.382907411232603 
1769	 0.383178052466885 
1770	 0.383660289546364 
1771	 0.383882006803875 
1772	 0.384409813050204 
1773	 0.385244349587352 
1774	 0.385642821120426 
1775	 0.38620035025123 
1776	 0.386785993737323 
1777	 0.387068793840931 
1778	 0.387416089608807 
1779	 0.387595023468559 
1780	 0.387631131939296 
1781	 0.388568354976911 
1782	 0.389730433309441 
1783	 0.390591598652954 
1784	 0.391514681489823 
1785	 0.392053248674111 
1786	 0.392691699697419 
1787	 0.393934125859743 
1788	 0.395132651685224 
1789	 0.39617499368322 
1790	 0.397298139075187 
1791	 0.398391437536352 
1792	 0.399554708487812 
1793	 0.40119179279858 
1794	 0.40297925929818 
1795	 0.404483188158346 
1796	 0.406063222824576 
1797	 0.407596673793968 
1798	 0.409310594551813 
1799	 0.411532181041 
1800	 0.4145357310879 
1801	 0.404109603165791 
1802	 0.405751918313877 
1803	 0.408198390012558 
1804	 0.411075324735971 
1805	 0.41392026493981 
1806	 0.417687426584408 
1807	 0.421042126809206 
1808	 0.424287964324737 
1809	 0.42710498413946 
1810	 0.429857309949473 
1811	 0.431853185475386 
1812	 0.435072108743864 
1813	 0.438963501376693 
1814	 0.442067978863731 
1815	 0.445551193828807 
1816	 0.449045471491173 
1817	 0.451634618502268 
1818	 0.454037345278125 
1819	 0.456268355226144 
1820	 0.45816181740524 
1821	 0.461808134303928 
1822	 0.465914371486182 
1823	 0.468881508414438 
1824	 0.473498739033213 
1825	 0.477809637583809 
1826	 0.47720546020343 
1827	 0.481256114438936 
1828	 0.488630878653925 
1829	 0.504740184938241 
1830	 0.519585849094076 
1831	 0.541868835882871 
1832	 0.563588304756988 
1833	 0.588522366179761 
1834	 0.615532381135398 
1835	 0.636626994719727 
1836	 0.649106484373816 
1837	 0.606357623987527 
1838	 0.58520249714507 
1839	 0.562577510609099 
1840	 0.520969236966702 
1841	 0.508778054290379 
1842	 0.52339919583388 
1843	 0.531474440976101 
1844	 0.544772523251511 
1845	 0.558002104040543 
1846	 0.596700252798554 
1847	 0.604257974027765 
1848	 0.600007486040724 
1849	 0.591042742113941 
1850	 0.571600498135255 
1851	 0.491238816767764 
1852	 0.494025901488962 
1853	 0.541845384077342 
1854	 0.567527486420337 
1855	 0.667255304519746 
1856	 0.694323687151589 
1857	 0.642974274315192 
1858	 0.628092044852946 
1859	 0.628710922409152 
1860	 0.625636320934387 
1861	 0.629127879572511 
1862	 0.651445438458548 
1863	 0.664113013039266 
1864	 0.682641038511684 
1865	 0.681798714613547 
1866	 0.657457243587109 
1867	 0.674956234283146 
1868	 0.625859731338131 
1869	 0.590788034347896 
1870	 0.569122577653958 
1871	 0.548658475257917 
1872	 0.545936537423906 
1873	 0.571323001468072 
1874	 0.579428465952002 
1875	 0.605692418172888 
1876	 0.604881142815107 
1877	 0.594715692251271 
1878	 0.568513687743471 
1879	 0.575631489244695 
1880	 0.572148747885217 
1881	 0.568532718874195 
1882	 0.572498888891874 
1883	 0.575463550186178 
1884	 0.573909638866533 
1885	 0.569246391847527 
1886	 0.574686544747537 
1887	 0.562428013379047 
1888	 0.536489713275187 
1889	 0.524758329377863 
1890	 0.517924921305181 
1891	 0.515426652546616 
1892	 0.510340215787921 
1893	 0.514217440302789 
1894	 0.510445831573828 
1895	 0.490243111162085 
1896	 0.485889706559375 
1897	 0.497874655520464 
1898	 0.494718207829739 
1899	 0.502248844962708 
1900	 0.515855397569218 
1901	 0.518671189142504 
1902	 0.506528682703831 
1903	 0.508070675311669 
1904	 0.508714059225538 
1905	 0.518034484114126 
1906	 0.560603977192799 
1907	 0.542125016279204 
1908	 0.52290363399407 
1909	 0.509441747789398 
1910	 0.496928143619592 
1911	 0.483021413799239 
1912	 0.468252091274743 
1913	 0.463771495925361 
1914	 0.447588709563969 
1915	 0.422133131280677 
1916	 0.413374563463802 
1917	 0.409467798327845 
1918	 0.402977464140111 
1919	 0.40019961675679 
1920	 0.397263462575679 
1921	 0.393960932681231 
1922	 0.393020932734035 
1923	 0.389375322824957 
1924	 0.384999130741735 
1925	 0.382141866125304 
1926	 0.377286259697017 
1927	 0.374843745947259 
1928	 0.375125706134435 
1929	 0.374712204715599 
1930	 0.37348767570644 
1931	 0.369744573156264 
1932	 0.366146788452883 
1933	 0.362662876187115 
1934	 0.359060881151616 
1935	 0.355638016553134 
1936	 0.352555694444133 
1937	 0.34916437582233 
1938	 0.347188648296192 
1939	 0.346133373215092 
1940	 0.344348520007948 
1941	 0.342963664308179 
1942	 0.341159013800996 
1943	 0.340730620413744 
1944	 0.34013354158668 
1945	 0.340098082645457 
1946	 0.341804927479009 
1947	 0.341569452469017 
1948	 0.340283399714707 
1949	 0.339025080296985 
1950	 0.33731523876468 
1951	 0.334476928374706 
1952	 0.333518055752484 
1953	 0.334277939791349 
1954	 0.334268876447899 
1955	 0.335645245208151 
1956	 0.33615005419859 
1957	 0.33471711191018 
1958	 0.33394532144091 
1959	 0.333456971946079 
1960	 0.332269704963251 
1961	 0.330372349742541 
1962	 0.329791496770805 
1963	 0.32914257735997 
1964	 0.328493305049944 
1965	 0.327892600271901 
1966	 0.327389823570515 
1967	 0.326577761335585 
1968	 0.32617100465575 
1969	 0.325931593548171 
1970	 0.325636049345551 
1971	 0.325659934830578 
1972	 0.326102319471364 
1973	 0.326257430705794 
1974	 0.326040999288208 
1975	 0.32657959635283 
1976	 0.326906893465774 
1977	 0.326981771659152 
1978	 0.327531492826676 
1979	 0.328132793359573 
1980	 0.328636327636815 
1981	 0.329431429640045 
1982	 0.33007284593047 
1983	 0.330760616636966 
1984	 0.331384807939451 
1985	 0.33206387317292 
1986	 0.332434570809565 
1987	 0.333249181477978 
1988	 0.334052189923524 
1989	 0.334671181556099 
1990	 0.33533136594611 
1991	 0.33515029544293 
1992	 0.335157096488259 
1993	 0.335531605785647 
1994	 0.33601566031889 
1995	 0.336732992470161 
1996	 0.33829540010111 
1997	 0.339611584698833 
1998	 0.340292625398093 
1999	 0.341055667915811 
2000	 0.341416623015683 
2001	 0.341699710307898 
2002	 0.342260128296535 
2003	 0.34169190453013 
2004	 0.341614426053181 
2005	 0.341913931293895 
2006	 0.342098766968079 
2007	 0.342145006962672 
2008	 0.343021150326333 
2009	 0.343369855033412 
2010	 0.344248210123027 
2011	 0.345093129228596 
2012	 0.345628281691901 
2013	 0.347131967616304 
2014	 0.3476708470695 
2015	 0.347516707805518 
2016	 0.347766494252302 
2017	 0.347584358617617 
2018	 0.347178196829621 
2019	 0.347005370444733 
2020	 0.347059787738717 
2021	 0.346959498862949 
2022	 0.3468709890934 
2023	 0.347026535568944 
2024	 0.346909994356532 
2025	 0.346701974327106 
2026	 0.346362994463631 
2027	 0.345901486201987 
2028	 0.34597974844373 
2029	 0.346325825715093 
2030	 0.346569847225101 
2031	 0.34672889070392 
2032	 0.346538767940268 
2033	 0.34590588141977 
2034	 0.345307023752712 
2035	 0.344841838748107 
2036	 0.344372441613496 
2037	 0.344283408055083 
2038	 0.343873012723112 
2039	 0.343425527985642 
2040	 0.343142509969519 
2041	 0.342841751378915 
2042	 0.34301537832624 
2043	 0.342955641657816 
2044	 0.342670636600935 
2045	 0.342587535979211 
2046	 0.342556450959513 
2047	 0.342200795822198 
2048	 0.341926864768075 
2049	 0.341587258906203 
2050	 0.340843255598004 
2051	 0.340092194507389 
2052	 0.339649179596332 
2053	 0.339846387897683 
2054	 0.340185846581527 
2055	 0.340423738099871 
2056	 0.340141473644655 
2057	 0.339064011151201 
2058	 0.338620039169432 
2059	 0.338318709369615 
2060	 0.337991934656313 
2061	 0.337952907580366 
2062	 0.338541883063256 
2063	 0.338280270692258 
2064	 0.33793337099849 
2065	 0.337461788477131 
2066	 0.336854583407899 
2067	 0.336997076343316 
2068	 0.337000179312993 
2069	 0.337637749866452 
2070	 0.338587688764981 
2071	 0.338693778514403 
2072	 0.338767598799553 
2073	 0.338758870287428 
2074	 0.338374251662772 
2075	 0.337680254981685 
2076	 0.337407540134064 
2077	 0.33737725012452 
2078	 0.337180101683089 
2079	 0.337184288296873 
2080	 0.337713145277829 
2081	 0.338046707645763 
2082	 0.338265102949595 
2083	 0.338643972964532 
2084	 0.338378830122015 
2085	 0.337773526291128 
2086	 0.337578278805957 
2087	 0.337295983335234 
2088	 0.336872314346264 
2089	 0.33679176406004 
2090	 0.337322993113285 
2091	 0.337396319868203 
2092	 0.337347841726724 
2093	 0.337621152120686 
2094	 0.337340681689496 
2095	 0.337084126761358 
2096	 0.337733446364821 
2097	 0.338233768610292 
2098	 0.338227543929728 
2099	 0.338225899393948 
2100	 0.338118836414003 
2101	 0.338145270130455 
2102	 0.338377178007856 
2103	 0.339031777987416 
2104	 0.339600327688698 
2105	 0.33967835719461 
2106	 0.339228573109975 
2107	 0.338597572199217 
2108	 0.338048208717273 
2109	 0.337989151234725 
2110	 0.338467108570258 
2111	 0.338796496943928 
2112	 0.339184873593714 
2113	 0.33941807389397 
2114	 0.339309948307095 
2115	 0.339264330362509 
2116	 0.339450198147254 
2117	 0.339681664690388 
2118	 0.339881987654572 
2119	 0.340238009467935 
2120	 0.340859768277168 
2121	 0.34129329886389 
2122	 0.34156996937957 
2123	 0.34219467045585 
2124	 0.342296699520518 
2125	 0.342309875931242 
2126	 0.342545585693302 
2127	 0.34249186371128 
2128	 0.342609970099491 
2129	 0.342857789621376 
2130	 0.342894787032585 
2131	 0.342910125966809 
2132	 0.342944997384686 
2133	 0.34299910277888 
2134	 0.34301021163051 
2135	 0.342968390141373 
2136	 0.342988365295803 
2137	 0.343217292364926 
2138	 0.343425724026402 
2139	 0.343510436925306 
2140	 0.343273798994002 
2141	 0.343025643383894 
2142	 0.343080270022903 
2143	 0.343319575152015 
2144	 0.344131894362232 
2145	 0.344811682681243 
2146	 0.345167221740973 
2147	 0.345568134085121 
2148	 0.345322132272665 
2149	 0.345337811625476 
2150	 0.345498821349883 
2151	 0.345385994542936 
2152	 0.34517202564213 
2153	 0.345093660924229 
2154	 0.344856567408089 
2155	 0.344541570007729 
2156	 0.344908892708891 
2157	 0.345408807097238 
2158	 0.346053889701452 
2159	 0.346220515037488 
2160	 0.345573340163207 
2161	 0.345439982753407 
2162	 0.345516011405959 
2163	 0.345429604833349 
2164	 0.346012311019652 
2165	 0.34640595260795 
2166	 0.346417666340061 
2167	 0.346927784023039 
2168	 0.347086298759928 
2169	 0.346900428657727 
2170	 0.346822603456203 
2171	 0.3467047028284 
2172	 0.346486539552163 
2173	 0.346290488364408 
2174	 0.346732071058142 
2175	 0.347097033915523 
2176	 0.34722482482298 
2177	 0.347261985392347 
2178	 0.347194148685944 
2179	 0.347018624964038 
2180	 0.347039666688114 
2181	 0.347440905078855 
2182	 0.347860237591185 
2183	 0.348270966372133 
2184	 0.348642028538312 
2185	 0.348641989773019 
2186	 0.34870973222919 
2187	 0.349080262679903 
2188	 0.349759803324772 
2189	 0.349905643270056 
2190	 0.350161463239871 
2191	 0.350137029345672 
2192	 0.349306095088952 
2193	 0.348622915185495 
2194	 0.348686681216374 
2195	 0.349110070107516 
2196	 0.349395689191099 
2197	 0.349703965824327 
2198	 0.349749936569908 
2199	 0.349409084447311 
2200	 0.349310777609499 
2201	 0.349101574541554 
2202	 0.348947395937067 
2203	 0.348818004195731 
2204	 0.34842300363086 
2205	 0.348204038317439 
2206	 0.348101875831153 
2207	 0.348295433094432 
2208	 0.34846009363435 
2209	 0.348726944542233 
2210	 0.349108974962389 
2211	 0.34962861443393 
2212	 0.350256116942893 
2213	 0.350149793899865 
2214	 0.350065567299802 
2215	 0.349614680578326 
2216	 0.348688215349682 
2217	 0.348582684417369 
2218	 0.348815967192393 
2219	 0.34889821672381 
2220	 0.349008874568139 
2221	 0.348485856236322 
2222	 0.348059663944238 
2223	 0.348218974679796 
2224	 0.347810305670837 
2225	 0.347768674272231 
2226	 0.347625008944442 
2227	 0.346512087272024 
2228	 0.345813886871577 
2229	 0.344984378710276 
2230	 0.343842114775586 
2231	 0.343141750356749 
2232	 0.343095410114427 
2233	 0.342669535208757 
2234	 0.342155957544102 
2235	 0.341712374640586 
2236	 0.341004584397501 
2237	 0.33994282404503 
2238	 0.33933219165478 
2239	 0.338831649142473 
2240	 0.338201001412334 
2241	 0.337652755643577 
2242	 0.336891895246506 
2243	 0.335638820135346 
2244	 0.334756479732247 
2245	 0.334159452530765 
2246	 0.333091309479166 
2247	 0.332020440668229 
2248	 0.330982027163806 
2249	 0.329914173608732 
2250	 0.328646700750469 
2251	 0.327420607645075 
2252	 0.326049775676298 
2253	 0.324371438855581 
2254	 0.32333460336332 
2255	 0.323109444493948 
2256	 0.32259099772518 
2257	 0.322675631798211 
2258	 0.322099005714061 
2259	 0.32073837110124 
2260	 0.319319802566734 
2261	 0.317869855689028 
2262	 0.317299393049941 
2263	 0.317671524250168 
2264	 0.317601106335254 
2265	 0.317590908347605 
2266	 0.317387584935242 
2267	 0.316505520755302 
2268	 0.315543294169689 
2269	 0.314913667852952 
2270	 0.314627795134155 
2271	 0.314567438296886 
2272	 0.314503482054311 
2273	 0.313485701838217 
2274	 0.313224947409873 
2275	 0.31328697602862 
2276	 0.312201048906418 
2277	 0.311708182455009 
2278	 0.311309567508673 
2279	 0.310731870906126 
2280	 0.310837867304699 
2281	 0.311551534910013 
2282	 0.312323554541566 
2283	 0.312751522066862 
2284	 0.313141546626134 
2285	 0.312931826856852 
2286	 0.31271200450395 
2287	 0.312111868636022 
2288	 0.311655178470111 
2289	 0.31107397909848 
2290	 0.311391700912899 
2291	 0.311362369455269 
2292	 0.311410533012744 
2293	 0.311499384615839 
2294	 0.310402994977133 
2295	 0.310291446270554 
2296	 0.309499558300034 
2297	 0.308395914646801 
2298	 0.308936405875128 
2299	 0.309304728513617 
2300	 0.309254975887365 
2301	 0.309724492639706 
2302	 0.310458744661846 
2303	 0.310823343516953 
2304	 0.311863749650348 
2305	 0.312541801941629 
2306	 0.312933633897841 
2307	 0.313199309103234 
2308	 0.312460256781092 
2309	 0.312060358845953 
2310	 0.310523758425405 
2311	 0.30968362778408 
2312	 0.310210909877838 
2313	 0.310103506887167 
2314	 0.311185795687157 
2315	 0.311603551061093 
2316	 0.310906157068154 
2317	 0.310820147424502 
2318	 0.311424350675927 
2319	 0.313069647385504 
2320	 0.3150312368982 
2321	 0.315363489581539 
2322	 0.314199838190178 
2323	 0.313675164722319 
2324	 0.312289948944398 
2325	 0.311260949904833 
2326	 0.311343810354465 
2327	 0.313057598660354 
2328	 0.313712692792504 
2329	 0.313549810902264 
2330	 0.313690907393009 
2331	 0.313361461730386 
2332	 0.312980409416642 
2333	 0.312760280937978 
2334	 0.313119719775827 
2335	 0.313331820161724 
2336	 0.313403461856502 
2337	 0.313558955531392 
2338	 0.311862936740282 
2339	 0.311089811756722 
2340	 0.310785970784048 
2341	 0.309277772211131 
2342	 0.310092970883311 
2343	 0.310321377366684 
2344	 0.310329847044723 
2345	 0.312171732640659 
2346	 0.312392307667728 
2347	 0.312315219798392 
2348	 0.311338281443324 
2349	 0.310068170063736 
2350	 0.310137528688686 
2351	 0.310020853108328 
2352	 0.311464593172541 
2353	 0.312997785328159 
2354	 0.312738016685209 
2355	 0.312931335963003 
2356	 0.313223678596841 
2357	 0.312903686812874 
2358	 0.315678224186462 
2359	 0.319087748051333 
2360	 0.319913741531473 
2361	 0.320335581645278 
2362	 0.318091913639158 
2363	 0.316099390457515 
2364	 0.317847747044943 
2365	 0.318599300991156 
2366	 0.317587595267792 
2367	 0.317385555833256 
2368	 0.315155857581603 
2369	 0.313715359527901 
2370	 0.31687864932801 
2371	 0.317945668786577 
2372	 0.318743214207357 
2373	 0.320058194795465 
2374	 0.320471737481193 
2375	 0.319809780860203 
2376	 0.319849310088685 
2377	 0.319609937337739 
2378	 0.319331950296514 
2379	 0.317634086873371 
2380	 0.317927749054011 
2381	 0.319944996894401 
2382	 0.320586150415531 
2383	 0.322684152325991 
2384	 0.323584453967143 
2385	 0.32368674080731 
2386	 0.323061852222084 
2387	 0.320319417006382 
2388	 0.319146947944787 
2389	 0.317094077004411 
2390	 0.316353802445966 
2391	 0.318477615838503 
2392	 0.320159409552301 
2393	 0.322122726693624 
2394	 0.322351796735794 
2395	 0.321870033263221 
2396	 0.320918755283236 
2397	 0.318490755940873 
2398	 0.318350303674406 
2399	 0.31920508866091 
2400	 0.319432569778816 
2401	 0.321408622714184 
2402	 0.319479827546121 
2403	 0.316590474012026 
2404	 0.315611516487197 
2405	 0.315895121688596 
2406	 0.316876487137444 
2407	 0.31868165608718 
2408	 0.322959015591499 
2409	 0.325238653948353 
2410	 0.322134169817961 
2411	 0.319770009223133 
2412	 0.318757234866242 
2413	 0.317541459841636 
2414	 0.321586624315062 
2415	 0.325008025902457 
2416	 0.324383203869074 
2417	 0.320607052467982 
2418	 0.316443175398206 
2419	 0.316290838011002 
2420	 0.313807002462457 
2421	 0.311612842517655 
2422	 0.312781373093776 
2423	 0.310505441745771 
2424	 0.30842523437344 
2425	 0.311062470423757 
2426	 0.311239240423601 
2427	 0.310736791944666 
2428	 0.314407541263535 
2429	 0.313231178323113 
2430	 0.310462474557205 
2431	 0.313704638650821 
2432	 0.315939130568166 
2433	 0.322194119488246 
2434	 0.322483563101829 
2435	 0.313953716165538 
2436	 0.309432337362428 
2437	 0.303154994280779 
2438	 0.300349777818096 
2439	 0.301085650891652 
2440	 0.302911721201513 
2441	 0.309405559180145 
2442	 0.310864127765865 
2443	 0.312666251241127 
2444	 0.310649830307431 
2445	 0.299307098843529 
2446	 0.295754163805945 
2447	 0.293732917894952 
2448	 0.295353304444462 
2449	 0.306971400282841 
2450	 0.305273907974458 
2451	 0.298121142934985 
2452	 0.293332633819584 
2453	 0.278779643873885 
2454	 0.277220521592225 
2455	 0.286181396757108 
2456	 0.289793690959773 
2457	 0.296577269724517 
2458	 0.299444538028307 
2459	 0.299508114114655 
2460	 0.297529075484567 
2461	 0.293664730301059 
2462	 0.290665418686704 
2463	 0.283731470780391 
2464	 0.279607833420456 
2465	 0.276871740619605 
2466	 0.276961316742823 
2467	 0.28296650554112 
2468	 0.283442157767233 
2469	 0.28028450396281 
2470	 0.275134767916403 
2471	 0.261704851240487 
2472	 0.259926146478834 
2473	 0.271049822585715 
2474	 0.275355188540162 
2475	 0.277894279543574 
2476	 0.289862459521317 
2477	 0.30184705435773 
2478	 0.317306413798071 
2479	 0.360063537305483 
2480	 0.365447175761831 
2481	 0.340471402769428 
2482	 0.322993408669416 
2483	 0.273982435524966 
2484	 0.257295463660015 
2485	 0.264135474270762 
2486	 0.271389916828609 
2487	 0.281114309590322 
2488	 0.269706262991917 
2489	 0.261161635301523 
2490	 0.245075248648113 
2491	 0.235713931627278 
2492	 0.255129857700953 
2493	 0.257742732433455 
2494	 0.233904781901878 
2495	 0.227808938646928 
2496	 0.239104272967235 
2497	 0.266993947225334 
2498	 0.317462251006166 
2499	 0.343770172834191 
2500	 0.333472191433294 
