Wavelength	ref00118.asd
350	 1.59533626653771 
351	 1.61264759041363 
352	 1.65246498106681 
353	 1.57423427932723 
354	 1.60702184950286 
355	 1.63287602704802 
356	 1.57351631679843 
357	 1.562923744785 
358	 1.58737720016569 
359	 1.59032488111453 
360	 1.53601344118473 
361	 1.53282618215317 
362	 1.55094854387463 
363	 1.56064353412579 
364	 1.54081556714416 
365	 1.5368771712042 
366	 1.53376421923215 
367	 1.52320018040707 
368	 1.51595726023877 
369	 1.50800700119444 
370	 1.51168763608195 
371	 1.52472510693808 
372	 1.48867045924657 
373	 1.46589578762862 
374	 1.46434874040114 
375	 1.46444990124933 
376	 1.45957416581123 
377	 1.44628538255089 
378	 1.43373324942895 
379	 1.44318661635079 
380	 1.43028503788969 
381	 1.41816595173072 
382	 1.42468013676285 
383	 1.41644613472651 
384	 1.41094610682213 
385	 1.41016876348685 
386	 1.40819489395559 
387	 1.39578054548548 
388	 1.37120311630432 
389	 1.35133482549541 
390	 1.36461252030408 
391	 1.36033341668685 
392	 1.35393655005433 
393	 1.35775235229457 
394	 1.35133666679447 
395	 1.33813989405092 
396	 1.32683240916651 
397	 1.32403299332524 
398	 1.3185564905439 
399	 1.30880641196974 
400	 1.29692835030171 
401	 1.2883402255066 
402	 1.29122997404393 
403	 1.28975179203731 
404	 1.27702203529825 
405	 1.26934805151941 
406	 1.26333843564721 
407	 1.25684241403495 
408	 1.24902181216465 
409	 1.24574098076342 
410	 1.24140924779267 
411	 1.23324068404775 
412	 1.22201110243106 
413	 1.21510745559599 
414	 1.21390660416611 
415	 1.21408980573223 
416	 1.20137131439572 
417	 1.19519107469972 
418	 1.19203572875628 
419	 1.18338642608375 
420	 1.17516960433678 
421	 1.17223685175728 
422	 1.17253247828481 
423	 1.16871105075568 
424	 1.16340180242205 
425	 1.1594694345128 
426	 1.15807067150465 
427	 1.15666122576601 
428	 1.15740326542988 
429	 1.15681107483492 
430	 1.15147051492116 
431	 1.14758975379543 
432	 1.14466530563657 
433	 1.14280838280094 
434	 1.14283230538445 
435	 1.1439526104707 
436	 1.14738100592261 
437	 1.15202491877398 
438	 1.15086198163745 
439	 1.15381739717115 
440	 1.15821567443568 
441	 1.15906602731857 
442	 1.1641344863596 
443	 1.16984094249504 
444	 1.17553524631938 
445	 1.18372935387326 
446	 1.18988054252206 
447	 1.19634930200699 
448	 1.20460774591953 
449	 1.21095826261957 
450	 1.21534153489256 
451	 1.22156276421668 
452	 1.23294318515095 
453	 1.23838270728846 
454	 1.24438141424572 
455	 1.25252803536096 
456	 1.25729914253247 
457	 1.26435725452249 
458	 1.27056084728551 
459	 1.2735396522967 
460	 1.27860238310633 
461	 1.28459245700825 
462	 1.28997651608756 
463	 1.29355406436535 
464	 1.29925553495491 
465	 1.30429250806889 
466	 1.30772003028174 
467	 1.31235018625059 
468	 1.31639087654476 
469	 1.32006882400158 
470	 1.32381260128186 
471	 1.32678218080034 
472	 1.32857176453872 
473	 1.33037613249929 
474	 1.33404356868757 
475	 1.33559552069677 
476	 1.337118736644 
477	 1.33980492727337 
478	 1.34164566613991 
479	 1.34313742707512 
480	 1.34457679204427 
481	 1.34605044667949 
482	 1.34639943732047 
483	 1.34899348564561 
484	 1.35334315035599 
485	 1.35508554762851 
486	 1.3553359105812 
487	 1.35572268716638 
488	 1.35713249736909 
489	 1.35835082818762 
490	 1.35834093640666 
491	 1.35810852663284 
492	 1.35919052902554 
493	 1.36018064367317 
494	 1.36079651769917 
495	 1.36092337068631 
496	 1.36056386311408 
497	 1.36083340616021 
498	 1.36104074030852 
499	 1.3606442315428 
500	 1.36146296803325 
501	 1.35954581253331 
502	 1.35596265311457 
503	 1.35450992118382 
504	 1.35320001645906 
505	 1.35091797781952 
506	 1.34772382051268 
507	 1.34530506047087 
508	 1.34350802580533 
509	 1.34085364347332 
510	 1.33660395284399 
511	 1.33542640729184 
512	 1.33190564849577 
513	 1.32613284998414 
514	 1.32277342657345 
515	 1.31912934812513 
516	 1.31523202440408 
517	 1.31120487905129 
518	 1.30650928496029 
519	 1.30005660787166 
520	 1.29266082184499 
521	 1.28564530736196 
522	 1.27841618673328 
523	 1.27184382279226 
524	 1.26608231273402 
525	 1.26054656952971 
526	 1.25335666704458 
527	 1.24533293115803 
528	 1.23786188648571 
529	 1.23213667130645 
530	 1.22551320346143 
531	 1.2187468028397 
532	 1.21394274145969 
533	 1.20741620240003 
534	 1.2014858815249 
535	 1.19717625845824 
536	 1.19238151310832 
537	 1.18708747796041 
538	 1.1826961975715 
539	 1.18028809216796 
540	 1.17763150619204 
541	 1.17425760861948 
542	 1.17057286673454 
543	 1.16767547855295 
544	 1.16621466914667 
545	 1.16545470410322 
546	 1.16491313936128 
547	 1.16527730731874 
548	 1.16614035408095 
549	 1.1673503313489 
550	 1.16875115182073 
551	 1.16950079110532 
552	 1.17082430785119 
553	 1.17314958773359 
554	 1.17578993132454 
555	 1.17753067180776 
556	 1.17921763103606 
557	 1.18165080976374 
558	 1.18358107285504 
559	 1.18533759608538 
560	 1.18726757990989 
561	 1.18970103620993 
562	 1.19272525427102 
563	 1.1947383327557 
564	 1.19582090608326 
565	 1.19936353364797 
566	 1.20294195831461 
567	 1.20487118712476 
568	 1.20474177358765 
569	 1.20667623940115 
570	 1.20911391474493 
571	 1.21084084724642 
572	 1.21137103081871 
573	 1.21271597940519 
574	 1.21503821631536 
575	 1.21798859006862 
576	 1.22067669569823 
577	 1.22536255490427 
578	 1.23199810726042 
579	 1.23955435941894 
580	 1.24883961690379 
581	 1.25927648582803 
582	 1.27104213300075 
583	 1.28549762332403 
584	 1.30097120922054 
585	 1.31785580757728 
586	 1.33653171504044 
587	 1.35542627271894 
588	 1.37647780621507 
589	 1.39932939576477 
590	 1.42171255718077 
591	 1.44562219522709 
592	 1.47021193567031 
593	 1.49464836490533 
594	 1.51704893422013 
595	 1.5407585830279 
596	 1.56514120686071 
597	 1.58842108152605 
598	 1.61020914487025 
599	 1.63107318485055 
600	 1.65178859110117 
601	 1.67308660897479 
602	 1.69332706136845 
603	 1.71282482083354 
604	 1.73217218334573 
605	 1.75180934994106 
606	 1.7705496767616 
607	 1.78887752761956 
608	 1.80776164517789 
609	 1.82508320235924 
610	 1.84126421565086 
611	 1.85656319629662 
612	 1.87070669619821 
613	 1.88610760609364 
614	 1.90106705401941 
615	 1.91377046948051 
616	 1.92673973343035 
617	 1.93902669086376 
618	 1.95053424764855 
619	 1.96185324217458 
620	 1.971551856909 
621	 1.98077412487277 
622	 1.9902053307266 
623	 1.99897047386125 
624	 2.00777152991167 
625	 2.01583182287203 
626	 2.02244137760026 
627	 2.03001845334346 
628	 2.03740203614225 
629	 2.0440780758668 
630	 2.05032938504407 
631	 2.05771258898084 
632	 2.0646093916635 
633	 2.0700799042349 
634	 2.07638037310283 
635	 2.08417888791129 
636	 2.09237786343222 
637	 2.09939626665556 
638	 2.1073727791606 
639	 2.11606746609797 
640	 2.12503282587037 
641	 2.13357728181177 
642	 2.14194758665696 
643	 2.15024862751461 
644	 2.15839146535111 
645	 2.16525813619764 
646	 2.1732498856097 
647	 2.18196547104003 
648	 2.18940294013195 
649	 2.1967560511182 
650	 2.204126066603 
651	 2.21114589197258 
652	 2.21732877272891 
653	 2.2221564256438 
654	 2.22680620067106 
655	 2.23291803898164 
656	 2.24117221899548 
657	 2.24854719787558 
658	 2.25429008924072 
659	 2.26092590296593 
660	 2.2686764174304 
661	 2.27654805959487 
662	 2.28385178991074 
663	 2.29140094105831 
664	 2.29939638776239 
665	 2.30720735744672 
666	 2.31430336735121 
667	 2.32191114229224 
668	 2.33012582745939 
669	 2.33828836298715 
670	 2.34529883154682 
671	 2.35161358331487 
672	 2.35769021295401 
673	 2.36361382672232 
674	 2.3687847725088 
675	 2.37427200508741 
676	 2.37863988780886 
677	 2.38056549634041 
678	 2.38525774189263 
679	 2.38996406423579 
680	 2.39292913687857 
681	 2.39406606473376 
682	 2.39542520021903 
683	 2.39430339291444 
684	 2.38946798049136 
685	 2.38566253098375 
686	 2.38194984310838 
687	 2.37627495616068 
688	 2.36723910772894 
689	 2.3598976801467 
690	 2.35010100470183 
691	 2.337233693131 
692	 2.32533735673633 
693	 2.31162333954309 
694	 2.29759524790255 
695	 2.2850312214975 
696	 2.27402813477868 
697	 2.26436065316154 
698	 2.25426289892285 
699	 2.24218965311597 
700	 2.23206453659655 
701	 2.22160134811248 
702	 2.21072949161321 
703	 2.20233077641718 
704	 2.19438673624101 
705	 2.18672627534018 
706	 2.1792399139581 
707	 2.17091975707382 
708	 2.16436687915365 
709	 2.15883365859137 
710	 2.15230073605828 
711	 2.14529950166657 
712	 2.1391293606405 
713	 2.13372227210624 
714	 2.12740103506394 
715	 2.12030757800909 
716	 2.11236386799277 
717	 2.10370328221579 
718	 2.09568341669776 
719	 2.09051828852997 
720	 2.08713711980111 
721	 2.08301537526356 
722	 2.07976006518411 
723	 2.07569927391559 
724	 2.07012595183104 
725	 2.0640884551358 
726	 2.05926866927655 
727	 2.05491737528641 
728	 2.05029781773586 
729	 2.04646879838912 
730	 2.04213566638472 
731	 2.03813011100069 
732	 2.0355503726458 
733	 2.03281913539157 
734	 2.02933436465185 
735	 2.02523964525641 
736	 2.02131759792451 
737	 2.01740113417687 
738	 2.01342486290261 
739	 2.00947662524927 
740	 2.00607160703274 
741	 2.00346887081537 
742	 2.00063016051132 
743	 1.99666550779282 
744	 1.99329035111228 
745	 1.98941873730849 
746	 1.9853988023309 
747	 1.98251294331817 
748	 1.97919092409454 
749	 1.97495262468303 
750	 1.97048775182538 
751	 1.96813024938903 
752	 1.9650651029009 
753	 1.96181489828489 
754	 1.95919961625339 
755	 1.95553460998337 
756	 1.95287124057543 
757	 1.95042084183287 
758	 1.9463902917084 
759	 1.94686896717907 
760	 1.94848118798517 
761	 1.94797617555421 
762	 1.94672149028492 
763	 1.94784914160212 
764	 1.94882500684051 
765	 1.94859925717886 
766	 1.95086703128507 
767	 1.95133054526153 
768	 1.95148697878606 
769	 1.95348602655463 
770	 1.95468050423995 
771	 1.95610515926061 
772	 1.95818603042613 
773	 1.96056178062547 
774	 1.96104456244276 
775	 1.96219853991054 
776	 1.96480471586692 
777	 1.96545822341383 
778	 1.96566419362709 
779	 1.96632602623146 
780	 1.96778303554517 
781	 1.96900696429274 
782	 1.97016398638818 
783	 1.97121008281365 
784	 1.97187673893689 
785	 1.97110226600074 
786	 1.97044669725681 
787	 1.97046808411558 
788	 1.97038917291249 
789	 1.96942044251381 
790	 1.96862000310703 
791	 1.96853771405779 
792	 1.96791664695145 
793	 1.96738853634509 
794	 1.96697712104396 
795	 1.96637378528053 
796	 1.96463839711039 
797	 1.96370378685895 
798	 1.96334573072614 
799	 1.96223004307636 
800	 1.96146842897987 
801	 1.95992978202842 
802	 1.95814581127392 
803	 1.9584597494565 
804	 1.95758502115168 
805	 1.95556999024208 
806	 1.95343558840855 
807	 1.95278934358746 
808	 1.95096284971388 
809	 1.94913917689127 
810	 1.94846346773713 
811	 1.94498033840172 
812	 1.94122499763573 
813	 1.93825036470387 
814	 1.9359319040203 
815	 1.9326738935287 
816	 1.92993547543904 
817	 1.92775948705639 
818	 1.92458775117006 
819	 1.92342034045098 
820	 1.92291125978384 
821	 1.92184566734077 
822	 1.92050877884016 
823	 1.91872167977507 
824	 1.91587235839943 
825	 1.91227395544505 
826	 1.91074518852994 
827	 1.90909575852188 
828	 1.90728746993005 
829	 1.9056573960782 
830	 1.90109957859958 
831	 1.89827785881691 
832	 1.89712581679323 
833	 1.89429801864939 
834	 1.89284311458587 
835	 1.8916438237645 
836	 1.89018479550352 
837	 1.889158506173 
838	 1.88762803320716 
839	 1.8857965386176 
840	 1.88382125646582 
841	 1.88119876301317 
842	 1.88082593186265 
843	 1.88022463867337 
844	 1.87729456625311 
845	 1.87666480174451 
846	 1.87506690742313 
847	 1.87284376414077 
848	 1.87158312817906 
849	 1.8704100017512 
850	 1.86749139957491 
851	 1.86428387921943 
852	 1.86413709267932 
853	 1.86460290704609 
854	 1.86340714285174 
855	 1.85977113129276 
856	 1.85500038858429 
857	 1.85417053380303 
858	 1.85320388394711 
859	 1.85032643626761 
860	 1.84972078367486 
861	 1.84717058571259 
862	 1.84476108459381 
863	 1.84453527142313 
864	 1.84468031267916 
865	 1.84292139494846 
866	 1.84054862791983 
867	 1.83899035846372 
868	 1.83456180986334 
869	 1.83089185119014 
870	 1.8291444668373 
871	 1.8285248727381 
872	 1.82593816640747 
873	 1.82367584938363 
874	 1.82165073543405 
875	 1.81820072002951 
876	 1.81447914611356 
877	 1.81172833992163 
878	 1.80972307128306 
879	 1.80692836808745 
880	 1.80427887646912 
881	 1.80082296025963 
882	 1.79685426288983 
883	 1.79446058843101 
884	 1.79145627695375 
885	 1.7883506948748 
886	 1.78562887924222 
887	 1.78279037024839 
888	 1.77870494340285 
889	 1.77454990855428 
890	 1.77115018069989 
891	 1.76693197947878 
892	 1.76213039479311 
893	 1.75783920179346 
894	 1.75445323323948 
895	 1.74860777466607 
896	 1.74609029975041 
897	 1.74481332368902 
898	 1.74070881247392 
899	 1.73825514377951 
900	 1.73465817331764 
901	 1.7300989234199 
902	 1.72652454448536 
903	 1.72587850160262 
904	 1.72196951256938 
905	 1.7163174499344 
906	 1.71450771619357 
907	 1.71400375246962 
908	 1.70907048865018 
909	 1.70207582157258 
910	 1.7006961925357 
911	 1.69585136615956 
912	 1.69145094422735 
913	 1.68832280278905 
914	 1.68339823418805 
915	 1.67851545672115 
916	 1.67348614737816 
917	 1.67004073418093 
918	 1.67106024853756 
919	 1.6659417031023 
920	 1.66202392792748 
921	 1.66075670072225 
922	 1.65367056208065 
923	 1.65323428053405 
924	 1.65062530832363 
925	 1.64220513782924 
926	 1.63775738070352 
927	 1.62981240176722 
928	 1.6245403471756 
929	 1.62377419882819 
930	 1.61592113783499 
931	 1.61232437692224 
932	 1.60861980856003 
933	 1.60137651331271 
934	 1.59866425861753 
935	 1.59605990184375 
936	 1.58750294777394 
937	 1.57547460461725 
938	 1.57658590333879 
939	 1.57280679483149 
940	 1.5695991239684 
941	 1.57136673302042 
942	 1.57072303557023 
943	 1.56974131047402 
944	 1.56700817522049 
945	 1.56118512343835 
946	 1.55304385137893 
947	 1.54168652112017 
948	 1.53039207778648 
949	 1.52301644318382 
950	 1.52149165073401 
951	 1.51380864445222 
952	 1.5042817195449 
953	 1.49710816557882 
954	 1.48680779015574 
955	 1.47923224779246 
956	 1.47433223152833 
957	 1.46942734160231 
958	 1.46026787419145 
959	 1.45233528071254 
960	 1.44978359169279 
961	 1.45182775605994 
962	 1.45024549807306 
963	 1.45057789114667 
964	 1.44646456749849 
965	 1.43902766671732 
966	 1.44406908422161 
967	 1.44380951911781 
968	 1.44006641622085 
969	 1.43730020992415 
970	 1.43701819305997 
971	 1.44083529275112 
972	 1.44089276915434 
973	 1.43661296793035 
974	 1.43931878904063 
975	 1.43776500934814 
976	 1.43505364153583 
977	 1.43606219073695 
978	 1.44280336101486 
979	 1.4391926914866 
980	 1.43764995677529 
981	 1.44186502012787 
982	 1.44159210689517 
983	 1.43701822569185 
984	 1.43620566680717 
985	 1.4415506324873 
986	 1.44808344998177 
987	 1.44656207692808 
988	 1.44611385117673 
989	 1.44807096247723 
990	 1.44766542310462 
991	 1.45268974436874 
992	 1.4563683426802 
993	 1.45941892858913 
994	 1.46562064924695 
995	 1.46551291989709 
996	 1.46536630136633 
997	 1.46743869179394 
998	 1.47054744861581 
999	 1.47101956476524 
1000	 1.46789328882138 
1001	 1.50614938298465 
1002	 1.50855258617432 
1003	 1.51076227732955 
1004	 1.51282510275944 
1005	 1.5152084307265 
1006	 1.51791750930075 
1007	 1.52049438083227 
1008	 1.52330943924358 
1009	 1.52565502371841 
1010	 1.52792168924224 
1011	 1.52960399125517 
1012	 1.53132612708718 
1013	 1.53384389271993 
1014	 1.53593170097453 
1015	 1.53836695981216 
1016	 1.54105668797304 
1017	 1.54322878724027 
1018	 1.54585179344733 
1019	 1.54916528539065 
1020	 1.55190192954221 
1021	 1.55427414398999 
1022	 1.55706163584525 
1023	 1.56011938234155 
1024	 1.56251469352706 
1025	 1.56520852162144 
1026	 1.56805969395217 
1027	 1.57035320265357 
1028	 1.57291186541573 
1029	 1.5754595981839 
1030	 1.57788862162674 
1031	 1.58039501919703 
1032	 1.5824868251824 
1033	 1.58458288244845 
1034	 1.58659158673498 
1035	 1.58869799304921 
1036	 1.59043801414475 
1037	 1.59254444719616 
1038	 1.59492679178343 
1039	 1.59737356008064 
1040	 1.599272568948 
1041	 1.60174090497879 
1042	 1.60439212354491 
1043	 1.60651514196613 
1044	 1.6090067911187 
1045	 1.61184407966539 
1046	 1.61396148860588 
1047	 1.61565494781428 
1048	 1.61760093524082 
1049	 1.62027987603016 
1050	 1.62300476067528 
1051	 1.62627750042026 
1052	 1.62907634179972 
1053	 1.63177767471984 
1054	 1.63415992831306 
1055	 1.63627306454054 
1056	 1.63894673258189 
1057	 1.64147327561514 
1058	 1.64398790088823 
1059	 1.64602579846212 
1060	 1.64746875736857 
1061	 1.64978168548027 
1062	 1.65171988158032 
1063	 1.65351807877292 
1064	 1.65650988576786 
1065	 1.65855206673928 
1066	 1.66010328673476 
1067	 1.66134176809692 
1068	 1.66320145205816 
1069	 1.66396735628952 
1070	 1.66529458839228 
1071	 1.66704096011125 
1072	 1.66764762996503 
1073	 1.66865131670381 
1074	 1.66959829942772 
1075	 1.66968747730298 
1076	 1.6693303453585 
1077	 1.66925822170826 
1078	 1.66938480014423 
1079	 1.66963014245598 
1080	 1.670561073215 
1081	 1.67057396875145 
1082	 1.67009679421056 
1083	 1.66892463609878 
1084	 1.6681920493344 
1085	 1.66773097156241 
1086	 1.66739719525934 
1087	 1.66698842125524 
1088	 1.66653524411724 
1089	 1.66480752597485 
1090	 1.66243388479206 
1091	 1.6607436089895 
1092	 1.65897656157552 
1093	 1.6568833804984 
1094	 1.65484998624879 
1095	 1.65295907643139 
1096	 1.65091346525686 
1097	 1.64873068439988 
1098	 1.64605198009438 
1099	 1.64333647910584 
1100	 1.64020215242439 
1101	 1.63641830566443 
1102	 1.63290799728116 
1103	 1.62989722758068 
1104	 1.62665516946062 
1105	 1.62360874658245 
1106	 1.62054285770434 
1107	 1.61696077405008 
1108	 1.61332755758659 
1109	 1.60947465029136 
1110	 1.60479519749562 
1111	 1.59990681996433 
1112	 1.59451160688871 
1113	 1.58912791834769 
1114	 1.58317347009845 
1115	 1.57670812226981 
1116	 1.56999097764417 
1117	 1.56258462212765 
1118	 1.55447053578164 
1119	 1.54513588409898 
1120	 1.53569541456872 
1121	 1.52617743125077 
1122	 1.51569533749395 
1123	 1.50613264979886 
1124	 1.49649974951998 
1125	 1.48557469304441 
1126	 1.47453810231903 
1127	 1.46426272448004 
1128	 1.4517742733234 
1129	 1.43970982063675 
1130	 1.42573772736004 
1131	 1.41039785877295 
1132	 1.39471920171935 
1133	 1.37836078708603 
1134	 1.36141019012055 
1135	 1.34459650601732 
1136	 1.32756400977385 
1137	 1.31081709094317 
1138	 1.29364339393364 
1139	 1.27568345417388 
1140	 1.25768782680451 
1141	 1.23874028750691 
1142	 1.22017486219212 
1143	 1.20220226383099 
1144	 1.18460032393452 
1145	 1.1664504285951 
1146	 1.1484667521867 
1147	 1.13068683970653 
1148	 1.11211523582056 
1149	 1.09602587000604 
1150	 1.08188412197825 
1151	 1.06859846297039 
1152	 1.05683732129614 
1153	 1.04661502340194 
1154	 1.03745547635087 
1155	 1.02891562334005 
1156	 1.02169788428568 
1157	 1.01526475660625 
1158	 1.0088933207461 
1159	 1.00255564200461 
1160	 0.996972265925901 
1161	 0.991676805764659 
1162	 0.986921052406349 
1163	 0.98274271903121 
1164	 0.978666371472078 
1165	 0.974484215028509 
1166	 0.970874538088563 
1167	 0.96753898530406 
1168	 0.964601349509628 
1169	 0.962121061215366 
1170	 0.95991933843713 
1171	 0.957342799805711 
1172	 0.954718890389997 
1173	 0.952606096531466 
1174	 0.950143118973259 
1175	 0.947768487907957 
1176	 0.945655800393897 
1177	 0.942925438822355 
1178	 0.939732130907634 
1179	 0.936400547368072 
1180	 0.932663615689041 
1181	 0.929023657686171 
1182	 0.925004529235476 
1183	 0.921379934391 
1184	 0.917950441613755 
1185	 0.9146378654511 
1186	 0.911439710838065 
1187	 0.908371613023884 
1188	 0.905357564703695 
1189	 0.902700690511965 
1190	 0.899940128970243 
1191	 0.897535541959325 
1192	 0.895600398677405 
1193	 0.893518841371359 
1194	 0.891637602322665 
1195	 0.890053176434089 
1196	 0.888377489936499 
1197	 0.886646441231698 
1198	 0.885126714683103 
1199	 0.883760858452514 
1200	 0.882430204345051 
1201	 0.881007421320625 
1202	 0.879959685825772 
1203	 0.879218465734504 
1204	 0.878472194816257 
1205	 0.87778592273139 
1206	 0.877475971977803 
1207	 0.877020568368326 
1208	 0.877225971903786 
1209	 0.877856605184954 
1210	 0.879012146767864 
1211	 0.880770789437793 
1212	 0.882806259960144 
1213	 0.885175405839841 
1214	 0.887881615269361 
1215	 0.891178179455651 
1216	 0.89468543779711 
1217	 0.899011912463256 
1218	 0.904309394404009 
1219	 0.909496193910405 
1220	 0.915240957363648 
1221	 0.920891138291364 
1222	 0.92667535334539 
1223	 0.932476628820813 
1224	 0.938577849027052 
1225	 0.944426626343305 
1226	 0.950258850346525 
1227	 0.955936155106909 
1228	 0.961558226817647 
1229	 0.966820910236467 
1230	 0.97211501419365 
1231	 0.977485628461868 
1232	 0.982576783356551 
1233	 0.987656197933063 
1234	 0.992339768181188 
1235	 0.996751521394648 
1236	 1.00101480146841 
1237	 1.00502517847306 
1238	 1.00892942313943 
1239	 1.01271599897248 
1240	 1.0163264225677 
1241	 1.01983176285735 
1242	 1.02303183130203 
1243	 1.02592868458383 
1244	 1.02882257697711 
1245	 1.03148314092582 
1246	 1.03411645196587 
1247	 1.03686994548544 
1248	 1.03927221410895 
1249	 1.04155940906506 
1250	 1.04353137312906 
1251	 1.04509159538866 
1252	 1.04658911456443 
1253	 1.0480158670222 
1254	 1.04924655509143 
1255	 1.05037727138807 
1256	 1.05164408658475 
1257	 1.0523015635683 
1258	 1.05237201991543 
1259	 1.05277299121993 
1260	 1.0529689757413 
1261	 1.05316921375551 
1262	 1.05366394233156 
1263	 1.05373114943264 
1264	 1.05341110623109 
1265	 1.05310717325176 
1266	 1.05258051148736 
1267	 1.05213247746709 
1268	 1.05175711553683 
1269	 1.05117512008199 
1270	 1.05066810977432 
1271	 1.04986810451971 
1272	 1.04861767109529 
1273	 1.04762254026801 
1274	 1.04628003519233 
1275	 1.04474132076192 
1276	 1.04313980428472 
1277	 1.04136665178718 
1278	 1.03961156283591 
1279	 1.03778117883768 
1280	 1.03589588145882 
1281	 1.03406748098449 
1282	 1.03192697087847 
1283	 1.02963396386626 
1284	 1.0272060116947 
1285	 1.02449560883409 
1286	 1.02184379282972 
1287	 1.01918514977635 
1288	 1.01637386405574 
1289	 1.01362751445989 
1290	 1.01051573741929 
1291	 1.00701049225357 
1292	 1.00358408518484 
1293	 1.00008508919638 
1294	 0.996313821551452 
1295	 0.992723733981222 
1296	 0.988462861081882 
1297	 0.984029169423175 
1298	 0.979078858782068 
1299	 0.97430008771602 
1300	 0.969356646445854 
1301	 0.964274129342694 
1302	 0.959220393140411 
1303	 0.953682292155979 
1304	 0.947756080553342 
1305	 0.941733129683246 
1306	 0.935280431422309 
1307	 0.928972743452119 
1308	 0.922717014960341 
1309	 0.916125187061839 
1310	 0.909329878850514 
1311	 0.90248070124935 
1312	 0.895401010205335 
1313	 0.888208749975898 
1314	 0.881036853143696 
1315	 0.873672378080716 
1316	 0.865943653919909 
1317	 0.858366629585614 
1318	 0.850734026465853 
1319	 0.843138442357766 
1320	 0.835399769242312 
1321	 0.827972648228042 
1322	 0.820214888965243 
1323	 0.812211054024705 
1324	 0.804319084032984 
1325	 0.796265541020911 
1326	 0.788045149017262 
1327	 0.779720701040102 
1328	 0.771154806501392 
1329	 0.761975504037567 
1330	 0.753320344371609 
1331	 0.745036118388413 
1332	 0.736368646950617 
1333	 0.72750104747021 
1334	 0.719390055796696 
1335	 0.711190426791196 
1336	 0.703707876293913 
1337	 0.697062643889122 
1338	 0.690602226547161 
1339	 0.6840681615829 
1340	 0.678015551798007 
1341	 0.672134778224688 
1342	 0.666524958543641 
1343	 0.660983819933147 
1344	 0.655297032916245 
1345	 0.64927626346343 
1346	 0.642834547183179 
1347	 0.636764862077625 
1348	 0.631433765915979 
1349	 0.625219457192652 
1350	 0.620141076378485 
1351	 0.613300597916231 
1352	 0.604299281913979 
1353	 0.596127952609339 
1354	 0.591494759207334 
1355	 0.583791062456482 
1356	 0.583246221630702 
1357	 0.574065471074081 
1358	 0.559431023699697 
1359	 0.542956708968477 
1360	 0.526218734559974 
1361	 0.501722572793304 
1362	 0.503982560413003 
1363	 0.494959412579291 
1364	 0.502869661496224 
1365	 0.486393596811038 
1366	 0.47746355066637 
1367	 0.452626695962727 
1368	 0.394110971026924 
1369	 0.384206635683064 
1370	 0.407477224982894 
1371	 0.403394124072859 
1372	 0.396525153137962 
1373	 0.396660384291761 
1374	 0.39259533576291 
1375	 0.382143860571638 
1376	 0.38433805339053 
1377	 0.385770461578443 
1378	 0.380780661735703 
1379	 0.368235058558638 
1380	 0.358777120463643 
1381	 0.348953223828181 
1382	 0.337010514054644 
1383	 0.324460622254491 
1384	 0.311167440318962 
1385	 0.294587948586906 
1386	 0.286070357085483 
1387	 0.283217789003108 
1388	 0.27603222410191 
1389	 0.270390959115187 
1390	 0.26669122759423 
1391	 0.262352994711039 
1392	 0.255970581194845 
1393	 0.250474111545958 
1394	 0.24553744175512 
1395	 0.237912985084253 
1396	 0.232268679632134 
1397	 0.229741198734191 
1398	 0.225410272834613 
1399	 0.215928269751025 
1400	 0.213665526039424 
1401	 0.21898654729873 
1402	 0.217370653532243 
1403	 0.216717111125639 
1404	 0.21460776211034 
1405	 0.207778374102172 
1406	 0.200528287826774 
1407	 0.201463570583064 
1408	 0.200894813158655 
1409	 0.198109347198404 
1410	 0.197880093465448 
1411	 0.19733790273482 
1412	 0.19544731730016 
1413	 0.195479617183607 
1414	 0.197759560347509 
1415	 0.197400905636986 
1416	 0.195943472777621 
1417	 0.195514580425943 
1418	 0.194760385921812 
1419	 0.19448136041387 
1420	 0.194798014971624 
1421	 0.194946807694552 
1422	 0.19534247497468 
1423	 0.194973062225956 
1424	 0.194196281987586 
1425	 0.193829821122269 
1426	 0.192813095921311 
1427	 0.192615144128291 
1428	 0.193404110804277 
1429	 0.193675763369998 
1430	 0.193729976323895 
1431	 0.194013329050091 
1432	 0.194830238185383 
1433	 0.19470383582617 
1434	 0.19392598835398 
1435	 0.193758434152304 
1436	 0.19300368819226 
1437	 0.192778271449317 
1438	 0.193573484920812 
1439	 0.193830981930849 
1440	 0.19401061317307 
1441	 0.193991562381359 
1442	 0.193628003603139 
1443	 0.193462410670685 
1444	 0.192957562895769 
1445	 0.192780672500845 
1446	 0.193584645807082 
1447	 0.194191396997534 
1448	 0.194745667434236 
1449	 0.195852433961209 
1450	 0.195979822797306 
1451	 0.195396370773418 
1452	 0.195461221114218 
1453	 0.195546540252007 
1454	 0.195512382692759 
1455	 0.195635349569407 
1456	 0.195729976094686 
1457	 0.195586583953756 
1458	 0.19567733667256 
1459	 0.196140109118275 
1460	 0.196183196304829 
1461	 0.195918818074577 
1462	 0.19593340066524 
1463	 0.195703342979585 
1464	 0.196057602456851 
1465	 0.197282484904353 
1466	 0.197709921945819 
1467	 0.198012302809388 
1468	 0.198215412410337 
1469	 0.197514724246056 
1470	 0.19772198061749 
1471	 0.198634643678164 
1472	 0.199230600697009 
1473	 0.200041192605974 
1474	 0.20060893716398 
1475	 0.200799571271724 
1476	 0.201238698802795 
1477	 0.2016366773178 
1478	 0.202243781294162 
1479	 0.203166363901508 
1480	 0.203903818123626 
1481	 0.204617418872063 
1482	 0.205359457216427 
1483	 0.205998228995366 
1484	 0.206620383546112 
1485	 0.207158458124403 
1486	 0.20792442786335 
1487	 0.208893199574753 
1488	 0.209579222389891 
1489	 0.210472773718519 
1490	 0.211525687141937 
1491	 0.212191215161453 
1492	 0.213096308448996 
1493	 0.214149827388591 
1494	 0.214930966741825 
1495	 0.21571437819263 
1496	 0.216534829395305 
1497	 0.217256271847328 
1498	 0.217755076355642 
1499	 0.218584802644979 
1500	 0.219573324406759 
1501	 0.22051745028401 
1502	 0.221554373991237 
1503	 0.222650846000103 
1504	 0.223837294245222 
1505	 0.224822814062883 
1506	 0.225793784369864 
1507	 0.226767472330664 
1508	 0.227565159773162 
1509	 0.228466992610248 
1510	 0.229513626369527 
1511	 0.230472596451311 
1512	 0.231213000418067 
1513	 0.232301256033901 
1514	 0.233713448908893 
1515	 0.234785698190295 
1516	 0.235822209186393 
1517	 0.2369765079454 
1518	 0.237996229957576 
1519	 0.239059403850209 
1520	 0.240395088287965 
1521	 0.241497878328752 
1522	 0.242241356155756 
1523	 0.243348850054156 
1524	 0.244725909772317 
1525	 0.245835971197861 
1526	 0.246896584755822 
1527	 0.248097452084893 
1528	 0.249268767717384 
1529	 0.250365341737793 
1530	 0.251423080386509 
1531	 0.252754390710506 
1532	 0.254214020493304 
1533	 0.255502505275719 
1534	 0.256922181926727 
1535	 0.25838729060676 
1536	 0.259645078447643 
1537	 0.261000022998852 
1538	 0.262654006459478 
1539	 0.264159901449756 
1540	 0.265487822389077 
1541	 0.266872272476184 
1542	 0.268351893866037 
1543	 0.269749244746366 
1544	 0.271020822436046 
1545	 0.272377362898815 
1546	 0.273732658939229 
1547	 0.275137695025175 
1548	 0.276673755429622 
1549	 0.27812418799156 
1550	 0.27944216878738 
1551	 0.280942206491294 
1552	 0.28280216646292 
1553	 0.2842020214145 
1554	 0.28524875820672 
1555	 0.286578222312497 
1556	 0.28765406338424 
1557	 0.288894450349393 
1558	 0.290819745918493 
1559	 0.292255936755908 
1560	 0.293140814890614 
1561	 0.294335027845683 
1562	 0.295550001233715 
1563	 0.296706236004534 
1564	 0.297989118725766 
1565	 0.299352956672445 
1566	 0.300652492373311 
1567	 0.301888931447903 
1568	 0.303320040158848 
1569	 0.305021893534726 
1570	 0.306432543268229 
1571	 0.30772097939525 
1572	 0.309198097767692 
1573	 0.310657036405232 
1574	 0.312148615188764 
1575	 0.313813958431211 
1576	 0.31520150235409 
1577	 0.316434101439749 
1578	 0.317642088929978 
1579	 0.318596529739219 
1580	 0.320057113602884 
1581	 0.321742839177146 
1582	 0.323137918604681 
1583	 0.324771386463333 
1584	 0.32604157819283 
1585	 0.326854509061075 
1586	 0.328057105782968 
1587	 0.329409957106918 
1588	 0.330651731333581 
1589	 0.331928406872029 
1590	 0.333148756985463 
1591	 0.334269490792429 
1592	 0.335547914153234 
1593	 0.337027180733157 
1594	 0.338049357288987 
1595	 0.338901199819115 
1596	 0.33990542355964 
1597	 0.340546411607632 
1598	 0.341733257347507 
1599	 0.343457524070011 
1600	 0.344682699436884 
1601	 0.34584897044582 
1602	 0.347017039800627 
1603	 0.347935873302903 
1604	 0.34910520674295 
1605	 0.350537293732268 
1606	 0.351621907897816 
1607	 0.35250981666629 
1608	 0.353651921475901 
1609	 0.354820182403843 
1610	 0.35578547095485 
1611	 0.356839519799599 
1612	 0.357787256917151 
1613	 0.358396666455848 
1614	 0.359286583732162 
1615	 0.360370570082501 
1616	 0.361357833443589 
1617	 0.362345909752578 
1618	 0.363273521499602 
1619	 0.364164483580554 
1620	 0.36518365724131 
1621	 0.366286629650207 
1622	 0.367117206641403 
1623	 0.36795055848183 
1624	 0.368676705066244 
1625	 0.368998839384694 
1626	 0.369839049829732 
1627	 0.371042722667588 
1628	 0.371897238904082 
1629	 0.372831830840304 
1630	 0.373587414786756 
1631	 0.374085881262681 
1632	 0.374661128227915 
1633	 0.375172599375618 
1634	 0.375891252835373 
1635	 0.376812943279686 
1636	 0.377266081349226 
1637	 0.377541228419546 
1638	 0.378135410133929 
1639	 0.378469594098484 
1640	 0.3790123199107 
1641	 0.380114698362081 
1642	 0.380742523993416 
1643	 0.3810779913639 
1644	 0.381329294615277 
1645	 0.381398380585387 
1646	 0.381796642241066 
1647	 0.382199466789801 
1648	 0.382463267210374 
1649	 0.382880443996075 
1650	 0.383249066657431 
1651	 0.383428746392212 
1652	 0.383582626670369 
1653	 0.383931356184981 
1654	 0.384087768073282 
1655	 0.383994661832693 
1656	 0.383752548932093 
1657	 0.383657675007718 
1658	 0.382829203006448 
1659	 0.381587749878258 
1660	 0.381202880316745 
1661	 0.381023157742199 
1662	 0.380839242622135 
1663	 0.381002035283124 
1664	 0.380291882916776 
1665	 0.378989294426307 
1666	 0.37820015616981 
1667	 0.377445902618133 
1668	 0.376491888426573 
1669	 0.375877847509014 
1670	 0.375161678895385 
1671	 0.373918255651437 
1672	 0.373000122499448 
1673	 0.372204833180764 
1674	 0.370764771061111 
1675	 0.369258621510826 
1676	 0.367634190573478 
1677	 0.36587997715057 
1678	 0.364531593565765 
1679	 0.363087187695282 
1680	 0.361468216135865 
1681	 0.359628178148603 
1682	 0.357807704405837 
1683	 0.356405274440368 
1684	 0.355031993135709 
1685	 0.353706520327348 
1686	 0.352188296477152 
1687	 0.350402920188965 
1688	 0.348714255131263 
1689	 0.347538862265945 
1690	 0.346351613135318 
1691	 0.345063846799639 
1692	 0.343934200269037 
1693	 0.342581937122206 
1694	 0.340994766601529 
1695	 0.339684140482082 
1696	 0.33840636598657 
1697	 0.337001799489831 
1698	 0.335604804937499 
1699	 0.33427101352521 
1700	 0.333020113231676 
1701	 0.331595029827242 
1702	 0.329955831498758 
1703	 0.328711354980751 
1704	 0.327388397247122 
1705	 0.326321474175169 
1706	 0.326105730284706 
1707	 0.325097590950416 
1708	 0.323468288951422 
1709	 0.322335434289137 
1710	 0.320992663088548 
1711	 0.319944027404102 
1712	 0.31968242874822 
1713	 0.31880455147604 
1714	 0.317671126892403 
1715	 0.316484865305024 
1716	 0.314822012594278 
1717	 0.313570857607971 
1718	 0.312331024659285 
1719	 0.311431801964189 
1720	 0.311118819662052 
1721	 0.31024954060947 
1722	 0.309151397601786 
1723	 0.308272135914518 
1724	 0.307179142470667 
1725	 0.306502517953902 
1726	 0.306322391763726 
1727	 0.305868154132505 
1728	 0.305254213389867 
1729	 0.304942090366806 
1730	 0.304860256652335 
1731	 0.304840507292386 
1732	 0.304680652431012 
1733	 0.304527546481307 
1734	 0.303801725090775 
1735	 0.303474240177707 
1736	 0.303138783671574 
1737	 0.302319912929538 
1738	 0.302242711268459 
1739	 0.302008878855851 
1740	 0.301603328736199 
1741	 0.301334100787096 
1742	 0.300695146199764 
1743	 0.300671408398976 
1744	 0.300525788087893 
1745	 0.300026326376683 
1746	 0.300089489705625 
1747	 0.298843333338896 
1748	 0.297109349716246 
1749	 0.296669954241058 
1750	 0.295508373986116 
1751	 0.294563749671363 
1752	 0.294582512643368 
1753	 0.293586669345969 
1754	 0.292624153446158 
1755	 0.291999675241592 
1756	 0.290860304639391 
1757	 0.290493635281341 
1758	 0.289728073197128 
1759	 0.288530254114065 
1760	 0.287855658408097 
1761	 0.287185846393859 
1762	 0.286588003712071 
1763	 0.286491161980536 
1764	 0.285911990754394 
1765	 0.285103150318345 
1766	 0.284410338585322 
1767	 0.283574808435664 
1768	 0.282994916128559 
1769	 0.282287985987938 
1770	 0.282043117372169 
1771	 0.282310301413327 
1772	 0.281924646968532 
1773	 0.281820814209533 
1774	 0.281465559064414 
1775	 0.280561491042193 
1776	 0.280097110470032 
1777	 0.279237343213982 
1778	 0.278722130617639 
1779	 0.278974490871572 
1780	 0.279333056011746 
1781	 0.279604606829428 
1782	 0.278786808106387 
1783	 0.277544575421021 
1784	 0.276497094817924 
1785	 0.275844734951926 
1786	 0.275990608178592 
1787	 0.276030976209991 
1788	 0.276259664925206 
1789	 0.276096601668587 
1790	 0.27495397458988 
1791	 0.27394345338666 
1792	 0.273624956631592 
1793	 0.273491237413277 
1794	 0.273163469363513 
1795	 0.274253449019047 
1796	 0.274802902266243 
1797	 0.274490865865323 
1798	 0.275755129318175 
1799	 0.274851286032512 
1800	 0.272910210707965 
1801	 0.26585555388001 
1802	 0.269558966796756 
1803	 0.270274998748015 
1804	 0.268720335098277 
1805	 0.267918794545328 
1806	 0.267026623839486 
1807	 0.265805592235147 
1808	 0.261841161369299 
1809	 0.26124847891519 
1810	 0.259828419228492 
1811	 0.258749930032378 
1812	 0.258681921191219 
1813	 0.259656277014777 
1814	 0.26031266543512 
1815	 0.264445585516906 
1816	 0.264778658704768 
1817	 0.259595515181436 
1818	 0.259017689415634 
1819	 0.259436438319466 
1820	 0.25835317556109 
1821	 0.260357220605934 
1822	 0.271965859934631 
1823	 0.274760502682008 
1824	 0.271330892323003 
1825	 0.271497428671512 
1826	 0.264504221725137 
1827	 0.264474301105425 
1828	 0.269131230368393 
1829	 0.286672981497969 
1830	 0.296376903190616 
1831	 0.314954468669555 
1832	 0.328242950600521 
1833	 0.321700846888196 
1834	 0.331636863601795 
1835	 0.337191619862125 
1836	 0.356501050178226 
1837	 0.418600113717206 
1838	 0.436964982061701 
1839	 0.437661962707292 
1840	 0.416446482098201 
1841	 0.403953769862973 
1842	 0.340847384916546 
1843	 0.324196519235528 
1844	 0.336722709468016 
1845	 0.356363809469385 
1846	 0.405642927415962 
1847	 0.420085672018369 
1848	 0.428274559716495 
1849	 0.459957661229351 
1850	 0.443696593447767 
1851	 0.370218513127024 
1852	 0.338078931901359 
1853	 0.280514573354628 
1854	 0.275143230830827 
1855	 0.309904283077939 
1856	 0.330911900233049 
1857	 0.377623409562101 
1858	 0.426471541756619 
1859	 0.406908269686377 
1860	 0.351748615928063 
1861	 0.312891729112238 
1862	 0.220954876621105 
1863	 0.182849863110794 
1864	 0.178035350577944 
1865	 0.155103135534217 
1866	 0.10278341819831 
1867	 9.39524662669254E-02 
1868	 0.13295100696944 
1869	 0.180011874826028 
1870	 0.232767233039176 
1871	 0.377890032328342 
1872	 0.405548313431695 
1873	 0.346181871076535 
1874	 0.327189907296352 
1875	 0.306133224409661 
1876	 0.269489759251801 
1877	 0.210951263136712 
1878	 0.21315094187204 
1879	 0.192994953464765 
1880	 0.177706178168214 
1881	 0.172027895375385 
1882	 0.195495813395071 
1883	 0.179526293777685 
1884	 0.130764008363845 
1885	 0.123932033751124 
1886	 0.115608108253087 
1887	 0.120628067992737 
1888	 0.154648654102233 
1889	 0.192728434175799 
1890	 0.220076809328837 
1891	 0.253089597813302 
1892	 0.262221073561439 
1893	 0.25683017419474 
1894	 0.262022331906793 
1895	 0.23710139373812 
1896	 0.240152870910034 
1897	 0.292515861238479 
1898	 0.316243555922057 
1899	 0.306791534384447 
1900	 0.280702699280997 
1901	 0.280550932614357 
1902	 0.243456188812209 
1903	 0.25765439366461 
1904	 0.403645267882639 
1905	 0.429089887345719 
1906	 0.393750628104555 
1907	 0.352041266239891 
1908	 0.308101436073956 
1909	 0.252072160730371 
1910	 0.276450780686693 
1911	 0.279893044995778 
1912	 0.270872351513206 
1913	 0.255544776328773 
1914	 0.246425685222036 
1915	 0.236112648484984 
1916	 0.232483666501691 
1917	 0.230098649591621 
1918	 0.224447591456995 
1919	 0.245033707173605 
1920	 0.241371925008659 
1921	 0.220751631447321 
1922	 0.211356055876352 
1923	 0.202511397921355 
1924	 0.176420882696775 
1925	 0.176810442667397 
1926	 0.198093916346201 
1927	 0.204107530358097 
1928	 0.212335564134595 
1929	 0.21770420239149 
1930	 0.209600575370261 
1931	 0.214128109911512 
1932	 0.223430519019613 
1933	 0.226018259261807 
1934	 0.22350260141159 
1935	 0.218953725346419 
1936	 0.21457486728304 
1937	 0.205153051017258 
1938	 0.198883027621551 
1939	 0.192500865213148 
1940	 0.190102177359336 
1941	 0.196064754945463 
1942	 0.196032450677425 
1943	 0.198347084622666 
1944	 0.203110458804239 
1945	 0.196742539044098 
1946	 0.193387408053441 
1947	 0.193766327347262 
1948	 0.197612179389176 
1949	 0.198020250027795 
1950	 0.200306232105456 
1951	 0.202282143600698 
1952	 0.194231577906932 
1953	 0.192404365660104 
1954	 0.196707309055738 
1955	 0.196836407490965 
1956	 0.201476129443381 
1957	 0.202166364489219 
1958	 0.201226914620057 
1959	 0.196327146527499 
1960	 0.194970148840914 
1961	 0.194452604629723 
1962	 0.193448546233893 
1963	 0.191347445896078 
1964	 0.188556422143923 
1965	 0.186984801798498 
1966	 0.187271549072653 
1967	 0.190257228519338 
1968	 0.19162991355845 
1969	 0.191748598705277 
1970	 0.190712054609931 
1971	 0.189995250117252 
1972	 0.187982779474852 
1973	 0.18788895879515 
1974	 0.189005751070371 
1975	 0.190078346595559 
1976	 0.190105764690684 
1977	 0.189880209602756 
1978	 0.188090647151144 
1979	 0.18589085220771 
1980	 0.185554157757295 
1981	 0.185107835037327 
1982	 0.184695414394943 
1983	 0.184617097579159 
1984	 0.184638430224807 
1985	 0.184347605686248 
1986	 0.18366141554705 
1987	 0.182821275329758 
1988	 0.182891237550826 
1989	 0.18185679596279 
1990	 0.180570475934024 
1991	 0.179924381056573 
1992	 0.178666115500414 
1993	 0.178883177571635 
1994	 0.179649668887635 
1995	 0.180139746081135 
1996	 0.180803608166241 
1997	 0.182360038477273 
1998	 0.181975212939305 
1999	 0.181302733525154 
2000	 0.18070519035447 
2001	 0.180434050665406 
2002	 0.182009665159929 
2003	 0.182993239103053 
2004	 0.186628489401894 
2005	 0.188565526745094 
2006	 0.189788045717125 
2007	 0.189828231687641 
2008	 0.192082429902533 
2009	 0.191066590571571 
2010	 0.190941240845894 
2011	 0.191017199027077 
2012	 0.188852161713693 
2013	 0.1860912115256 
2014	 0.183150547308014 
2015	 0.180694704093227 
2016	 0.178304972805049 
2017	 0.178729853816799 
2018	 0.178137055448213 
2019	 0.177049912693757 
2020	 0.175342190595009 
2021	 0.175419875101478 
2022	 0.173917374970033 
2023	 0.174898713818029 
2024	 0.177977590559314 
2025	 0.177924780944613 
2026	 0.177856954887318 
2027	 0.178796200764006 
2028	 0.177910175593299 
2029	 0.178293743376421 
2030	 0.180179248927985 
2031	 0.180249374500628 
2032	 0.18063659778824 
2033	 0.180905183855608 
2034	 0.181441956921045 
2035	 0.181980955572998 
2036	 0.182859470724094 
2037	 0.182492854217972 
2038	 0.182150392643353 
2039	 0.182330826684027 
2040	 0.181538230047936 
2041	 0.18176404277516 
2042	 0.182291995929792 
2043	 0.181031453729761 
2044	 0.181413123458527 
2045	 0.181523791758955 
2046	 0.181689385337433 
2047	 0.180855455021649 
2048	 0.182317870131786 
2049	 0.182685251554247 
2050	 0.182181629184609 
2051	 0.184305285115735 
2052	 0.185610103504268 
2053	 0.185922643077441 
2054	 0.187171782454481 
2055	 0.187424710684511 
2056	 0.186611086892173 
2057	 0.187184948916083 
2058	 0.187888402976937 
2059	 0.187676030782535 
2060	 0.186939230385109 
2061	 0.187030196839459 
2062	 0.186869491952535 
2063	 0.187980401683511 
2064	 0.189466558659059 
2065	 0.189838324530183 
2066	 0.190788916766364 
2067	 0.191242706460954 
2068	 0.191862188845348 
2069	 0.192198734521008 
2070	 0.192191763248978 
2071	 0.192031102472609 
2072	 0.192093870191654 
2073	 0.191982932957048 
2074	 0.193640388850501 
2075	 0.194421214726031 
2076	 0.193445929952546 
2077	 0.193214180387713 
2078	 0.194296590613276 
2079	 0.195560021709955 
2080	 0.197550917336908 
2081	 0.19900227195021 
2082	 0.197418161073274 
2083	 0.196014981563988 
2084	 0.196545607913905 
2085	 0.197366848687615 
2086	 0.198618282213236 
2087	 0.199319312989746 
2088	 0.200228465075961 
2089	 0.199583885790531 
2090	 0.199168688645065 
2091	 0.19994508522627 
2092	 0.201021945504787 
2093	 0.201584370909231 
2094	 0.201885228814904 
2095	 0.202002846370178 
2096	 0.202050483665517 
2097	 0.202917299062887 
2098	 0.203267818119139 
2099	 0.203307695933444 
2100	 0.204134296321524 
2101	 0.204435332506429 
2102	 0.204327286351717 
2103	 0.203908863631437 
2104	 0.204148767592762 
2105	 0.204290855828031 
2106	 0.204004273354861 
2107	 0.205268534860474 
2108	 0.206198523342657 
2109	 0.205462955262695 
2110	 0.205145867962776 
2111	 0.204888971947845 
2112	 0.204308910078277 
2113	 0.204454738552552 
2114	 0.204421562224642 
2115	 0.20302874658616 
2116	 0.202772946120574 
2117	 0.203042357650982 
2118	 0.203971990785342 
2119	 0.204379177867744 
2120	 0.20557500241353 
2121	 0.205592875312172 
2122	 0.205186930137074 
2123	 0.204868433677173 
2124	 0.204423246149763 
2125	 0.204933027435723 
2126	 0.20642406954295 
2127	 0.207362531842417 
2128	 0.207813115473027 
2129	 0.208717117318645 
2130	 0.208328763529706 
2131	 0.207528766684829 
2132	 0.208465127952308 
2133	 0.208354113970497 
2134	 0.207752889821962 
2135	 0.20645510838929 
2136	 0.205755851553995 
2137	 0.205163394495676 
2138	 0.205767159972231 
2139	 0.205356580042718 
2140	 0.205112408113919 
2141	 0.204937969772864 
2142	 0.202333159036885 
2143	 0.202601143301132 
2144	 0.204766425962839 
2145	 0.20436237147111 
2146	 0.204528729575846 
2147	 0.205315199180054 
2148	 0.203967040118558 
2149	 0.20232768720565 
2150	 0.201990894899854 
2151	 0.202030197969284 
2152	 0.202346303486567 
2153	 0.202215803021518 
2154	 0.202780580252765 
2155	 0.203107144614204 
2156	 0.201681498950415 
2157	 0.199365143890087 
2158	 0.199495966494541 
2159	 0.199879140651828 
2160	 0.199231828303737 
2161	 0.199793374521062 
2162	 0.199109565576414 
2163	 0.197385808219807 
2164	 0.197738688077758 
2165	 0.198352716038223 
2166	 0.198492650611219 
2167	 0.198500758057557 
2168	 0.198586997896618 
2169	 0.198455364054201 
2170	 0.197977635910174 
2171	 0.197245860245479 
2172	 0.197194588998171 
2173	 0.196515424461377 
2174	 0.197159493795526 
2175	 0.198926825861429 
2176	 0.200347831899017 
2177	 0.201581832459071 
2178	 0.201126567902854 
2179	 0.199659488144668 
2180	 0.198963283517289 
2181	 0.198983962860003 
2182	 0.199887381034839 
2183	 0.201977850493371 
2184	 0.202507037198892 
2185	 0.201545832424429 
2186	 0.201078166534921 
2187	 0.200379016837264 
2188	 0.198374565160634 
2189	 0.197542098936381 
2190	 0.19784549824827 
2191	 0.197092514183477 
2192	 0.195142985892648 
2193	 0.196067642610002 
2194	 0.197033683066804 
2195	 0.197175400462499 
2196	 0.199372865899066 
2197	 0.20011085723055 
2198	 0.200106163945907 
2199	 0.2003019758649 
2200	 0.199449795430167 
2201	 0.199904294178576 
2202	 0.200757229560981 
2203	 0.201625959443547 
2204	 0.203679379306719 
2205	 0.204481407830348 
2206	 0.203998816289478 
2207	 0.204113010055612 
2208	 0.204133183700863 
2209	 0.203619547219727 
2210	 0.203537988828723 
2211	 0.204058187106015 
2212	 0.204305780752777 
2213	 0.202270033890212 
2214	 0.199487445814033 
2215	 0.198515891243771 
2216	 0.197566867840288 
2217	 0.198049574751566 
2218	 0.200588155051936 
2219	 0.201114476099585 
2220	 0.201845672560132 
2221	 0.203681391285681 
2222	 0.20471550465767 
2223	 0.206594180334548 
2224	 0.206032537100901 
2225	 0.202803506364244 
2226	 0.201305324695441 
2227	 0.20003304932815 
2228	 0.199528915297312 
2229	 0.200470842206255 
2230	 0.200312269312388 
2231	 0.200422888549906 
2232	 0.199709688913068 
2233	 0.199736132709687 
2234	 0.200073201929623 
2235	 0.201972849517671 
2236	 0.202790043091753 
2237	 0.203023002359519 
2238	 0.202438260124278 
2239	 0.200374347082668 
2240	 0.198234915011376 
2241	 0.197708650308313 
2242	 0.200035060851643 
2243	 0.203014741906534 
2244	 0.20536886015166 
2245	 0.206561221491951 
2246	 0.205531162496435 
2247	 0.203832160530968 
2248	 0.204334115001024 
2249	 0.20433210079257 
2250	 0.204022062610354 
2251	 0.206281219363157 
2252	 0.206089110849715 
2253	 0.207058873207748 
2254	 0.209012329889559 
2255	 0.207695579414851 
2256	 0.206943810323738 
2257	 0.205817642126344 
2258	 0.205028036339002 
2259	 0.205276295825465 
2260	 0.206050411935261 
2261	 0.20707650224393 
2262	 0.207960465789453 
2263	 0.209098188866031 
2264	 0.20981641415914 
2265	 0.208942021760981 
2266	 0.208769044909503 
2267	 0.207627696601237 
2268	 0.206689399066229 
2269	 0.207830151945464 
2270	 0.206260220656762 
2271	 0.203780226356241 
2272	 0.202912209770308 
2273	 0.202137903019056 
2274	 0.206196502268315 
2275	 0.211512928426193 
2276	 0.211820068006653 
2277	 0.2110940881466 
2278	 0.2090933778679 
2279	 0.206215429181252 
2280	 0.205955982702452 
2281	 0.206140979755268 
2282	 0.20547971378721 
2283	 0.202958259581585 
2284	 0.200303327126937 
2285	 0.200948753337449 
2286	 0.200637955108623 
2287	 0.200529603225206 
2288	 0.201259074660357 
2289	 0.202497926699537 
2290	 0.201852286046662 
2291	 0.202666347918921 
2292	 0.204204929195243 
2293	 0.205432885727079 
2294	 0.20609063868763 
2295	 0.208170768829656 
2296	 0.209162356701619 
2297	 0.207583812350595 
2298	 0.204916320636349 
2299	 0.201613318750975 
2300	 0.201492522100109 
2301	 0.200969841665973 
2302	 0.201005706167538 
2303	 0.202356578981652 
2304	 0.201204828887412 
2305	 0.201572272244272 
2306	 0.204524506907076 
2307	 0.204770873587173 
2308	 0.205408232114534 
2309	 0.207090706177073 
2310	 0.204873944834655 
2311	 0.20663858655536 
2312	 0.208857094813819 
2313	 0.208668715667411 
2314	 0.21310550349782 
2315	 0.214380256659351 
2316	 0.2127110758561 
2317	 0.211180700884832 
2318	 0.210016967619869 
2319	 0.210586616050397 
2320	 0.208102245825776 
2321	 0.208888497108915 
2322	 0.213098492389863 
2323	 0.214937370855591 
2324	 0.216017438370455 
2325	 0.221815310806519 
2326	 0.220395994928423 
2327	 0.219498086750472 
2328	 0.219481301215399 
2329	 0.213123665651158 
2330	 0.211803977473974 
2331	 0.213148280644204 
2332	 0.212586188465709 
2333	 0.212765674840251 
2334	 0.214503816886987 
2335	 0.212855891978647 
2336	 0.206686546139268 
2337	 0.206608622951583 
2338	 0.206648803880732 
2339	 0.201138378620931 
2340	 0.198763510371613 
2341	 0.197986608696947 
2342	 0.199052165422002 
2343	 0.204196812820288 
2344	 0.207333960761422 
2345	 0.209674781044136 
2346	 0.211889146086729 
2347	 0.206706564940293 
2348	 0.203497481004602 
2349	 0.205718868478823 
2350	 0.203481541617642 
2351	 0.208653313312569 
2352	 0.218139077036801 
2353	 0.217694215745687 
2354	 0.216290155818256 
2355	 0.21248053414486 
2356	 0.20576922514652 
2357	 0.204844044604049 
2358	 0.209709560089356 
2359	 0.214141389351636 
2360	 0.209979270119428 
2361	 0.208255235531866 
2362	 0.206538913364055 
2363	 0.196493220130922 
2364	 0.195610723523333 
2365	 0.198557902800808 
2366	 0.191705821028256 
2367	 0.191457345479458 
2368	 0.198215542678041 
2369	 0.196155912160183 
2370	 0.198394746477667 
2371	 0.20759785562404 
2372	 0.211980768233294 
2373	 0.21349600389289 
2374	 0.214011998633077 
2375	 0.212445199258167 
2376	 0.211104901150534 
2377	 0.204740657164344 
2378	 0.205781391247159 
2379	 0.215684654980159 
2380	 0.213045603177381 
2381	 0.20517037295445 
2382	 0.205376662779087 
2383	 0.202140512422222 
2384	 0.201051519964715 
2385	 0.207978514054568 
2386	 0.209311288483292 
2387	 0.206311824051726 
2388	 0.204474205546647 
2389	 0.203960266600477 
2390	 0.202396126286417 
2391	 0.193812845132373 
2392	 0.19343269941772 
2393	 0.198745755397296 
2394	 0.20366703490969 
2395	 0.221115274984523 
2396	 0.223043905246265 
2397	 0.210445253856842 
2398	 0.209480020313129 
2399	 0.203365654793621 
2400	 0.199757771966172 
2401	 0.205815276107204 
2402	 0.211296787884623 
2403	 0.198122189548467 
2404	 0.199619935808712 
2405	 0.200230495500581 
2406	 0.189427825984971 
2407	 0.195445468142471 
2408	 0.202487751476458 
2409	 0.203206726640846 
2410	 0.213164394831198 
2411	 0.223375666699447 
2412	 0.219538889517468 
2413	 0.21288437063619 
2414	 0.220436945424003 
2415	 0.217349892124289 
2416	 0.201589112112742 
2417	 0.202942465307041 
2418	 0.203486583430937 
2419	 0.205909438344678 
2420	 0.235710821097765 
2421	 0.255107486254083 
2422	 0.251132391786544 
2423	 0.250898037265099 
2424	 0.237005411593147 
2425	 0.21470398396437 
2426	 0.207836561034578 
2427	 0.195349701355931 
2428	 0.180120434681041 
2429	 0.181650115365939 
2430	 0.187752444359598 
2431	 0.201881742253859 
2432	 0.214640715168194 
2433	 0.200178565092815 
2434	 0.192634447366273 
2435	 0.173206694170193 
2436	 0.169981124124567 
2437	 0.188253413249519 
2438	 0.191807247247216 
2439	 0.18706910041954 
2440	 0.191112829236591 
2441	 0.185512821135479 
2442	 0.194812230179361 
2443	 0.239035351307884 
2444	 0.255347221272173 
2445	 0.260890336929467 
2446	 0.267249017328327 
2447	 0.257069603953233 
2448	 0.245211684141114 
2449	 0.229548485737641 
2450	 0.232306990271628 
2451	 0.227062757409116 
2452	 0.23542044222548 
2453	 0.272218277410886 
2454	 0.296622626542928 
2455	 0.326531245641292 
2456	 0.341673960242379 
2457	 0.361567097641164 
2458	 0.348914922723436 
2459	 0.297988108525267 
2460	 0.271030472300594 
2461	 0.219395671780239 
2462	 0.206052396766339 
2463	 0.234671802120434 
2464	 0.240288620220808 
2465	 0.257250046475259 
2466	 0.263932843921966 
2467	 0.245046380594197 
2468	 0.242652039330469 
2469	 0.265256683414215 
2470	 0.276157512421337 
2471	 0.26485778021604 
2472	 0.276461941490679 
2473	 0.294940737223405 
2474	 0.307440105370422 
2475	 0.359030119036721 
2476	 0.370888386069307 
2477	 0.334075047647144 
2478	 0.336099317558223 
2479	 0.345000304446323 
2480	 0.312534614193154 
2481	 0.290995403685852 
2482	 0.299372794876504 
2483	 0.2638793050405 
2484	 0.262966520876335 
2485	 0.33124414002005 
2486	 0.428918113132819 
2487	 0.389396915614432 
2488	 0.281733011966839 
2489	 0.210666655588117 
2490	-4.40724811598117E-02 
2491	-0.340706138169466 
2492	-0.445965007261655 
2493	-0.379025538308299 
2494	-0.138502359328153 
2495	 9.19481826385929E-02 
2496	 0.549216196947974 
2497	 0.987667559566693 
2498	 0.798101084059558 
2499	 0.610677214681573 
2500	 0.321577036239211 
