Wavelength	ref00015.asd
350	 1.49118156982469E-02 
351	 1.54575446033186E-02 
352	 1.58765132297308E-02 
353	 0.015876676611409 
354	 1.58289622983382E-02 
355	 1.58382937279195E-02 
356	 0.015927551062459 
357	 1.60430131149372E-02 
358	 1.65209330144865E-02 
359	 1.70477267910331E-02 
360	 1.73085288039639E-02 
361	 1.79864347013427E-02 
362	 0.017926737636934 
363	 1.73659959786062E-02 
364	 1.74196338075145E-02 
365	 1.79529151558245E-02 
366	 1.84255957712852E-02 
367	 1.85754862458419E-02 
368	 1.85920566970689E-02 
369	 1.87437062735128E-02 
370	 1.90319334532996E-02 
371	 1.93620347585451E-02 
372	 1.96101023690216E-02 
373	 1.98087410186137E-02 
374	 1.99813921204091E-02 
375	 2.01512244385756E-02 
376	 2.03581928352715E-02 
377	 2.06733504841686E-02 
378	 2.10193039716766E-02 
379	 2.11514182978004E-02 
380	 2.11848828583676E-02 
381	 2.16151991785377E-02 
382	 2.25087450423917E-02 
383	 2.25814895684782E-02 
384	 2.27904802159217E-02 
385	 2.31586345872324E-02 
386	 0.023386321767217 
387	 2.39662713186159E-02 
388	 2.44396511096774E-02 
389	 2.46399550223886E-02 
390	 2.47875007083386E-02 
391	 0.025130548184024 
392	 2.57271905506145E-02 
393	 2.63935754938879E-02 
394	 2.64746448361073E-02 
395	 2.67856096327797E-02 
396	 2.72809006676272E-02 
397	 2.76646652879298E-02 
398	 2.81217379208769E-02 
399	 2.83312653028157E-02 
400	 2.83564915379854E-02 
401	 2.85683985144435E-02 
402	 0.028846147142646 
403	 2.90239065864358E-02 
404	 2.91243309276814E-02 
405	 2.95994028104035E-02 
406	 2.98168168116281E-02 
407	 2.98287670122098E-02 
408	 2.99193851477539E-02 
409	 3.02265807680943E-02 
410	 3.04067131838426E-02 
411	 3.05109697584767E-02 
412	 3.08970593746942E-02 
413	 3.07720539444748E-02 
414	 3.07462288223643E-02 
415	 0.031122727191889 
416	 3.10972149776476E-02 
417	 3.12047282251896E-02 
418	 3.13614876793687E-02 
419	 3.13656986182341E-02 
420	 3.15257229697264E-02 
421	 3.15224414448864E-02 
422	 3.14019877332754E-02 
423	 3.15225165616663E-02 
424	 3.15087837873624E-02 
425	 3.15924601361562E-02 
426	 3.18229828786749E-02 
427	 3.16156855087605E-02 
428	 3.15785608002423E-02 
429	 3.16534196115882E-02 
430	 3.15971330479556E-02 
431	 3.15264253252653E-02 
432	 3.15695743962468E-02 
433	 3.16507953261866E-02 
434	 3.15433537800111E-02 
435	 3.14921263548069E-02 
436	 3.14903509001703E-02 
437	 3.14610616322531E-02 
438	 3.12502398999201E-02 
439	 3.11467513498167E-02 
440	 3.10923357782976E-02 
441	 3.09501498005112E-02 
442	 3.08976931866694E-02 
443	 0.030811158619214 
444	 3.06462866249221E-02 
445	 3.04503105404565E-02 
446	 3.02345329435438E-02 
447	 3.00378440140092E-02 
448	 2.98800764459078E-02 
449	 2.97447539143888E-02 
450	 2.95126452124498E-02 
451	 2.92286632082953E-02 
452	 2.89902535177667E-02 
453	 2.87103245241243E-02 
454	 2.84398947408176E-02 
455	 2.81999827697044E-02 
456	 2.79640342802878E-02 
457	 2.76621383270296E-02 
458	 2.73056080914788E-02 
459	 2.69408828188002E-02 
460	 2.66572647464417E-02 
461	 2.63375439896492E-02 
462	 2.59989595312585E-02 
463	 2.57113905413732E-02 
464	 2.52923789200447E-02 
465	 0.024933530997306 
466	 2.46988466433018E-02 
467	 2.44095120892377E-02 
468	 2.40347363508232E-02 
469	 2.36414978465542E-02 
470	 2.33045425180569E-02 
471	 2.29904197950448E-02 
472	 2.26955990979066E-02 
473	 0.022391045056511 
474	 2.20436209775561E-02 
475	 2.17809239650789E-02 
476	 2.14969282696118E-02 
477	 0.021166807034211 
478	 2.09866441924773E-02 
479	 2.07525622673737E-02 
480	 2.04956392221642E-02 
481	 2.02983822184462E-02 
482	 2.00741073426206E-02 
483	 1.98440445162874E-02 
484	 1.96295437084228E-02 
485	 0.0194473596084 
486	 1.92907431676224E-02 
487	 1.91315848300024E-02 
488	 1.89570236616281E-02 
489	 1.87995515394668E-02 
490	 1.86678083890678E-02 
491	 1.85663077542986E-02 
492	 1.84787355288393E-02 
493	 1.82799060938566E-02 
494	 1.81603535784914E-02 
495	 1.81663815299699E-02 
496	 1.81379018587441E-02 
497	 1.80511251536294E-02 
498	 1.79888280654412E-02 
499	 1.80165076254503E-02 
500	 0.018035892374841 
501	 1.81023837380914E-02 
502	 1.81809659266133E-02 
503	 1.81929349741971E-02 
504	 1.82104766881359E-02 
505	 1.82397561304491E-02 
506	 1.82932286894272E-02 
507	 1.84075593380216E-02 
508	 1.85476810445311E-02 
509	 0.018676708590576 
510	 1.87792323969219E-02 
511	 1.89258889061077E-02 
512	 1.91341973482092E-02 
513	 1.93741788051786E-02 
514	 1.95819802611807E-02 
515	 0.019813513845144 
516	 2.00621995473084E-02 
517	 2.03238201333314E-02 
518	 2.06366041637722E-02 
519	 2.09075392213817E-02 
520	 2.11719476255836E-02 
521	 2.14998041240754E-02 
522	 2.18238705815509E-02 
523	 2.21801881287923E-02 
524	 2.25393175370318E-02 
525	 0.022790992238081 
526	 2.31144846387228E-02 
527	 2.35179747949913E-02 
528	 2.39367494847488E-02 
529	 2.42085782951454E-02 
530	 2.45719614020253E-02 
531	 2.49774774149878E-02 
532	 0.025248579218919 
533	 2.56312700460664E-02 
534	 2.60820059541961E-02 
535	 0.02651432664042 
536	 2.68261272025157E-02 
537	 2.72650233570893E-02 
538	 2.77590681370078E-02 
539	 2.81961578752732E-02 
540	 2.87713861343023E-02 
541	 2.94033639867971E-02 
542	 3.00143136188551E-02 
543	 3.05541049906741E-02 
544	 0.031205225971586 
545	 3.20017757117155E-02 
546	 3.29011931404957E-02 
547	 3.37458996535385E-02 
548	 3.46403571410496E-02 
549	 0.035603134367181 
550	 3.66244870599985E-02 
551	 3.77456837471297E-02 
552	 3.88941804601418E-02 
553	 4.00420968535091E-02 
554	 4.12207473413834E-02 
555	 4.25093377135424E-02 
556	 4.38657267310429E-02 
557	 4.52621119512684E-02 
558	 4.68260462665616E-02 
559	 4.84450668962438E-02 
560	 5.00645991057421E-02 
561	 5.17019744808374E-02 
562	 5.35375173965556E-02 
563	 5.53341260262727E-02 
564	 5.70373547889471E-02 
565	 5.89968548978128E-02 
566	 6.09214590371185E-02 
567	 0.062848787399592 
568	 6.48801107589264E-02 
569	 6.68784715960595E-02 
570	 6.88933359346893E-02 
571	 7.09499843920337E-02 
572	 7.30457304220621E-02 
573	 7.50822473390945E-02 
574	 7.71353959684059E-02 
575	 0.079249745328294 
576	 8.12425029076923E-02 
577	 8.32805114967632E-02 
578	 8.54054541416464E-02 
579	 8.75978859372625E-02 
580	 8.98258481535161E-02 
581	 9.20572415028959E-02 
582	 9.42667048605221E-02 
583	 9.64439129652262E-02 
584	 9.84919441532684E-02 
585	 0.100478420838077 
586	 0.102458026240403 
587	 0.104292774136174 
588	 0.10608699674775 
589	 0.107870470869624 
590	 0.109587104908475 
591	 0.111319631857432 
592	 0.113020776909956 
593	 0.114705279369399 
594	 0.1164393437816 
595	 0.11807957587403 
596	 0.119575590178471 
597	 0.120948453358082 
598	 0.122313765961904 
599	 0.12364570711558 
600	 0.124948641283909 
601	 0.126252425484805 
602	 0.127343851029654 
603	 0.128369202769705 
604	 0.129425282444152 
605	 0.13027381235501 
606	 0.13112234251976 
607	 0.131938604928582 
608	 0.132606063083589 
609	 0.13336012294 
610	 0.13406863000433 
611	 0.134631083237734 
612	 0.135045860297894 
613	 0.135538424061906 
614	 0.135998143711598 
615	 0.136299194861094 
616	 0.136638693758002 
617	 0.13696013899932 
618	 0.137260060954224 
619	 0.137578543999666 
620	 0.137927700593674 
621	 0.138251933719496 
622	 0.138518387546539 
623	 0.138750290841134 
624	 0.138991765451629 
625	 0.139264795912761 
626	 0.139567785482773 
627	 0.139856587345436 
628	 0.140093600955208 
629	 0.140318109667037 
630	 0.140627585776475 
631	 0.140801311503407 
632	 0.140926761108439 
633	 0.141079685599789 
634	 0.141135162735619 
635	 0.141242821984806 
636	 0.141323123638505 
637	 0.141224929334266 
638	 0.141085067931149 
639	 0.140942154838937 
640	 0.140779505057629 
641	 0.140526195718189 
642	 0.140243954343071 
643	 0.139951019040243 
644	 0.139650453311099 
645	 0.139347935870335 
646	 0.139000698636889 
647	 0.138625941635952 
648	 0.138285671876251 
649	 0.138067126587515 
650	 0.137835841944865 
651	 0.137575006272974 
652	 0.137488045482077 
653	 0.137373334604997 
654	 0.137230069238973 
655	 0.137076235886657 
656	 0.136768778428948 
657	 0.136361917245459 
658	 0.135974532604106 
659	 0.135661912088879 
660	 0.135273476733535 
661	 0.13473756123299 
662	 0.134094136190987 
663	 0.13354115969034 
664	 0.132952761054652 
665	 0.13231016786945 
666	 0.1316521838994 
667	 0.131136595470884 
668	 0.130598056266563 
669	 0.13004540949579 
670	 0.129636396076252 
671	 0.129164873678326 
672	 0.128771260157989 
673	 0.128543022645919 
674	 0.128282515015934 
675	 0.128118585685446 
676	 0.128048697392388 
677	 0.12801807887584 
678	 0.127957510442739 
679	 0.128075770757062 
680	 0.128414727094933 
681	 0.128832966561209 
682	 0.129543371450049 
683	 0.130526497805303 
684	 0.131713667302971 
685	 0.133029089208094 
686	 0.134642788641153 
687	 0.136495253930316 
688	 0.138250776445372 
689	 0.140092461389172 
690	 0.142020927699883 
691	 0.144043719777166 
692	 0.146026467684965 
693	 0.148100720064727 
694	 0.15028948219206 
695	 0.152514870372733 
696	 0.154535186794771 
697	 0.156676679077433 
698	 0.158912692552919 
699	 0.161047898635797 
700	 0.163081295227027 
701	 0.165255786845131 
702	 0.167552361475989 
703	 0.169622016830332 
704	 0.171746441863706 
705	 0.173817460070596 
706	 0.175787835127286 
707	 0.177950901170947 
708	 0.180035738614867 
709	 0.182023658491995 
710	 0.184008393493221 
711	 0.186060174364989 
712	 0.188214388819577 
713	 0.190396118458943 
714	 0.192422858769335 
715	 0.194605217044352 
716	 0.19674635012149 
717	 0.198721675458677 
718	 0.200743156294016 
719	 0.202776761012834 
720	 0.20489564842253 
721	 0.207169219589794 
722	 0.209316221094697 
723	 0.211325797892577 
724	 0.213321408014671 
725	 0.215306152481276 
726	 0.217326043486782 
727	 0.219264181677938 
728	 0.22109614050573 
729	 0.22292796160016 
730	 0.224648567192932 
731	 0.226361817814335 
732	 0.228167705869607 
733	 0.229628434332888 
734	 0.23109022736429 
735	 0.232612039639718 
736	 0.233935065922108 
737	 0.235170940537214 
738	 0.236368818817283 
739	 0.23755855107809 
740	 0.238696760032367 
741	 0.239783724326397 
742	 0.240764182886091 
743	 0.241614587485568 
744	 0.242564899996767 
745	 0.243414677842067 
746	 0.244107856864897 
747	 0.244725330564797 
748	 0.24545529927931 
749	 0.246092163194881 
750	 0.246574740213708 
751	 0.247176019372296 
752	 0.247726337270875 
753	 0.24821235740237 
754	 0.24865675754905 
755	 0.249035924745409 
756	 0.249481823434331 
757	 0.250038162206045 
758	 0.250697773125929 
759	 0.251528615916781 
760	 0.251875297885487 
761	 0.251446556349656 
762	 0.251778424711493 
763	 0.252060374076907 
764	 0.252148542162308 
765	 0.252162797787994 
766	 0.252493492550646 
767	 0.252678950586567 
768	 0.252854861120511 
769	 0.25321425428368 
770	 0.25339971369017 
771	 0.253617943822033 
772	 0.253915644761297 
773	 0.254184152524989 
774	 0.254359674816899 
775	 0.254562472881514 
776	 0.254831512944118 
777	 0.255020267969019 
778	 0.255232078810824 
779	 0.255412435254188 
780	 0.255525187771115 
781	 0.255752096546898 
782	 0.255965633270621 
783	 0.256162496228313 
784	 0.256390068209235 
785	 0.256534652117124 
786	 0.256708384061183 
787	 0.256927287585675 
788	 0.257089931335886 
789	 0.257290215931345 
790	 0.257475053715008 
791	 0.25762553015137 
792	 0.25785305488993 
793	 0.25804982057452 
794	 0.258224242666448 
795	 0.258407658448089 
796	 0.258549974898811 
797	 0.258812876147414 
798	 0.259137645412234 
799	 0.259344249106962 
800	 0.259434092574413 
801	 0.259572167474287 
802	 0.259797001384394 
803	 0.259988467819216 
804	 0.260200737712863 
805	 0.260418585311721 
806	 0.260615153568614 
807	 0.260762259118007 
808	 0.260977844311843 
809	 0.261168845819882 
810	 0.26123547967765 
811	 0.261328660350359 
812	 0.261495261698198 
813	 0.261646117340778 
814	 0.261643151828093 
815	 0.261641531029664 
816	 0.261779102530651 
817	 0.262034102302585 
818	 0.262223489429834 
819	 0.262398562428688 
820	 0.26265089965936 
821	 0.262934261216027 
822	 0.262963391266036 
823	 0.26296850478215 
824	 0.263117984890648 
825	 0.263458931889497 
826	 0.263804222906337 
827	 0.264004076238204 
828	 0.264061183391812 
829	 0.264073043067727 
830	 0.264216795000805 
831	 0.264337972853187 
832	 0.264448753645628 
833	 0.264680576448513 
834	 0.264967854069005 
835	 0.265114696215631 
836	 0.265140180157042 
837	 0.265317629816626 
838	 0.265557073946456 
839	 0.265896435291264 
840	 0.266226377678683 
841	 0.266105281546379 
842	 0.266266093568989 
843	 0.266552825089255 
844	 0.266689692985106 
845	 0.266958556573996 
846	 0.267117252493247 
847	 0.267163790843368 
848	 0.267244152009977 
849	 0.267632846769842 
850	 0.267910224304051 
851	 0.26800264666321 
852	 0.268123469349288 
853	 0.268250748818575 
854	 0.268315172696735 
855	 0.268408456169111 
856	 0.268761614394689 
857	 0.268951347862539 
858	 0.26902662859887 
859	 0.269176017629888 
860	 0.269659660614828 
861	 0.26987314939691 
862	 0.269984614738162 
863	 0.270195127536581 
864	 0.270247966571273 
865	 0.270377490674212 
866	 0.270551856505983 
867	 0.270653244951752 
868	 0.270597986487027 
869	 0.270842576072783 
870	 0.271237839427521 
871	 0.271425198706058 
872	 0.271620412118533 
873	 0.271653964392549 
874	 0.271673866871251 
875	 0.271969456682863 
876	 0.272027194968545 
877	 0.272166636028121 
878	 0.272334607852444 
879	 0.27212984780209 
880	 0.272473054512272 
881	 0.27284249387663 
882	 0.272905828445967 
883	 0.27290033695003 
884	 0.272989980913294 
885	 0.273102897053829 
886	 0.273154719837551 
887	 0.273142495595761 
888	 0.27336550754719 
889	 0.273554829647196 
890	 0.273529309463203 
891	 0.273724708315162 
892	 0.27370898922041 
893	 0.273661869981203 
894	 0.273804933238538 
895	 0.273781615618847 
896	 0.273562091659873 
897	 0.273373992882171 
898	 0.273456729971293 
899	 0.27350069008011 
900	 0.273630235877961 
901	 0.273832704657021 
902	 0.274012563844586 
903	 0.274061786556111 
904	 0.274342757572834 
905	 0.274621849624385 
906	 0.274437266986663 
907	 0.27450662493599 
908	 0.274486542650952 
909	 0.274342333465253 
910	 0.274351375931785 
911	 0.274503094438407 
912	 0.27464394894968 
913	 0.274659348931309 
914	 0.27454425666931 
915	 0.274719150209594 
916	 0.274728734277078 
917	 0.274604800559508 
918	 0.274960905151236 
919	 0.275143994840184 
920	 0.275241913901618 
921	 0.275334444249475 
922	 0.275351129832214 
923	 0.275402252843004 
924	 0.275214751880515 
925	 0.274834928449097 
926	 0.274852456815781 
927	 0.27432689305569 
928	 0.273897738311355 
929	 0.273834298593753 
930	 0.273029294700439 
931	 0.272417509022421 
932	 0.271903149492177 
933	 0.271180005545735 
934	 0.270158737483298 
935	 0.269858451871701 
936	 0.269846667207624 
937	 0.269852871100301 
938	 0.27072022125406 
939	 0.270518331418536 
940	 0.269956082889017 
941	 0.269779273487675 
942	 0.269608213982827 
943	 0.269607996270131 
944	 0.269046995332219 
945	 0.267685920588001 
946	 0.266767385570197 
947	 0.267293197397248 
948	 0.267695305144181 
949	 0.266988953122107 
950	 0.266922313624212 
951	 0.265509412852903 
952	 0.26432350397643 
953	 0.264508409186027 
954	 0.264524508858535 
955	 0.263266081239882 
956	 0.262479470438477 
957	 0.263010845987616 
958	 0.262554863265415 
959	 0.261449358746773 
960	 0.261137271298115 
961	 0.262071510798857 
962	 0.262492340573074 
963	 0.262196827079066 
964	 0.261606332411436 
965	 0.261098005376053 
966	 0.260646966906908 
967	 0.261650406171498 
968	 0.262806801798556 
969	 0.26300709997876 
970	 0.262460274379387 
971	 0.261843346613108 
972	 0.261458995090572 
973	 0.261352242448536 
974	 0.26136421130678 
975	 0.262094978181884 
976	 0.262801772828087 
977	 0.262809211719421 
978	 0.262049277553672 
979	 0.261871453423315 
980	 0.262446656976627 
981	 0.263199421844894 
982	 0.263187807937388 
983	 0.263255933293393 
984	 0.263077363855863 
985	 0.263037086450917 
986	 0.263999528565923 
987	 0.264620528729874 
988	 0.26439114356828 
989	 0.264194266450022 
990	 0.26541123728077 
991	 0.266247637167507 
992	 0.266495725591979 
993	 0.266475073244273 
994	 0.266650363498478 
995	 0.266714095408786 
996	 0.26661608527693 
997	 0.266657241903916 
998	 0.267061502514248 
999	 0.267073543397556 
1000	 0.267063376142962 
1001	 0.266557897990683 
1002	 0.266716592327276 
1003	 0.267011692800424 
1004	 0.267316570167584 
1005	 0.267665207838575 
1006	 0.268165532959357 
1007	 0.268586679259187 
1008	 0.268936028089963 
1009	 0.269307737930718 
1010	 0.269701231799888 
1011	 0.270135032411006 
1012	 0.270430325318335 
1013	 0.270695572805837 
1014	 0.27095756055867 
1015	 0.271206746624081 
1016	 0.271550292967151 
1017	 0.272083514971667 
1018	 0.272545941948037 
1019	 0.273108482275809 
1020	 0.27350052518881 
1021	 0.273746949398917 
1022	 0.274088373790407 
1023	 0.274388606309949 
1024	 0.274775631746977 
1025	 0.275226580134489 
1026	 0.275676295550103 
1027	 0.276084714725008 
1028	 0.276518011909758 
1029	 0.276868704454155 
1030	 0.277188054941073 
1031	 0.277598065938802 
1032	 0.277937185396426 
1033	 0.278296070546841 
1034	 0.278647100672954 
1035	 0.279106911793669 
1036	 0.279702487583534 
1037	 0.280096452640319 
1038	 0.280473416939474 
1039	 0.280814765395452 
1040	 0.280971219902408 
1041	 0.281195341443096 
1042	 0.281569031608545 
1043	 0.281902206051953 
1044	 0.282260910539819 
1045	 0.282624126464941 
1046	 0.282916924553694 
1047	 0.28324944744428 
1048	 0.283563724297424 
1049	 0.283734474223314 
1050	 0.283922255141395 
1051	 0.284065363117729 
1052	 0.284228086733359 
1053	 0.284413884500085 
1054	 0.284610620399751 
1055	 0.284747918855749 
1056	 0.284884235431605 
1057	 0.284968912963411 
1058	 0.285073805523468 
1059	 0.285225130284296 
1060	 0.285338201146167 
1061	 0.28546823696425 
1062	 0.285541102949314 
1063	 0.285541368141894 
1064	 0.285484631403151 
1065	 0.285495818148911 
1066	 0.285479248640357 
1067	 0.285584312840307 
1068	 0.285728913969616 
1069	 0.285867418553328 
1070	 0.285966660536484 
1071	 0.285967838698055 
1072	 0.285941551575046 
1073	 0.285925642916314 
1074	 0.285878079711773 
1075	 0.285834962519887 
1076	 0.285879296231898 
1077	 0.285946400322384 
1078	 0.285928058337067 
1079	 0.285900115411479 
1080	 0.285836107611306 
1081	 0.285787533524096 
1082	 0.285681500291801 
1083	 0.285740476151208 
1084	 0.285867996398993 
1085	 0.285902557479484 
1086	 0.285896274973148 
1087	 0.285807792259114 
1088	 0.285577778092653 
1089	 0.285396917593653 
1090	 0.285326189437257 
1091	 0.285283416864873 
1092	 0.285327396300834 
1093	 0.285366800354772 
1094	 0.285269884744804 
1095	 0.285192827257126 
1096	 0.285106316754017 
1097	 0.284948164669797 
1098	 0.28481944546218 
1099	 0.284691814222243 
1100	 0.284642095944052 
1101	 0.284604290832364 
1102	 0.284524088942685 
1103	 0.284387925418229 
1104	 0.284186549744031 
1105	 0.283955819970508 
1106	 0.283749118019319 
1107	 0.283680939079685 
1108	 0.28364035585111 
1109	 0.283471099706283 
1110	 0.283275108322886 
1111	 0.283070905724175 
1112	 0.282754498613832 
1113	 0.282505487246953 
1114	 0.282344090956865 
1115	 0.28208401896578 
1116	 0.281772737697052 
1117	 0.281444386364425 
1118	 0.281142444637087 
1119	 0.280606260305703 
1120	 0.280087544082058 
1121	 0.27958594598908 
1122	 0.279049909596915 
1123	 0.278647270629487 
1124	 0.278297352535645 
1125	 0.277957629222535 
1126	 0.277480522129878 
1127	 0.276954335629455 
1128	 0.276388470261959 
1129	 0.275777552665997 
1130	 0.275089037429684 
1131	 0.274477228465188 
1132	 0.273598261380999 
1133	 0.272516824993223 
1134	 0.271536003012917 
1135	 0.270547379348952 
1136	 0.269554321435673 
1137	 0.268625180620645 
1138	 0.267614583330697 
1139	 0.266382461583252 
1140	 0.265011993601075 
1141	 0.263686220300437 
1142	 0.262510855995443 
1143	 0.261309278856605 
1144	 0.260225293368364 
1145	 0.258989409666183 
1146	 0.257647430964882 
1147	 0.256338474256129 
1148	 0.255014371561755 
1149	 0.253768305044611 
1150	 0.252461177555739 
1151	 0.251484421128401 
1152	 0.250721175981623 
1153	 0.249991403303262 
1154	 0.249511209691651 
1155	 0.249217152935895 
1156	 0.248806931989429 
1157	 0.248440880898969 
1158	 0.248146516285186 
1159	 0.247857605842318 
1160	 0.247598750315168 
1161	 0.247348524460205 
1162	 0.247175971197159 
1163	 0.247027623582817 
1164	 0.246937594071872 
1165	 0.246944212973099 
1166	 0.246904188965979 
1167	 0.246880836689485 
1168	 0.246828780524344 
1169	 0.246718248931131 
1170	 0.246697586381047 
1171	 0.246656385554298 
1172	 0.246582796443604 
1173	 0.246617533119507 
1174	 0.246595554322114 
1175	 0.246554229303183 
1176	 0.246561960031811 
1177	 0.246542809677213 
1178	 0.246504519908167 
1179	 0.246442083773225 
1180	 0.246372305807035 
1181	 0.246310510154141 
1182	 0.246217814347393 
1183	 0.246119403368878 
1184	 0.246011117531685 
1185	 0.245948878104911 
1186	 0.245916789094766 
1187	 0.245842218184745 
1188	 0.24576686844305 
1189	 0.245731351903361 
1190	 0.245655707760511 
1191	 0.245526625258437 
1192	 0.245504180185473 
1193	 0.245487635149322 
1194	 0.24549275256209 
1195	 0.245522723086181 
1196	 0.245538518544754 
1197	 0.245555856465731 
1198	 0.245611308074909 
1199	 0.245670054932862 
1200	 0.245751036485688 
1201	 0.245873702870784 
1202	 0.246002300188435 
1203	 0.246142733784506 
1204	 0.24627502778869 
1205	 0.246407225870998 
1206	 0.246568090652346 
1207	 0.246728132585856 
1208	 0.246905520901718 
1209	 0.247090548892604 
1210	 0.247337645484302 
1211	 0.247606383038102 
1212	 0.247833165778768 
1213	 0.248088110585445 
1214	 0.248368141333831 
1215	 0.248648310460514 
1216	 0.248919162782458 
1217	 0.24922222505029 
1218	 0.249578388227248 
1219	 0.249878621294467 
1220	 0.250153950592273 
1221	 0.250450872467343 
1222	 0.250746496239973 
1223	 0.251024174239228 
1224	 0.251317271011301 
1225	 0.25159792941375 
1226	 0.251801274566181 
1227	 0.25208532904801 
1228	 0.252450422369813 
1229	 0.252762544584249 
1230	 0.25309292679646 
1231	 0.253448974986355 
1232	 0.253695653679144 
1233	 0.253834557294481 
1234	 0.254091458709999 
1235	 0.254336303257315 
1236	 0.254610709107429 
1237	 0.254968654695747 
1238	 0.255274736930875 
1239	 0.255563410856867 
1240	 0.255838024744337 
1241	 0.256129200628514 
1242	 0.256376881111291 
1243	 0.256561198127507 
1244	 0.256779994829842 
1245	 0.256982836006933 
1246	 0.25721091196506 
1247	 0.25746467543026 
1248	 0.257718067763194 
1249	 0.258018219158177 
1250	 0.258265839234576 
1251	 0.258494352516119 
1252	 0.258715881827812 
1253	 0.258890850715549 
1254	 0.259001759915478 
1255	 0.259151231256964 
1256	 0.259278142243879 
1257	 0.259444901512535 
1258	 0.259650113278173 
1259	 0.259821374799409 
1260	 0.25998918835001 
1261	 0.260169325579911 
1262	 0.260365379207253 
1263	 0.260513805384725 
1264	 0.260672524248013 
1265	 0.260782097409639 
1266	 0.260829816816887 
1267	 0.260857140994522 
1268	 0.260876475008539 
1269	 0.260844819385599 
1270	 0.260697566181495 
1271	 0.260627363578237 
1272	 0.260590280011523 
1273	 0.260509412200129 
1274	 0.260470867203879 
1275	 0.26051267553924 
1276	 0.260437958379264 
1277	 0.260337870197821 
1278	 0.260168045011445 
1279	 0.259916775394947 
1280	 0.259691095533039 
1281	 0.25942960525208 
1282	 0.259161977455883 
1283	 0.258914297792791 
1284	 0.258607182486468 
1285	 0.258197929123897 
1286	 0.257893235032495 
1287	 0.257658468115968 
1288	 0.257337115930491 
1289	 0.257007347148566 
1290	 0.256695466135201 
1291	 0.256351422977792 
1292	 0.255971784203896 
1293	 0.25561265687276 
1294	 0.255236013048875 
1295	 0.254844942218476 
1296	 0.254350651554495 
1297	 0.253852608301343 
1298	 0.253353809760512 
1299	 0.252820740594027 
1300	 0.252196160510055 
1301	 0.251633216909577 
1302	 0.251108597394602 
1303	 0.250535274672524 
1304	 0.249939054658222 
1305	 0.249333300184717 
1306	 0.248730657305907 
1307	 0.248068286904635 
1308	 0.247358213976176 
1309	 0.24665532471304 
1310	 0.2459310074923 
1311	 0.245163102469401 
1312	 0.244406716479399 
1313	 0.243578600473198 
1314	 0.242645250905759 
1315	 0.241742968846816 
1316	 0.240820566443262 
1317	 0.239894940805619 
1318	 0.238939847662104 
1319	 0.238030120198169 
1320	 0.237169919955197 
1321	 0.236233427567555 
1322	 0.235324375347497 
1323	 0.234441067551107 
1324	 0.233509111611576 
1325	 0.232540330447015 
1326	 0.231509502917064 
1327	 0.230409013879019 
1328	 0.229322246355901 
1329	 0.228172685301188 
1330	 0.22701490835902 
1331	 0.225863434705797 
1332	 0.224712303048379 
1333	 0.223517851833332 
1334	 0.222384999173964 
1335	 0.221261554679092 
1336	 0.220246378113214 
1337	 0.219262670767527 
1338	 0.21833453606985 
1339	 0.21748826508193 
1340	 0.216666059955244 
1341	 0.215823198944885 
1342	 0.215000962615902 
1343	 0.214083704367128 
1344	 0.213268651783314 
1345	 0.212453134324944 
1346	 0.211662126986371 
1347	 0.210881803321831 
1348	 0.210096663704635 
1349	 0.209260752808411 
1350	 0.208314168441066 
1351	 0.207247519941169 
1352	 0.206238519683096 
1353	 0.205148776651291 
1354	 0.204203445570871 
1355	 0.202723172473439 
1356	 0.201897221664868 
1357	 0.200587963681207 
1358	 0.199717781491921 
1359	 0.197304260981624 
1360	 0.19612646964086 
1361	 0.194129296744412 
1362	 0.190891448796028 
1363	 0.187741503065008 
1364	 0.192148149768544 
1365	 0.193662627625012 
1366	 0.196902491900338 
1367	 0.192669493706836 
1368	 0.186809476194762 
1369	 0.181466382324797 
1370	 0.170458589835207 
1371	 0.167413279667405 
1372	 0.17090740965615 
1373	 0.169296402452115 
1374	 0.166703567790524 
1375	 0.16424202952335 
1376	 0.163201905670126 
1377	 0.162459472433565 
1378	 0.162577614849105 
1379	 0.167480488423888 
1380	 0.166841238968746 
1381	 0.163424857467319 
1382	 0.159602834843146 
1383	 0.155425495787617 
1384	 0.149640133529665 
1385	 0.141706295736153 
1386	 0.136953141419713 
1387	 0.132497799971301 
1388	 0.12960162554209 
1389	 0.128880152599333 
1390	 0.127319279518336 
1391	 0.126399892713917 
1392	 0.124377577461043 
1393	 0.122042447743144 
1394	 0.119329468430941 
1395	 0.115714773405516 
1396	 0.11281849281013 
1397	 0.110248397188119 
1398	 0.107446197447365 
1399	 0.103922453866279 
1400	 0.101617079518378 
1401	 9.99465507287728E-02 
1402	 9.82716449315799E-02 
1403	 9.83993348263463E-02 
1404	 9.68741437825788E-02 
1405	 9.40974761890224E-02 
1406	 9.20533094540344E-02 
1407	 9.01978739483164E-02 
1408	 0.087778612419914 
1409	 8.68576830235259E-02 
1410	 8.57735499557865E-02 
1411	 8.47742577420156E-02 
1412	 8.37528014520445E-02 
1413	 8.32673594703029E-02 
1414	 8.31511949519907E-02 
1415	 8.24681267112607E-02 
1416	 8.18794459867461E-02 
1417	 0.081125634894629 
1418	 7.98349938007287E-02 
1419	 7.93163898900871E-02 
1420	 7.92259910807895E-02 
1421	 7.88211850008496E-02 
1422	 7.86280837419659E-02 
1423	 7.81099640056456E-02 
1424	 7.70752125306614E-02 
1425	 7.67108749424765E-02 
1426	 7.65539738268842E-02 
1427	 7.63136307666849E-02 
1428	 0.076432839877457 
1429	 7.62631836525878E-02 
1430	 7.57488061564877E-02 
1431	 7.55122808949197E-02 
1432	 7.54319833233459E-02 
1433	 7.52158258088921E-02 
1434	 7.50512870435709E-02 
1435	 7.48278270910408E-02 
1436	 7.44062366359809E-02 
1437	 7.41326608665487E-02 
1438	 7.39168901793653E-02 
1439	 7.37699665732265E-02 
1440	 7.37034775018634E-02 
1441	 7.36599680048126E-02 
1442	 0.073701267639795 
1443	 7.36962793853517E-02 
1444	 7.36928093824936E-02 
1445	 7.37714504895046E-02 
1446	 7.37509119749013E-02 
1447	 7.36795488101887E-02 
1448	 7.37027682374479E-02 
1449	 7.36822599184369E-02 
1450	 7.37950789331577E-02 
1451	 7.40852719854596E-02 
1452	 7.41044040736493E-02 
1453	 0.074045407363632 
1454	 7.40525347391582E-02 
1455	 7.39007632599084E-02 
1456	 0.073994057155897 
1457	 7.42691293682359E-02 
1458	 7.44436838558761E-02 
1459	 7.47195452337358E-02 
1460	 7.48271801654207E-02 
1461	 7.47923563363842E-02 
1462	 7.49070746755822E-02 
1463	 7.49435782713962E-02 
1464	 7.51822754723125E-02 
1465	 7.57197046956826E-02 
1466	 7.60402180408395E-02 
1467	 7.63319258697501E-02 
1468	 7.66647052561275E-02 
1469	 7.68184943883251E-02 
1470	 7.71854182523299E-02 
1471	 7.77419011839958E-02 
1472	 7.81955378614822E-02 
1473	 7.86592551030228E-02 
1474	 7.91005572528311E-02 
1475	 0.079435106077525 
1476	 7.98653248390745E-02 
1477	 8.03088199647981E-02 
1478	 8.08041070886128E-02 
1479	 8.13299133810049E-02 
1480	 8.19038936940933E-02 
1481	 8.25409487217003E-02 
1482	 8.31435141497119E-02 
1483	 8.37835731652715E-02 
1484	 8.43781383745896E-02 
1485	 8.48863307844441E-02 
1486	 8.54594350721916E-02 
1487	 0.086092950285174 
1488	 8.66241212812442E-02 
1489	 8.71481421531284E-02 
1490	 8.76998503855364E-02 
1491	 8.82170372503212E-02 
1492	 8.87292592057202E-02 
1493	 8.93289664224525E-02 
1494	 8.99490417175155E-02 
1495	 9.05296462134948E-02 
1496	 9.11221569533999E-02 
1497	 9.17045138391846E-02 
1498	 9.22704586237312E-02 
1499	 9.28563524890506E-02 
1500	 9.34707534288111E-02 
1501	 9.40661829820158E-02 
1502	 9.46725607541942E-02 
1503	 9.52601431247353E-02 
1504	 0.095813434280727 
1505	 9.64371198033706E-02 
1506	 0.097073525270229 
1507	 9.77204911821918E-02 
1508	 9.84180314737009E-02 
1509	 9.90841286593721E-02 
1510	 9.97522596726657E-02 
1511	 0.100382451986775 
1512	 0.101008322223643 
1513	 0.10161361794941 
1514	 0.102156735166652 
1515	 0.102771663913775 
1516	 0.103401243409881 
1517	 0.104075672498335 
1518	 0.104831263760253 
1519	 0.105518281445459 
1520	 0.106233231186566 
1521	 0.106878471146538 
1522	 0.107441458597981 
1523	 0.10805892287044 
1524	 0.108649161836503 
1525	 0.109288707302117 
1526	 0.110017444034313 
1527	 0.110654217455678 
1528	 0.111260587485432 
1529	 0.111880382577559 
1530	 0.112450483994706 
1531	 0.113044496016442 
1532	 0.11367077654289 
1533	 0.114290163617142 
1534	 0.114896381933835 
1535	 0.115510311627098 
1536	 0.116147064976777 
1537	 0.116768270533609 
1538	 0.117361264635751 
1539	 0.117989559019015 
1540	 0.118660231221613 
1541	 0.119282580461479 
1542	 0.119920322005799 
1543	 0.120517867396417 
1544	 0.121047229965576 
1545	 0.121595212299246 
1546	 0.122114840050295 
1547	 0.12266838197085 
1548	 0.123256625880206 
1549	 0.123823821420195 
1550	 0.124377757269828 
1551	 0.124971279128101 
1552	 0.125624934872709 
1553	 0.126199282880079 
1554	 0.126757326532822 
1555	 0.127314693302071 
1556	 0.127773003730868 
1557	 0.128283494659378 
1558	 0.1288888602853 
1559	 0.129423508948203 
1560	 0.129912512625546 
1561	 0.130419499630379 
1562	 0.130896092826035 
1563	 0.131378645563558 
1564	 0.131873712647123 
1565	 0.132398419546579 
1566	 0.1328592720965 
1567	 0.13333035622452 
1568	 0.13386292267925 
1569	 0.134437487401252 
1570	 0.134947869915301 
1571	 0.135481956347333 
1572	 0.135994913330386 
1573	 0.136445819548161 
1574	 0.136923800333208 
1575	 0.137441596927721 
1576	 0.13789326235533 
1577	 0.138269937651395 
1578	 0.13872279296342 
1579	 0.139185275602467 
1580	 0.139651029287212 
1581	 0.140137462570312 
1582	 0.140625633434705 
1583	 0.141128870006394 
1584	 0.141579087993484 
1585	 0.142013741918285 
1586	 0.142472688013555 
1587	 0.142929700068476 
1588	 0.143314068165619 
1589	 0.143680752403838 
1590	 0.144090579724489 
1591	 0.144430609653041 
1592	 0.144848560137282 
1593	 0.145384490707731 
1594	 0.145813251656437 
1595	 0.146195818428002 
1596	 0.146583689012725 
1597	 0.146966231382179 
1598	 0.147318463551251 
1599	 0.14761914724106 
1600	 0.148001422801401 
1601	 0.148423021073187 
1602	 0.148780292370565 
1603	 0.149142627672869 
1604	 0.1495209015528 
1605	 0.149862960142392 
1606	 0.150196083718519 
1607	 0.150542811613371 
1608	 0.150938703027346 
1609	 0.151309419921863 
1610	 0.151686243681314 
1611	 0.152171727990826 
1612	 0.152514944700027 
1613	 0.152718830069672 
1614	 0.153060926233323 
1615	 0.15345201642475 
1616	 0.153759565923116 
1617	 0.154074945163682 
1618	 0.154398483119034 
1619	 0.154646861053994 
1620	 0.154964361623555 
1621	 0.155387885236698 
1622	 0.155679591410534 
1623	 0.155919447840999 
1624	 0.15614519018219 
1625	 0.156290348701643 
1626	 0.156530839972526 
1627	 0.156799726809954 
1628	 0.157049402109067 
1629	 0.157324286620914 
1630	 0.157622110595407 
1631	 0.157942705497608 
1632	 0.158187550399676 
1633	 0.158456794031674 
1634	 0.158661006484604 
1635	 0.158697988873205 
1636	 0.15896358083491 
1637	 0.159388560905495 
1638	 0.159621493612317 
1639	 0.159878765063814 
1640	 0.160058274325808 
1641	 0.160031796136631 
1642	 0.160219132990876 
1643	 0.160559140742986 
1644	 0.160712144922582 
1645	 0.1608317394076 
1646	 0.160974090342051 
1647	 0.161040695944876 
1648	 0.161104521782414 
1649	 0.161193568569795 
1650	 0.161291370943809 
1651	 0.161308084182782 
1652	 0.161439887301677 
1653	 0.161717808421644 
1654	 0.16181841977001 
1655	 0.161858537216992 
1656	 0.161910178297872 
1657	 0.161871142988191 
1658	 0.161999435075152 
1659	 0.162113629655672 
1660	 0.162208899070179 
1661	 0.162384774928295 
1662	 0.16244451131401 
1663	 0.16244288024228 
1664	 0.162415104090139 
1665	 0.162430355470293 
1666	 0.162557531852903 
1667	 0.162748060516664 
1668	 0.163092059849371 
1669	 0.163321754628793 
1670	 0.163365718077858 
1671	 0.163425910127495 
1672	 0.163439781419257 
1673	 0.16345082871956 
1674	 0.163573173330845 
1675	 0.16366805353178 
1676	 0.163614506041667 
1677	 0.163492145948148 
1678	 0.163372252826253 
1679	 0.163253866326961 
1680	 0.163167225906367 
1681	 0.163145631461803 
1682	 0.163098787504209 
1683	 0.162972067473044 
1684	 0.16276779360254 
1685	 0.162582494648521 
1686	 0.162369484231593 
1687	 0.162156069348966 
1688	 0.162057630769774 
1689	 0.16186983729439 
1690	 0.161656781629298 
1691	 0.161461961909188 
1692	 0.161236019467824 
1693	 0.16105256451045 
1694	 0.160923779743082 
1695	 0.160749561035562 
1696	 0.160563391988935 
1697	 0.16039887700336 
1698	 0.160227917823113 
1699	 0.160046810012643 
1700	 0.159908998349605 
1701	 0.159692450616859 
1702	 0.159415446394573 
1703	 0.159100398425911 
1704	 0.158693453211502 
1705	 0.158369790598354 
1706	 0.158027935901337 
1707	 0.157767318390953 
1708	 0.157700051876193 
1709	 0.157395720971344 
1710	 0.156940519263704 
1711	 0.156607000191208 
1712	 0.156179985018366 
1713	 0.155840141126017 
1714	 0.155674260569997 
1715	 0.155395723706359 
1716	 0.155013012731728 
1717	 0.15474349571119 
1718	 0.154534341160466 
1719	 0.154299742623399 
1720	 0.154093754363228 
1721	 0.15389317597038 
1722	 0.153709995967374 
1723	 0.153447091744655 
1724	 0.153163476777995 
1725	 0.15290954617192 
1726	 0.1525797887562 
1727	 0.152306621943373 
1728	 0.152087452268158 
1729	 0.151866005754584 
1730	 0.15165851085125 
1731	 0.15145798624798 
1732	 0.151274281086243 
1733	 0.151027044591569 
1734	 0.150733990527857 
1735	 0.150422388507191 
1736	 0.15005259515152 
1737	 0.149915587842968 
1738	 0.149780440349606 
1739	 0.149469842670167 
1740	 0.149343843490833 
1741	 0.148969929333074 
1742	 0.148373528507468 
1743	 0.148044038673454 
1744	 0.147612336116977 
1745	 0.147201374182868 
1746	 0.146936548901023 
1747	 0.146568074221461 
1748	 0.14619454628397 
1749	 0.145734619377773 
1750	 0.145328612246867 
1751	 0.144946109179205 
1752	 0.144498578908097 
1753	 0.144222616621027 
1754	 0.143868668743713 
1755	 0.143429274417162 
1756	 0.14299290292833 
1757	 0.142377829630438 
1758	 0.141865651677663 
1759	 0.141312061256927 
1760	 0.140948814130851 
1761	 0.140882246290728 
1762	 0.140513805099812 
1763	 0.139981440755504 
1764	 0.139585255549474 
1765	 0.139079046611885 
1766	 0.138722806713286 
1767	 0.138594001985664 
1768	 0.138399952273146 
1769	 0.138176105897395 
1770	 0.137876016778255 
1771	 0.137587299363359 
1772	 0.137351602553241 
1773	 0.137011372841827 
1774	 0.136873089256729 
1775	 0.136795966214824 
1776	 0.136696736225639 
1777	 0.136654585693699 
1778	 0.136349077211976 
1779	 0.135898536155613 
1780	 0.135628428522219 
1781	 0.135381808612831 
1782	 0.13530490334572 
1783	 0.135413878638573 
1784	 0.135387427945513 
1785	 0.1352627787923 
1786	 0.135115288227101 
1787	 0.134807866517795 
1788	 0.134649361362103 
1789	 0.134766125223323 
1790	 0.134799770282609 
1791	 0.134935940460115 
1792	 0.13497550614527 
1793	 0.134568424858945 
1794	 0.134232418791443 
1795	 0.134342941470679 
1796	 0.134420171984907 
1797	 0.134428815223092 
1798	 0.13470311213322 
1799	 0.134892154405207 
1800	 0.134561486955589 
1801	 0.133158569234037 
1802	 0.1344154418941 
1803	 0.134743078583416 
1804	 0.134623671408474 
1805	 0.135109230170303 
1806	 0.135348727250693 
1807	 0.135769628149702 
1808	 0.136759811175388 
1809	 0.138724061123301 
1810	 0.13886886127107 
1811	 0.13756178675834 
1812	 0.137321819961705 
1813	 0.136293565391211 
1814	 0.135698000398955 
1815	 0.136152601953549 
1816	 0.136032269579137 
1817	 0.13448066035049 
1818	 0.134286215063372 
1819	 0.134784160629256 
1820	 0.136988412954545 
1821	 0.137531496700915 
1822	 0.138069741362695 
1823	 0.139160162875074 
1824	 0.139427363255694 
1825	 0.139934357678937 
1826	 0.143601556629435 
1827	 0.144678996298924 
1828	 0.144089893871413 
1829	 0.137893462025551 
1830	 0.137164381210674 
1831	 0.133384320484835 
1832	 0.138543197123243 
1833	 0.171638538907076 
1834	 0.189867276924775 
1835	 0.203587761354633 
1836	 0.21757951243975 
1837	 0.17987643353003 
1838	 0.168270484120755 
1839	 0.167233275565854 
1840	 0.189588230044168 
1841	 0.192342585674931 
1842	 0.205032715066673 
1843	 0.206457277719416 
1844	 0.190944497276603 
1845	 0.185972915434074 
1846	 0.184525978565399 
1847	 0.181732480516233 
1848	 0.179146969509925 
1849	 0.177445705767906 
1850	 0.172092006264763 
1851	 0.171987878100135 
1852	 0.15878892351208 
1853	 0.12379131984663 
1854	 0.117824126240854 
1855	 0.121424161321409 
1856	 0.119604575837216 
1857	 0.129283791615592 
1858	 0.143226661798487 
1859	 0.14313804567419 
1860	 0.133881559343808 
1861	 0.124197119390428 
1862	 0.107066586740707 
1863	 0.101176768374047 
1864	 0.088600207285273 
1865	 8.59307268827108E-02 
1866	 0.095360796999783 
1867	 0.109433704033686 
1868	 0.112338132323198 
1869	 0.118926767392125 
1870	 0.130062412592624 
1871	 0.155160187073997 
1872	 0.147005552207081 
1873	 0.117017045985061 
1874	 0.114328722241288 
1875	 0.117867659939038 
1876	 0.105529366268933 
1877	 0.096222677616941 
1878	 0.100580061795585 
1879	 7.61189006827987E-02 
1880	 5.42806756706525E-02 
1881	 4.80110049262244E-02 
1882	 4.44111097065665E-02 
1883	 4.36590112559266E-02 
1884	 5.49096544022182E-02 
1885	 0.055781552526413 
1886	 4.96129625518932E-02 
1887	 5.07243610809108E-02 
1888	 5.53093156782783E-02 
1889	 5.40616013489613E-02 
1890	 5.25620471267156E-02 
1891	 5.19530155989264E-02 
1892	 5.21041624053112E-02 
1893	 4.89732502129654E-02 
1894	 4.76984736770965E-02 
1895	 5.12712107202765E-02 
1896	 5.41221629132283E-02 
1897	 5.57392132936435E-02 
1898	 5.38528270285104E-02 
1899	 6.65310925329966E-02 
1900	 6.95485960263435E-02 
1901	 6.49472074323847E-02 
1902	 4.31792151563503E-02 
1903	 3.63110694467783E-02 
1904	 2.48599097920461E-02 
1905	 1.98089155634151E-02 
1906	 2.37644822875526E-02 
1907	 4.61389341120207E-02 
1908	 5.57544315140774E-02 
1909	 4.58348236674534E-02 
1910	 4.68169649474067E-02 
1911	 3.81835673491801E-02 
1912	 3.85173525016169E-02 
1913	 4.14302208464352E-02 
1914	 4.16648578395097E-02 
1915	 4.52324170844965E-02 
1916	 4.41717966066009E-02 
1917	 4.04233423498795E-02 
1918	 3.47599891121491E-02 
1919	 3.46727604722195E-02 
1920	 3.38156386913134E-02 
1921	 3.32135575805445E-02 
1922	 0.036404591171585 
1923	 3.56446617534509E-02 
1924	 3.17523058539404E-02 
1925	 0.030555077508618 
1926	 2.95119115644988E-02 
1927	 2.83084565224393E-02 
1928	 2.67975756699143E-02 
1929	 2.87958093567544E-02 
1930	 2.89534584573474E-02 
1931	 2.73317622570709E-02 
1932	 2.60557054793239E-02 
1933	 2.48441456103384E-02 
1934	 2.47600425329253E-02 
1935	 2.49383517385833E-02 
1936	 2.54638067349409E-02 
1937	 2.71021244590273E-02 
1938	 2.81389071885759E-02 
1939	 2.93315130172167E-02 
1940	 2.93563322664899E-02 
1941	 3.01431568492988E-02 
1942	 2.99930436792016E-02 
1943	 2.88231000456961E-02 
1944	 3.00588398296453E-02 
1945	 3.13507379657864E-02 
1946	 3.17873472180821E-02 
1947	 3.20522025342704E-02 
1948	 0.032458743907909 
1949	 3.21155061348941E-02 
1950	 3.06008435726268E-02 
1951	 3.02764862360937E-02 
1952	 3.05393460454358E-02 
1953	 3.07409897927492E-02 
1954	 3.07776868943178E-02 
1955	 3.07142376570102E-02 
1956	 3.01792097062143E-02 
1957	 2.97303743732808E-02 
1958	 3.00446344438029E-02 
1959	 3.09448602879795E-02 
1960	 3.16957720472687E-02 
1961	 3.28016054301605E-02 
1962	 3.37566442865473E-02 
1963	 3.38945033536204E-02 
1964	 3.40153532942414E-02 
1965	 3.36357532778513E-02 
1966	 3.30945856390415E-02 
1967	 3.33159463094653E-02 
1968	 3.34654751717604E-02 
1969	 3.35875972901599E-02 
1970	 0.033874901992651 
1971	 3.42334010543436E-02 
1972	 3.45563483910975E-02 
1973	 0.034792793524462 
1974	 3.54317188284235E-02 
1975	 3.57732057814543E-02 
1976	 3.58187603294823E-02 
1977	 3.59420731477314E-02 
1978	 3.60798639952255E-02 
1979	 3.63852993254254E-02 
1980	 3.65267724100084E-02 
1981	 3.68095949749791E-02 
1982	 3.70135201939259E-02 
1983	 3.70437000861686E-02 
1984	 3.71300408179217E-02 
1985	 3.77135541646498E-02 
1986	 3.82065960755065E-02 
1987	 3.88379184078989E-02 
1988	 3.93222594414395E-02 
1989	 3.95066496288089E-02 
1990	 3.97401048300917E-02 
1991	 3.98725005016403E-02 
1992	 3.97182825849746E-02 
1993	 3.96411256110807E-02 
1994	 3.97971087442711E-02 
1995	 3.98945330306439E-02 
1996	 0.039916170092769 
1997	 4.04484973915371E-02 
1998	 4.09413019549912E-02 
1999	 4.10388885454787E-02 
2000	 0.041781900601286 
2001	 4.24691233872374E-02 
2002	 4.33739224376912E-02 
2003	 4.43399265411294E-02 
2004	 4.42529456272844E-02 
2005	 4.45195183666527E-02 
2006	 0.044778332120383 
2007	 4.48577806388221E-02 
2008	 4.45490277565241E-02 
2009	 4.50847488788739E-02 
2010	 4.54108503184073E-02 
2011	 4.55862973045208E-02 
2012	 4.65897781095056E-02 
2013	 4.73399270902505E-02 
2014	 4.78878843419088E-02 
2015	 4.86040297003584E-02 
2016	 4.93085158826478E-02 
2017	 5.01110985506523E-02 
2018	 5.05542356099549E-02 
2019	 5.05525639711474E-02 
2020	 5.01846076233703E-02 
2021	 0.049653143797722 
2022	 4.94733671321627E-02 
2023	 4.96830884040802E-02 
2024	 0.050048382809628 
2025	 5.06560793469186E-02 
2026	 5.11187660835928E-02 
2027	 5.12350015820307E-02 
2028	 5.14979051029001E-02 
2029	 5.17730761513987E-02 
2030	 5.18995564198484E-02 
2031	 5.20804435035376E-02 
2032	 5.23177223270359E-02 
2033	 5.26664303416805E-02 
2034	 5.28984367289596E-02 
2035	 5.30627154106697E-02 
2036	 5.32222737171161E-02 
2037	 5.32556910912742E-02 
2038	 5.34696208732323E-02 
2039	 5.36775350101538E-02 
2040	 5.38607496595007E-02 
2041	 5.40807982059364E-02 
2042	 0.054190476961396 
2043	 5.43645534384955E-02 
2044	 5.45250923602613E-02 
2045	 0.054752442821025 
2046	 0.055075650158718 
2047	 5.53866970716775E-02 
2048	 5.55153701933941E-02 
2049	 5.58900814098189E-02 
2050	 5.63270782921009E-02 
2051	 5.66719359175994E-02 
2052	 5.73148894767164E-02 
2053	 5.76828487996475E-02 
2054	 5.77508660252848E-02 
2055	 5.80858360426806E-02 
2056	 5.81573163960221E-02 
2057	 5.81251949001951E-02 
2058	 5.85857603440711E-02 
2059	 5.89869974354614E-02 
2060	 5.93383777388024E-02 
2061	 5.97702644068388E-02 
2062	 6.03718669966698E-02 
2063	 6.05835643575895E-02 
2064	 6.07512225946315E-02 
2065	 6.09053447210195E-02 
2066	 6.10726598290953E-02 
2067	 6.13735857907856E-02 
2068	 6.15399471780206E-02 
2069	 6.19575489506863E-02 
2070	 6.23208815167014E-02 
2071	 6.24374611315221E-02 
2072	 6.27789458132523E-02 
2073	 6.33092653331371E-02 
2074	 6.34709928716758E-02 
2075	 6.35283629464043E-02 
2076	 6.37966242163451E-02 
2077	 6.40247531655019E-02 
2078	 6.43534554286149E-02 
2079	 0.064592536958954 
2080	 6.50193125872535E-02 
2081	 6.52332704777363E-02 
2082	 6.51096273863727E-02 
2083	 6.52255040475409E-02 
2084	 6.53707454579068E-02 
2085	 6.57077858127699E-02 
2086	 6.63631632413167E-02 
2087	 6.67136684050826E-02 
2088	 6.71052644049732E-02 
2089	 0.067332081461161 
2090	 0.067366178594651 
2091	 6.73435048430339E-02 
2092	 6.76246879435534E-02 
2093	 0.068169896669318 
2094	 6.86730038998679E-02 
2095	 6.88982970332034E-02 
2096	 0.069188070186489 
2097	 6.94400017416769E-02 
2098	 6.95055039712919E-02 
2099	 6.97459408742509E-02 
2100	 7.00476773727329E-02 
2101	 7.04140773252049E-02 
2102	 7.08307780787471E-02 
2103	 7.13963443155897E-02 
2104	 0.071932074398013 
2105	 7.25019572294191E-02 
2106	 7.26469774984877E-02 
2107	 7.27418180471962E-02 
2108	 7.31040994158808E-02 
2109	 7.30001664308129E-02 
2110	 7.31484208290697E-02 
2111	 7.33973201815749E-02 
2112	 7.32093037716308E-02 
2113	 7.33288251803633E-02 
2114	 7.33574770065817E-02 
2115	 7.33216052092651E-02 
2116	 7.36755805724578E-02 
2117	 7.40119509847161E-02 
2118	 7.45692245410827E-02 
2119	 0.074873597177735 
2120	 7.51021268997214E-02 
2121	 0.075321126293361 
2122	 7.57379900847129E-02 
2123	 7.59405805599215E-02 
2124	 7.66289892006474E-02 
2125	 7.71439042513597E-02 
2126	 7.72176633002259E-02 
2127	 7.76563036381527E-02 
2128	 7.79488139981348E-02 
2129	 7.83227698384894E-02 
2130	 7.87367518871319E-02 
2131	 7.89891458950431E-02 
2132	 7.92513139897852E-02 
2133	 7.94206480345224E-02 
2134	 7.97101953950319E-02 
2135	 8.01202105183569E-02 
2136	 8.03885431622897E-02 
2137	 0.080390330243768 
2138	 8.04772806082057E-02 
2139	 8.02878671630184E-02 
2140	 7.99792939600299E-02 
2141	 8.02654685936824E-02 
2142	 8.05292408043838E-02 
2143	 8.06695762544509E-02 
2144	 8.11069202160857E-02 
2145	 8.12215668330891E-02 
2146	 8.13349146069638E-02 
2147	 8.15523703974368E-02 
2148	 8.17252304133318E-02 
2149	 0.082153676382876 
2150	 8.24881815045843E-02 
2151	 8.27988715622601E-02 
2152	 8.33436015665249E-02 
2153	 8.34904622791875E-02 
2154	 8.34067677663485E-02 
2155	 8.31583604934121E-02 
2156	 8.27497794352341E-02 
2157	 8.26071409345753E-02 
2158	 0.082649767496476 
2159	 8.30390610892647E-02 
2160	 8.35604645871302E-02 
2161	 8.36824977116864E-02 
2162	 8.38969419539647E-02 
2163	 0.083618539397979 
2164	 8.33191814244372E-02 
2165	 8.35840352439371E-02 
2166	 8.34821386301846E-02 
2167	 0.083538957490804 
2168	 8.36797183314994E-02 
2169	 8.38852842476228E-02 
2170	 8.39828859359531E-02 
2171	 8.40789312126093E-02 
2172	 8.42661535180588E-02 
2173	 8.45594599533842E-02 
2174	 8.45758454491614E-02 
2175	 0.084573099733334 
2176	 8.48360884679249E-02 
2177	 8.49563833894735E-02 
2178	 0.085037298706052 
2179	 8.53715578492748E-02 
2180	 8.56680534655485E-02 
2181	 8.57602191472879E-02 
2182	 8.61086047072467E-02 
2183	 8.62573014093102E-02 
2184	 8.60076734176593E-02 
2185	 8.61058876373482E-02 
2186	 8.62331957564978E-02 
2187	 8.63526022915692E-02 
2188	 8.67726084589329E-02 
2189	 8.71020509525576E-02 
2190	 8.74743366012136E-02 
2191	 8.73093338193686E-02 
2192	 8.71833329788326E-02 
2193	 8.66601046450509E-02 
2194	 8.59544342346616E-02 
2195	 8.57287935422462E-02 
2196	 8.59291407806616E-02 
2197	 8.61061202578686E-02 
2198	 8.62610950245653E-02 
2199	 8.62684038772919E-02 
2200	 8.63387115159826E-02 
2201	 8.68357723417683E-02 
2202	 8.73483401809255E-02 
2203	 8.81147909811709E-02 
2204	 8.84656158835682E-02 
2205	 8.82589625344238E-02 
2206	 8.82073400827683E-02 
2207	 8.80096034581636E-02 
2208	 8.79283768068791E-02 
2209	 8.80915315987411E-02 
2210	 8.80563844117581E-02 
2211	 8.80290551484239E-02 
2212	 8.77535122377044E-02 
2213	 8.69820898174693E-02 
2214	 8.63680546943216E-02 
2215	 8.63159349645873E-02 
2216	 8.66493555627237E-02 
2217	 8.74042875709586E-02 
2218	 8.79027554162619E-02 
2219	 8.80952570408128E-02 
2220	 8.81063222989434E-02 
2221	 8.76125661970131E-02 
2222	 8.76510453969926E-02 
2223	 8.72844885124549E-02 
2224	 8.65513313331371E-02 
2225	 8.68578538288601E-02 
2226	 8.68910705091737E-02 
2227	 8.69633813877341E-02 
2228	 8.72162985381399E-02 
2229	 8.70992913319313E-02 
2230	 8.69211037257938E-02 
2231	 8.67984035056398E-02 
2232	 8.68983331155251E-02 
2233	 8.69315693147941E-02 
2234	 8.69502539472941E-02 
2235	 8.64836575257536E-02 
2236	 8.65487884489078E-02 
2237	 8.62872344902117E-02 
2238	 8.59141414173161E-02 
2239	 8.63358089667921E-02 
2240	 8.62725332455891E-02 
2241	 8.55225991165951E-02 
2242	 8.48960207514142E-02 
2243	 8.47136447703064E-02 
2244	 8.47662774944608E-02 
2245	 8.46091668025427E-02 
2246	 8.45794441572133E-02 
2247	 8.39570499538698E-02 
2248	 8.29377242536473E-02 
2249	 8.26955818071622E-02 
2250	 8.25219770397762E-02 
2251	 8.24667695358029E-02 
2252	 8.26588518842401E-02 
2253	 8.28487833668993E-02 
2254	 8.29522781695863E-02 
2255	 8.26324208696757E-02 
2256	 8.23901040238936E-02 
2257	 8.21099470677923E-02 
2258	 8.16886953961168E-02 
2259	 0.08114315058627 
2260	 8.11116928169476E-02 
2261	 8.09967694562848E-02 
2262	 8.08940098979101E-02 
2263	 8.11720952575503E-02 
2264	 0.080837672995595 
2265	 8.00298671950985E-02 
2266	 7.95109460166863E-02 
2267	 7.88586642483431E-02 
2268	 0.078286643428757 
2269	 7.85445784337452E-02 
2270	 7.89611431822239E-02 
2271	 7.92864856744143E-02 
2272	 0.079363495697785 
2273	 7.93549408068394E-02 
2274	 7.90545717869393E-02 
2275	 7.79213517670374E-02 
2276	 7.72469393921833E-02 
2277	 7.69474538462575E-02 
2278	 7.67907747858195E-02 
2279	 7.65557426486303E-02 
2280	 7.60710774049374E-02 
2281	 7.58497165418997E-02 
2282	 7.54168995067671E-02 
2283	 7.58908684142145E-02 
2284	 7.67396246488629E-02 
2285	 7.63181353481769E-02 
2286	 7.61526548864747E-02 
2287	 7.58341167468007E-02 
2288	 7.53231455278159E-02 
2289	 7.46960087612252E-02 
2290	 7.48145934936235E-02 
2291	 7.44068013919332E-02 
2292	 7.35034994244226E-02 
2293	 7.27312267636954E-02 
2294	 7.19823081139037E-02 
2295	 7.17520628419675E-02 
2296	 7.16871366091355E-02 
2297	 7.14066461840931E-02 
2298	 0.071214181519748 
2299	 7.13638710652943E-02 
2300	 7.08056933187157E-02 
2301	 6.98190091251949E-02 
2302	 6.93518778246284E-02 
2303	 0.068512517376832 
2304	 6.79218798388028E-02 
2305	 6.77636834894728E-02 
2306	 6.75350130363281E-02 
2307	 6.77118218207732E-02 
2308	 0.068021620210263 
2309	 6.82754697915858E-02 
2310	 6.87922058976684E-02 
2311	 6.89311312773531E-02 
2312	 6.92376666860239E-02 
2313	 6.94766803942572E-02 
2314	 6.95137779309834E-02 
2315	 6.95879234154971E-02 
2316	 6.84410196342149E-02 
2317	 6.81307429442388E-02 
2318	 6.83285575354983E-02 
2319	 6.81523099244022E-02 
2320	 6.80516762439463E-02 
2321	 6.76677024710274E-02 
2322	 6.64356676339711E-02 
2323	 0.066273383000709 
2324	 6.63364345741815E-02 
2325	 0.066831507048069 
2326	 6.76457390909385E-02 
2327	 6.72211230821154E-02 
2328	 6.62899356739143E-02 
2329	 6.56138175566948E-02 
2330	 6.49407096801674E-02 
2331	 6.42342959760084E-02 
2332	 6.38278702365214E-02 
2333	 6.35421370307123E-02 
2334	 6.27813951595658E-02 
2335	 6.30824026708455E-02 
2336	 0.063769164789261 
2337	 6.31311104961225E-02 
2338	 6.32414429332537E-02 
2339	 0.063064720116619 
2340	 6.08894157332183E-02 
2341	 0.060144389513285 
2342	 6.04799124651895E-02 
2343	 6.07225505828626E-02 
2344	 6.20882387863055E-02 
2345	 6.26439073173043E-02 
2346	 6.12283031063083E-02 
2347	 5.91304508046917E-02 
2348	 5.82083955038185E-02 
2349	 5.80396012486387E-02 
2350	 5.94882422055929E-02 
2351	 6.06527387963537E-02 
2352	 5.96658942172774E-02 
2353	 6.01065603405799E-02 
2354	 6.01008219550833E-02 
2355	 5.89555091890131E-02 
2356	 5.85263007761795E-02 
2357	 5.70085142835623E-02 
2358	 5.57602612497492E-02 
2359	 5.64450734085888E-02 
2360	 5.66098478129809E-02 
2361	 5.66251266869104E-02 
2362	 5.63895874787962E-02 
2363	 0.05483288115256 
2364	 5.38375216309865E-02 
2365	 5.36099746591709E-02 
2366	 5.35367188924088E-02 
2367	 5.29293506774496E-02 
2368	 5.27326051766958E-02 
2369	 5.28188492513469E-02 
2370	 5.30057984768696E-02 
2371	 5.43810528039613E-02 
2372	 5.49731383889498E-02 
2373	 5.58364276139644E-02 
2374	 5.57795438019138E-02 
2375	 0.055141456905231 
2376	 5.39757791287899E-02 
2377	 5.15341500597043E-02 
2378	 0.050188729690086 
2379	 4.79413569839467E-02 
2380	 4.76284859792789E-02 
2381	 4.94597455338649E-02 
2382	 5.02088907626707E-02 
2383	 5.18140937919849E-02 
2384	 5.26937816446102E-02 
2385	 5.34262539667387E-02 
2386	 5.37475142469605E-02 
2387	 5.37897739543093E-02 
2388	 5.26462156912233E-02 
2389	 4.89153819812899E-02 
2390	 4.75935269728493E-02 
2391	 0.047720683105386 
2392	 4.72112673962285E-02 
2393	 4.74630178890094E-02 
2394	 4.73998405849664E-02 
2395	 4.62239110173828E-02 
2396	 4.59039560510634E-02 
2397	 4.74602774484041E-02 
2398	 4.74828977935433E-02 
2399	 4.63918160809525E-02 
2400	 4.55244804683317E-02 
2401	 4.36787857678577E-02 
2402	 4.23786839071722E-02 
2403	 4.39602672445758E-02 
2404	 4.53192729500854E-02 
2405	 4.65583897502424E-02 
2406	 4.71459825597997E-02 
2407	 0.045190191593316 
2408	 4.49753784823551E-02 
2409	 4.51604787870921E-02 
2410	 4.46229006700041E-02 
2411	 4.54764843103481E-02 
2412	 4.45867999148387E-02 
2413	 4.38060322466103E-02 
2414	 4.55464247766697E-02 
2415	 4.68240689388496E-02 
2416	 4.63724547361447E-02 
2417	 4.51467048721807E-02 
2418	 4.36739981082539E-02 
2419	 4.25739617767918E-02 
2420	 4.02515431755713E-02 
2421	 3.84890684078893E-02 
2422	 3.90226157980596E-02 
2423	 3.79364706737209E-02 
2424	 3.87221930196017E-02 
2425	 0.042180700911341 
2426	 4.12554784973377E-02 
2427	 3.94448708634452E-02 
2428	 4.21804156945283E-02 
2429	 4.26523100694671E-02 
2430	 4.35555389236532E-02 
2431	 4.73326617297568E-02 
2432	 4.41690660943439E-02 
2433	 4.42809969936719E-02 
2434	 4.54409638047283E-02 
2435	 4.72131747412176E-02 
2436	 4.83185241928532E-02 
2437	 4.80203698752886E-02 
2438	 4.82842587960734E-02 
2439	 0.051411446882581 
2440	 4.89754756340418E-02 
2441	 4.30788484578994E-02 
2442	 3.92239704613848E-02 
2443	 2.80772452239792E-02 
2444	 2.48672533960254E-02 
2445	 3.03733313307294E-02 
2446	 3.22284574462867E-02 
2447	 3.79892314127857E-02 
2448	 3.84307109340304E-02 
2449	 3.35219523866665E-02 
2450	 3.17776574191192E-02 
2451	 2.77092478704281E-02 
2452	 2.74598867215342E-02 
2453	 3.23772026956718E-02 
2454	 0.03294225221837 
2455	 3.13865450105459E-02 
2456	 3.18535823471727E-02 
2457	 3.09905904793785E-02 
2458	 3.13560848714954E-02 
2459	 3.60071530614842E-02 
2460	 3.70377606238829E-02 
2461	 3.52285478147594E-02 
2462	 3.54646300347948E-02 
2463	 3.61284364800416E-02 
2464	 3.50487331470836E-02 
2465	 3.45873632380876E-02 
2466	 3.08013423091499E-02 
2467	 1.99333865409857E-02 
2468	 1.67122126488001E-02 
2469	 1.69557681308452E-02 
2470	 1.81008556935401E-02 
2471	 2.38612878178202E-02 
2472	 3.00982433256124E-02 
2473	 0.039372036109547 
2474	 4.18134302542456E-02 
2475	 4.57835055601297E-02 
2476	 4.65388963082231E-02 
2477	 3.67265581320119E-02 
2478	 3.13139232714812E-02 
2479	 2.72443304726761E-02 
2480	 2.49762100699141E-02 
2481	 1.76739599924167E-02 
2482	 2.13046528443126E-02 
2483	 4.17265134890211E-02 
2484	 4.11292046590925E-02 
2485	 3.52076347502719E-02 
2486	 2.59496316533054E-02 
2487	 1.35066442436448E-02 
2488	 1.71589499602579E-02 
2489	 3.46757037298004E-02 
2490	 6.40882139588425E-02 
2491	 8.91395743950103E-02 
2492	 0.115756764770944 
2493	 0.116386130735624 
2494	 6.23844132612458E-02 
2495	 3.26941719862902E-02 
2496	 5.11415126450687E-02 
2497	 6.34288863906269E-02 
2498	 0.071093030713319 
2499	 8.74124767470646E-02 
2500	 0.105671390974033 
