Wavelength	ref00032.asd
350	 0.714691754055968 
351	 0.714339014253865 
352	 0.714186100685186 
353	 0.714812712585175 
354	 0.716269095361673 
355	 0.716911321193438 
356	 0.71629488329354 
357	 0.716990490351594 
358	 0.717419952086934 
359	 0.71781777341414 
360	 0.718625784524595 
361	 0.718754495777264 
362	 0.719242838651991 
363	 0.719862512477383 
364	 0.719639307155682 
365	 0.71925934196247 
366	 0.719443597391554 
367	 0.720180219986628 
368	 0.72049006242797 
369	 0.720960086664281 
370	 0.721446479675791 
371	 0.721775111716557 
372	 0.722241930677822 
373	 0.722284254985054 
374	 0.722248287922034 
375	 0.722844618604775 
376	 0.723718778222927 
377	 0.724428346264303 
378	 0.724807323417685 
379	 0.725030437187074 
380	 0.725456537829625 
381	 0.725994824395135 
382	 0.72651418262138 
383	 0.727090449291867 
384	 0.72772208058658 
385	 0.728405373702372 
386	 0.729060253587412 
387	 0.729170458088442 
388	 0.72949133123996 
389	 0.730099899280893 
390	 0.730309337234679 
391	 0.730739619608317 
392	 0.731181510979243 
393	 0.731476720383498 
394	 0.731943753704502 
395	 0.732150372718362 
396	 0.732347087218077 
397	 0.732805878963883 
398	 0.732619949165207 
399	 0.7324763254749 
400	 0.732460348750455 
401	 0.732139051786259 
402	 0.732034587464232 
403	 0.732152477127426 
404	 0.7324082313081 
405	 0.732750765920448 
406	 0.732786692318202 
407	 0.732716051641876 
408	 0.732894335885161 
409	 0.733287028963345 
410	 0.733408771988895 
411	 0.733313175495176 
412	 0.733507939633314 
413	 0.733673455407343 
414	 0.733746237470703 
415	 0.7337755606036 
416	 0.733973579057947 
417	 0.733993245981193 
418	 0.73399906428977 
419	 0.734245875674908 
420	 0.734520435317399 
421	 0.7345605500812 
422	 0.734441011054711 
423	 0.734521292991815 
424	 0.734772051634184 
425	 0.735043999071117 
426	 0.735261245089941 
427	 0.735572295614273 
428	 0.735785296166196 
429	 0.735964283659731 
430	 0.736198795704683 
431	 0.736201809242792 
432	 0.736222608369937 
433	 0.736297905756015 
434	 0.736269255600725 
435	 0.736304097579462 
436	 0.736354147355578 
437	 0.736402395046187 
438	 0.736584102781935 
439	 0.736719591253644 
440	 0.736788641947819 
441	 0.736841162759059 
442	 0.736963435504391 
443	 0.7370428346148 
444	 0.737069677979545 
445	 0.737137045683731 
446	 0.737142068627119 
447	 0.737160809184062 
448	 0.737237361969802 
449	 0.737264585344745 
450	 0.737251393558597 
451	 0.737301100374566 
452	 0.737509165677317 
453	 0.737645773740148 
454	 0.73772876774718 
455	 0.737841329486918 
456	 0.738111532341799 
457	 0.738248388904823 
458	 0.738195537592084 
459	 0.738050190930903 
460	 0.738172875647925 
461	 0.738265274148309 
462	 0.738281082921506 
463	 0.738321490029074 
464	 0.738452531168128 
465	 0.738631196190453 
466	 0.738826942984511 
467	 0.73905069807574 
468	 0.739215134336514 
469	 0.73930601927267 
470	 0.739330973455363 
471	 0.739264787685869 
472	 0.739248329713797 
473	 0.739304611430088 
474	 0.739364221639492 
475	 0.739378570094239 
476	 0.739389866801995 
477	 0.739441274969679 
478	 0.739553262149833 
479	 0.739693263440833 
480	 0.739738893476929 
481	 0.739628942844169 
482	 0.739736791403291 
483	 0.739926928210763 
484	 0.740134967130192 
485	 0.740378915480433 
486	 0.740469161260781 
487	 0.74047554527582 
488	 0.740479366924853 
489	 0.740434963855122 
490	 0.740403092047909 
491	 0.740358194121467 
492	 0.740272244933326 
493	 0.740359359555455 
494	 0.740483777956006 
495	 0.740561864974215 
496	 0.740610976790006 
497	 0.740714664866915 
498	 0.740917200427583 
499	 0.741179897238579 
500	 0.741241338957543 
501	 0.741296411609469 
502	 0.741317599975694 
503	 0.741165139809083 
504	 0.741018534498861 
505	 0.740916637926272 
506	 0.7409002663354 
507	 0.741055703049244 
508	 0.741099739485359 
509	 0.741092679775253 
510	 0.741162276285131 
511	 0.741211502578855 
512	 0.74119773876723 
513	 0.741199360835868 
514	 0.741380863551858 
515	 0.741555567564122 
516	 0.741677391699355 
517	 0.741730088037082 
518	 0.741692789449312 
519	 0.741727170064512 
520	 0.741737428256179 
521	 0.741568141949546 
522	 0.741354250513813 
523	 0.741258488022177 
524	 0.741290304620949 
525	 0.741292042469974 
526	 0.741301787439218 
527	 0.741300588568068 
528	 0.741271011964235 
529	 0.741218131231964 
530	 0.74121939052875 
531	 0.741301619354154 
532	 0.741445275797399 
533	 0.741512930316558 
534	 0.741549936756112 
535	 0.741608993917274 
536	 0.741717179631162 
537	 0.741818472404692 
538	 0.741868261640361 
539	 0.741833824500173 
540	 0.74170079031553 
541	 0.741638306411872 
542	 0.741622155658126 
543	 0.741474849436765 
544	 0.741412384514111 
545	 0.74145010010751 
546	 0.741538372315679 
547	 0.741563752835376 
548	 0.741590057063796 
549	 0.741641051785403 
550	 0.74171425127791 
551	 0.741740503987008 
552	 0.741778808194848 
553	 0.7418337992445 
554	 0.741834487925327 
555	 0.741790899536774 
556	 0.741765970228074 
557	 0.741835977999478 
558	 0.742102105760066 
559	 0.742242484404304 
560	 0.742187780997557 
561	 0.742067200945083 
562	 0.742076373090862 
563	 0.742074682748255 
564	 0.7420015278275 
565	 0.742022530713452 
566	 0.742035866640337 
567	 0.742007816027845 
568	 0.741953673954617 
569	 0.742005214702882 
570	 0.742105037733888 
571	 0.742169888084149 
572	 0.742117887936764 
573	 0.742176342481615 
574	 0.742330748510743 
575	 0.742497583640267 
576	 0.742536826622009 
577	 0.742553409148351 
578	 0.742619840190013 
579	 0.742755330907642 
580	 0.742711664865768 
581	 0.742668065467182 
582	 0.742699475773049 
583	 0.742691178530022 
584	 0.742713060495142 
585	 0.742676775882355 
586	 0.74250474218134 
587	 0.742279918391511 
588	 0.742234052519671 
589	 0.742299731123163 
590	 0.742200272322299 
591	 0.74207247591699 
592	 0.742115355851471 
593	 0.742363507726882 
594	 0.742568835839884 
595	 0.742724179385367 
596	 0.742817648765955 
597	 0.74286965543818 
598	 0.742997915628826 
599	 0.743114746356133 
600	 0.743219422863029 
601	 0.743402380581415 
602	 0.743586946907546 
603	 0.743736764230397 
604	 0.74383723307964 
605	 0.743897048297156 
606	 0.743989934736127 
607	 0.744099846936441 
608	 0.744163162202226 
609	 0.744148160586989 
610	 0.744153084082075 
611	 0.744208066776643 
612	 0.744230838302268 
613	 0.744294454661464 
614	 0.744391260401861 
615	 0.744502654051252 
616	 0.744670046433493 
617	 0.744746535396116 
618	 0.744767013960492 
619	 0.744883137596616 
620	 0.744976588722643 
621	 0.745050689890745 
622	 0.745118543961808 
623	 0.745173916234316 
624	 0.745321406037168 
625	 0.745496633735468 
626	 0.745599114321776 
627	 0.74569728768907 
628	 0.745857648650021 
629	 0.746039122521889 
630	 0.746104611403665 
631	 0.74621989645874 
632	 0.746215249999739 
633	 0.746069891697175 
634	 0.746310410895522 
635	 0.746559832640532 
636	 0.746742087985238 
637	 0.746894349888544 
638	 0.74686948759304 
639	 0.746901355190827 
640	 0.747053826038471 
641	 0.747135311547005 
642	 0.747232791799396 
643	 0.747324722433467 
644	 0.747362680143576 
645	 0.74727508502418 
646	 0.747228882660148 
647	 0.747225133824141 
648	 0.747188561023052 
649	 0.747387328204669 
650	 0.747645533701233 
651	 0.747806179067867 
652	 0.747844075323982 
653	 0.747906159559355 
654	 0.748063780689636 
655	 0.748337538159366 
656	 0.748657751411755 
657	 0.74868266424941 
658	 0.748619167592364 
659	 0.749002032863581 
660	 0.749102655147392 
661	 0.749117873219163 
662	 0.74920919173853 
663	 0.749230923180909 
664	 0.749356355908858 
665	 0.749486941263125 
666	 0.749486363510646 
667	 0.749529024263098 
668	 0.749579202280083 
669	 0.749650226772867 
670	 0.749797241209953 
671	 0.749868417022767 
672	 0.749880109108017 
673	 0.749893991699747 
674	 0.750002494934088 
675	 0.750110939868685 
676	 0.750213553999255 
677	 0.750318028477894 
678	 0.750298115255363 
679	 0.750332509057627 
680	 0.750463253792698 
681	 0.750571712675186 
682	 0.750688732508093 
683	 0.750748381803268 
684	 0.750742314700913 
685	 0.750829199143203 
686	 0.75117391506189 
687	 0.751581595122176 
688	 0.751688297208237 
689	 0.751887764369434 
690	 0.751882789961349 
691	 0.751653834845932 
692	 0.75149150944081 
693	 0.751151387042681 
694	 0.750899629377378 
695	 0.750959261532863 
696	 0.75114990058998 
697	 0.75151384937619 
698	 0.751771576518892 
699	 0.751625559629807 
700	 0.751699918927329 
701	 0.751890245588882 
702	 0.752087728954152 
703	 0.752258515088561 
704	 0.752463056675126 
705	 0.752677994670912 
706	 0.752843245563006 
707	 0.752810196227095 
708	 0.752974340803411 
709	 0.753247420027001 
710	 0.75335999706387 
711	 0.753575721483735 
712	 0.753753892235581 
713	 0.753822228456861 
714	 0.753820052675444 
715	 0.753534586217067 
716	 0.752936810418491 
717	 0.752093654197704 
718	 0.751204209868643 
719	 0.751038031738133 
720	 0.751643128658355 
721	 0.752487531198949 
722	 0.753091031187909 
723	 0.753104128956266 
724	 0.752653476981434 
725	 0.752389585027403 
726	 0.752506687760137 
727	 0.752859574604412 
728	 0.753210347942451 
729	 0.753276419682714 
730	 0.753452077358382 
731	 0.753846455107018 
732	 0.75440338449618 
733	 0.754923734462382 
734	 0.755385154718958 
735	 0.755723255043747 
736	 0.755841441180924 
737	 0.756172586648962 
738	 0.756422760147435 
739	 0.756474978101183 
740	 0.756844741979427 
741	 0.75722101249332 
742	 0.757532886484574 
743	 0.757778307488389 
744	 0.75790294183676 
745	 0.758054609167952 
746	 0.758259782522449 
747	 0.758444190593883 
748	 0.758594828286921 
749	 0.758688515963481 
750	 0.758750407775893 
751	 0.758878996103412 
752	 0.759156417481123 
753	 0.759371035119324 
754	 0.759364907276816 
755	 0.759483630030051 
756	 0.759445766646962 
757	 0.759249761838808 
758	 0.759197895297335 
759	 0.760802391620133 
760	 0.76304600327707 
761	 0.764447263679464 
762	 0.764049110813348 
763	 0.76404323885376 
764	 0.76398559918201 
765	 0.763358872752789 
766	 0.762553313615542 
767	 0.762091602350253 
768	 0.761931579807228 
769	 0.761909825700452 
770	 0.762101866299668 
771	 0.762224760030548 
772	 0.76228228041629 
773	 0.762498763943192 
774	 0.762533990634291 
775	 0.762515999278471 
776	 0.76258569095198 
777	 0.762779863628637 
778	 0.762997570816073 
779	 0.763142616496832 
780	 0.763180373762706 
781	 0.76325552535115 
782	 0.763410033174127 
783	 0.763587124834508 
784	 0.763682559429802 
785	 0.763688411609144 
786	 0.763714676090783 
787	 0.763701824111831 
788	 0.763437137763456 
789	 0.763559552998843 
790	 0.763826934591023 
791	 0.763969504496927 
792	 0.764022948536467 
793	 0.764269710256868 
794	 0.764550709511871 
795	 0.764618793763536 
796	 0.764497453217336 
797	 0.76458532066946 
798	 0.764813592337873 
799	 0.764870401845601 
800	 0.764990306699526 
801	 0.764985769390215 
802	 0.764898356637451 
803	 0.765047807468385 
804	 0.765166859314727 
805	 0.765373421536978 
806	 0.765659513409251 
807	 0.765612097910603 
808	 0.765617732161344 
809	 0.765655111347565 
810	 0.765541196563244 
811	 0.764984369175099 
812	 0.764563977050209 
813	 0.764303737352571 
814	 0.763920039969762 
815	 0.763600641748054 
816	 0.763393379023253 
817	 0.763392792474936 
818	 0.763700121269538 
819	 0.763829255947714 
820	 0.764077494603969 
821	 0.764517388003838 
822	 0.764631860900117 
823	 0.764576552480627 
824	 0.764601208081251 
825	 0.764886446687332 
826	 0.765360053472754 
827	 0.765599025069966 
828	 0.765694524072261 
829	 0.765891165705404 
830	 0.765930495026585 
831	 0.766066798463709 
832	 0.766356435149234 
833	 0.766680950657203 
834	 0.766988697966021 
835	 0.767203015483546 
836	 0.767411792618961 
837	 0.767862451849487 
838	 0.768077528902689 
839	 0.768202985154733 
840	 0.76839233297733 
841	 0.768563923049123 
842	 0.768692781421214 
843	 0.768830436684215 
844	 0.76900852713604 
845	 0.769132225208531 
846	 0.769056510989118 
847	 0.76903037693419 
848	 0.769346048256408 
849	 0.769528787470008 
850	 0.76965506866437 
851	 0.769765594265636 
852	 0.769871226556996 
853	 0.770102940271761 
854	 0.770291369947937 
855	 0.770256515042568 
856	 0.769920271566669 
857	 0.770066527268125 
858	 0.770375203927527 
859	 0.770525613350433 
860	 0.770498674730129 
861	 0.77050656039146 
862	 0.770512717724291 
863	 0.770518695023729 
864	 0.770798001556372 
865	 0.771111046007781 
866	 0.771347562979731 
867	 0.771425312210801 
868	 0.771175355832977 
869	 0.771085373260615 
870	 0.771130830824701 
871	 0.771082487042791 
872	 0.771082616227731 
873	 0.771329778182526 
874	 0.771567519621242 
875	 0.771363559852534 
876	 0.771520884251742 
877	 0.771711811314304 
878	 0.771731967000173 
879	 0.771647674333908 
880	 0.771792138900525 
881	 0.771894424076034 
882	 0.771838196213186 
883	 0.771841464353333 
884	 0.771920909524116 
885	 0.771942483631129 
886	 0.771902055813232 
887	 0.772085454659181 
888	 0.772086396913254 
889	 0.771818070322767 
890	 0.771469579157584 
891	 0.771701915215156 
892	 0.771344625888256 
893	 0.77074640302163 
894	 0.770482785117866 
895	 0.770005038638982 
896	 0.769405713570212 
897	 0.76899034675245 
898	 0.769031457442969 
899	 0.769215456444882 
900	 0.769105693270877 
901	 0.769006710795809 
902	 0.769386161372915 
903	 0.76935304188708 
904	 0.769454696144611 
905	 0.769732640409606 
906	 0.769838864942076 
907	 0.769432107685174 
908	 0.769007620964954 
909	 0.768815632199152 
910	 0.768762822761008 
911	 0.768397759031644 
912	 0.767916787006393 
913	 0.76780351137843 
914	 0.768577443309388 
915	 0.769531236080604 
916	 0.7695794032398 
917	 0.76909650897898 
918	 0.769846768971021 
919	 0.769908061520936 
920	 0.769711166645096 
921	 0.769822816122815 
922	 0.770431750207175 
923	 0.770620736447878 
924	 0.770632855570274 
925	 0.770426599126957 
926	 0.769241686157519 
927	 0.767894414858197 
928	 0.76682993438714 
929	 0.766076337081486 
930	 0.765054051755554 
931	 0.764304482178826 
932	 0.763479994214313 
933	 0.762424131395269 
934	 0.761926417351364 
935	 0.760466233060827 
936	 0.759348415315627 
937	 0.759587103145991 
938	 0.760150256084212 
939	 0.760874342243765 
940	 0.761769305019953 
941	 0.7625593434965 
942	 0.76232626613815 
943	 0.762825414745218 
944	 0.763119115416018 
945	 0.762575132671948 
946	 0.762711922314894 
947	 0.763306390687665 
948	 0.763279407367873 
949	 0.762507289454804 
950	 0.763192706696127 
951	 0.763613222334787 
952	 0.764029923445217 
953	 0.764790769158031 
954	 0.765417080503757 
955	 0.76555969243337 
956	 0.766120907152953 
957	 0.767055314611675 
958	 0.765988002132412 
959	 0.76674796382352 
960	 0.768389627920019 
961	 0.769372007290571 
962	 0.769426292673048 
963	 0.770555916841799 
964	 0.771640786487104 
965	 0.7718732361921 
966	 0.772195537001308 
967	 0.773379521063609 
968	 0.774132473059327 
969	 0.774008208075816 
970	 0.774503534866146 
971	 0.775209809557282 
972	 0.775795715340886 
973	 0.776152975699869 
974	 0.776503019932383 
975	 0.776914454590897 
976	 0.777012459629084 
977	 0.777095949582446 
978	 0.778120572533216 
979	 0.776996161006789 
980	 0.77629510796394 
981	 0.777548000891448 
982	 0.779719464709027 
983	 0.779060519428065 
984	 0.778762652019434 
985	 0.779693616390194 
986	 0.779917057115234 
987	 0.780822807799267 
988	 0.780128837503178 
989	 0.779124299784504 
990	 0.781054855111985 
991	 0.781987154326183 
992	 0.781816094171997 
993	 0.781440352493343 
994	 0.781762034632479 
995	 0.781087166186214 
996	 0.781486011732477 
997	 0.781935680197536 
998	 0.781002240206294 
999	 0.78266538623974 
1000	 0.782909304258 
1001	 0.771002172543539 
1002	 0.770972692494382 
1003	 0.771065094894762 
1004	 0.771307641795702 
1005	 0.771344427254262 
1006	 0.771383060600152 
1007	 0.771326911214018 
1008	 0.770966264383296 
1009	 0.770968577296572 
1010	 0.771122707403788 
1011	 0.771328526306216 
1012	 0.771515391412982 
1013	 0.771582788325256 
1014	 0.771406149863125 
1015	 0.771324203570741 
1016	 0.771489698526072 
1017	 0.771588606441215 
1018	 0.771655059051833 
1019	 0.771784649831967 
1020	 0.771786157805992 
1021	 0.771676787734404 
1022	 0.771616726836148 
1023	 0.771511003405306 
1024	 0.771445534429977 
1025	 0.771492216738722 
1026	 0.771438546831356 
1027	 0.771467779324163 
1028	 0.771564447663096 
1029	 0.77153092116073 
1030	 0.771601616861833 
1031	 0.771735128019954 
1032	 0.771780305874537 
1033	 0.77182309986678 
1034	 0.771861740600992 
1035	 0.771879857853306 
1036	 0.771863397455813 
1037	 0.771871954594358 
1038	 0.77189075915553 
1039	 0.771902864630272 
1040	 0.771865099196887 
1041	 0.77177921380276 
1042	 0.77175765936471 
1043	 0.771771508453211 
1044	 0.771843324898517 
1045	 0.771966194503657 
1046	 0.772022970415625 
1047	 0.772149253313914 
1048	 0.772202999139701 
1049	 0.772100059126629 
1050	 0.772106234666992 
1051	 0.772128814943333 
1052	 0.772118637886101 
1053	 0.772200983980039 
1054	 0.772488220851076 
1055	 0.772702156368937 
1056	 0.772780465678358 
1057	 0.77288116131666 
1058	 0.77293663035912 
1059	 0.772835910095596 
1060	 0.77277746251467 
1061	 0.772803559835701 
1062	 0.772773311034827 
1063	 0.772773683528762 
1064	 0.772849976499593 
1065	 0.772929797825292 
1066	 0.772979826178744 
1067	 0.773045516852223 
1068	 0.773248535433325 
1069	 0.773395616451445 
1070	 0.773395439333225 
1071	 0.773393752877224 
1072	 0.773285795843549 
1073	 0.773185011809602 
1074	 0.773237979583539 
1075	 0.773264981836992 
1076	 0.773293993120978 
1077	 0.773302010031826 
1078	 0.773180779495902 
1079	 0.773075145854506 
1080	 0.772959332919428 
1081	 0.772918501820198 
1082	 0.772912037291761 
1083	 0.773016131494816 
1084	 0.773082875325622 
1085	 0.773147383822272 
1086	 0.773180332198588 
1087	 0.773117809004691 
1088	 0.772934967159685 
1089	 0.772881269296637 
1090	 0.77291945245679 
1091	 0.772832336720296 
1092	 0.772788393657541 
1093	 0.772672240680914 
1094	 0.772537158126377 
1095	 0.772448636915482 
1096	 0.772231093893756 
1097	 0.772009540348689 
1098	 0.771737526755056 
1099	 0.771304899215778 
1100	 0.770880028205982 
1101	 0.770714986755231 
1102	 0.770486193497646 
1103	 0.770190672219993 
1104	 0.769811945857871 
1105	 0.769219967030575 
1106	 0.768604404639351 
1107	 0.768095859119856 
1108	 0.767576271135313 
1109	 0.767069486163183 
1110	 0.766497040374574 
1111	 0.765795322542584 
1112	 0.764905616659146 
1113	 0.764018286490625 
1114	 0.762911039036843 
1115	 0.761899940327648 
1116	 0.760886822636388 
1117	 0.75980789341324 
1118	 0.75878010332224 
1119	 0.757731770033091 
1120	 0.75677597144155 
1121	 0.755952863839526 
1122	 0.755220800186063 
1123	 0.754834455132797 
1124	 0.754760939516514 
1125	 0.75474678206099 
1126	 0.754870687054563 
1127	 0.75518708272884 
1128	 0.755683365722097 
1129	 0.756368072044598 
1130	 0.756953534182221 
1131	 0.7576801600051 
1132	 0.758316779631676 
1133	 0.758814051571155 
1134	 0.75944350308552 
1135	 0.759990024830487 
1136	 0.76055497337174 
1137	 0.761084667551281 
1138	 0.761268393499392 
1139	 0.761363100066816 
1140	 0.761402280026622 
1141	 0.761268952456482 
1142	 0.761204061328515 
1143	 0.761220439586728 
1144	 0.761304835098243 
1145	 0.761398503815269 
1146	 0.761423512734141 
1147	 0.761678601476869 
1148	 0.762045790609696 
1149	 0.762502167170067 
1150	 0.763030961773442 
1151	 0.763770681433551 
1152	 0.764664862577634 
1153	 0.765394475610422 
1154	 0.766483243244987 
1155	 0.767474154543035 
1156	 0.768207661446399 
1157	 0.769117447248847 
1158	 0.769860729737514 
1159	 0.770433552450182 
1160	 0.771053525935226 
1161	 0.771703908446886 
1162	 0.772218804013268 
1163	 0.772727820444309 
1164	 0.773118975966542 
1165	 0.773394034348661 
1166	 0.773671864842501 
1167	 0.773906667443356 
1168	 0.774103832674219 
1169	 0.774313770372269 
1170	 0.774432217052668 
1171	 0.774411585274491 
1172	 0.774406551088907 
1173	 0.774479603564566 
1174	 0.774572637410627 
1175	 0.774729922683701 
1176	 0.774855211867396 
1177	 0.774961040846086 
1178	 0.775008368488524 
1179	 0.77507014778013 
1180	 0.775122663490775 
1181	 0.775230988687356 
1182	 0.775359342825545 
1183	 0.775453656446259 
1184	 0.775583341072903 
1185	 0.775682631488152 
1186	 0.775757230371382 
1187	 0.775787358506805 
1188	 0.775769310106692 
1189	 0.775810809319744 
1190	 0.775807158214046 
1191	 0.77577797728512 
1192	 0.775858589471994 
1193	 0.775916515269353 
1194	 0.775916476126807 
1195	 0.775876100271456 
1196	 0.775854564297324 
1197	 0.775764840613071 
1198	 0.775773369695494 
1199	 0.775875978194179 
1200	 0.775907693360064 
1201	 0.77590575694127 
1202	 0.775968111733098 
1203	 0.776007728869292 
1204	 0.776099902949737 
1205	 0.776299452404922 
1206	 0.776444287202385 
1207	 0.776569344366943 
1208	 0.776702700523136 
1209	 0.776781296770592 
1210	 0.776955649002137 
1211	 0.777180143011883 
1212	 0.777393913289518 
1213	 0.777601811072687 
1214	 0.777837349726225 
1215	 0.778062857393395 
1216	 0.778267070332419 
1217	 0.778487411598603 
1218	 0.778751588997436 
1219	 0.77896687200741 
1220	 0.779149909347944 
1221	 0.779334077266617 
1222	 0.779519719620714 
1223	 0.779673624283425 
1224	 0.779820962235961 
1225	 0.779941568525034 
1226	 0.779967864024546 
1227	 0.780084375800392 
1228	 0.780230927469237 
1229	 0.78038607456664 
1230	 0.780600181411624 
1231	 0.780832200841968 
1232	 0.781019092811022 
1233	 0.781199280613655 
1234	 0.781342155242093 
1235	 0.78146348914507 
1236	 0.781552010953992 
1237	 0.781592833635324 
1238	 0.781651395107639 
1239	 0.781675493299238 
1240	 0.781741141329073 
1241	 0.781848029331918 
1242	 0.781909971672412 
1243	 0.782001749089788 
1244	 0.782021307620742 
1245	 0.781892546884507 
1246	 0.781911742762743 
1247	 0.781985863224413 
1248	 0.782047491678381 
1249	 0.782265419142276 
1250	 0.782362101128839 
1251	 0.782361354107557 
1252	 0.782327602740304 
1253	 0.782339860657498 
1254	 0.782300868219278 
1255	 0.782362283573962 
1256	 0.782480409131844 
1257	 0.782623492767179 
1258	 0.782888556002548 
1259	 0.782997382815742 
1260	 0.783032779257662 
1261	 0.783137434165205 
1262	 0.783201797657255 
1263	 0.783257102403118 
1264	 0.78338316263911 
1265	 0.783460310921833 
1266	 0.783413439077986 
1267	 0.783451320996591 
1268	 0.783619401154755 
1269	 0.783660314070293 
1270	 0.783625412682546 
1271	 0.783621331699791 
1272	 0.783614217395062 
1273	 0.783501965289126 
1274	 0.783442022542012 
1275	 0.783421766021104 
1276	 0.783365889523459 
1277	 0.783246791034393 
1278	 0.783210769546448 
1279	 0.783213521048433 
1280	 0.783216672287309 
1281	 0.783283779963234 
1282	 0.783265096481893 
1283	 0.783218285218966 
1284	 0.783165122748831 
1285	 0.78305407301384 
1286	 0.782973296841063 
1287	 0.782886852868886 
1288	 0.782833665838502 
1289	 0.782822457721811 
1290	 0.782768407696081 
1291	 0.782730296544521 
1292	 0.782666351662797 
1293	 0.782526073543732 
1294	 0.782434353033878 
1295	 0.782411985800723 
1296	 0.78230950158897 
1297	 0.782218923350715 
1298	 0.782145402097025 
1299	 0.782023319472623 
1300	 0.781859581953715 
1301	 0.781691750176131 
1302	 0.781486389735255 
1303	 0.781320694888055 
1304	 0.781155102522294 
1305	 0.780987752146558 
1306	 0.7808709897516 
1307	 0.780681543144174 
1308	 0.780421966321453 
1309	 0.780210740118665 
1310	 0.779988916277264 
1311	 0.779775221186115 
1312	 0.779535246143578 
1313	 0.779387693620908 
1314	 0.779339111276396 
1315	 0.779207372431923 
1316	 0.779170890687248 
1317	 0.779013415228321 
1318	 0.778694354753119 
1319	 0.778408335546869 
1320	 0.778054691198543 
1321	 0.777771236030028 
1322	 0.777413622112045 
1323	 0.777045757077951 
1324	 0.776616450334109 
1325	 0.776101244961842 
1326	 0.775634391048964 
1327	 0.775135347309486 
1328	 0.774651758863731 
1329	 0.774137871278902 
1330	 0.773724564261288 
1331	 0.773392238461501 
1332	 0.77300490893865 
1333	 0.772666556718837 
1334	 0.772337292868648 
1335	 0.771988681434108 
1336	 0.771623633744621 
1337	 0.77142283398872 
1338	 0.770956393384439 
1339	 0.770353747248972 
1340	 0.769575653264685 
1341	 0.768405088763754 
1342	 0.76724342522393 
1343	 0.765711816433317 
1344	 0.764121451297452 
1345	 0.762236110026089 
1346	 0.76012441053455 
1347	 0.757523227265489 
1348	 0.754656978456666 
1349	 0.751600635982356 
1350	 0.747915221726079 
1351	 0.744009154199862 
1352	 0.739947111154908 
1353	 0.735243306308749 
1354	 0.731051719490727 
1355	 0.724972933179932 
1356	 0.720305543770904 
1357	 0.712990978120823 
1358	 0.707757152628553 
1359	 0.697641664841158 
1360	 0.691649850225688 
1361	 0.682475464657919 
1362	 0.686079160508309 
1363	 0.67837303192161 
1364	 0.672835387249295 
1365	 0.673112524453374 
1366	 0.676390078456994 
1367	 0.671345566987204 
1368	 0.669286346636111 
1369	 0.671752799434986 
1370	 0.667047376613027 
1371	 0.668144552397622 
1372	 0.679557991768414 
1373	 0.683245401825911 
1374	 0.682402650537708 
1375	 0.684286821808926 
1376	 0.683133277502528 
1377	 0.678005571510221 
1378	 0.677136595013662 
1379	 0.676199938298644 
1380	 0.675810411856397 
1381	 0.678025086753915 
1382	 0.678584956959214 
1383	 0.678436734083837 
1384	 0.677844112927523 
1385	 0.67568998451807 
1386	 0.676915713027629 
1387	 0.678403769209873 
1388	 0.680225044795157 
1389	 0.684861719997381 
1390	 0.68658048994966 
1391	 0.686219177799385 
1392	 0.687550948674398 
1393	 0.689103220982036 
1394	 0.690342471255591 
1395	 0.691245355729391 
1396	 0.693464585802995 
1397	 0.696575348425564 
1398	 0.698796125853978 
1399	 0.702430027509776 
1400	 0.704269775659432 
1401	 0.702981546133206 
1402	 0.704239157407903 
1403	 0.706228786493614 
1404	 0.708075146441592 
1405	 0.710569008018426 
1406	 0.713509844963153 
1407	 0.714897755281692 
1408	 0.716259481957482 
1409	 0.718014693916459 
1410	 0.72018797316432 
1411	 0.722363280791186 
1412	 0.724757244476824 
1413	 0.72671956821768 
1414	 0.728743546638364 
1415	 0.730224901608212 
1416	 0.73116536930857 
1417	 0.732772001479848 
1418	 0.73443929681451 
1419	 0.735893934987163 
1420	 0.737557044603439 
1421	 0.73902759791208 
1422	 0.740206531840513 
1423	 0.741553224506445 
1424	 0.743238123034391 
1425	 0.74443121397244 
1426	 0.745585551316132 
1427	 0.746379847821587 
1428	 0.74697727469475 
1429	 0.747362701628813 
1430	 0.747350189772493 
1431	 0.747592254595935 
1432	 0.747764148632979 
1433	 0.74801616301168 
1434	 0.748404238989465 
1435	 0.748798379214008 
1436	 0.749170881667163 
1437	 0.749570996809592 
1438	 0.749912877016626 
1439	 0.750478375572369 
1440	 0.751119836469729 
1441	 0.751808153201385 
1442	 0.752528396986433 
1443	 0.753444027387428 
1444	 0.754489105148618 
1445	 0.755458294908981 
1446	 0.756670200946069 
1447	 0.757990302159582 
1448	 0.759215018027128 
1449	 0.760433118826903 
1450	 0.761557361046941 
1451	 0.76272396782617 
1452	 0.763542817149271 
1453	 0.76420965862855 
1454	 0.764829997327145 
1455	 0.765412443700302 
1456	 0.765678097600899 
1457	 0.765860303444433 
1458	 0.765910839966317 
1459	 0.765738209414495 
1460	 0.765438270151021 
1461	 0.765004687566494 
1462	 0.764544464598055 
1463	 0.763643028967726 
1464	 0.763198040686545 
1465	 0.763075436964934 
1466	 0.762772558777156 
1467	 0.762455479939885 
1468	 0.762375714045292 
1469	 0.762260503609292 
1470	 0.762361008539116 
1471	 0.762874540875627 
1472	 0.763263045178584 
1473	 0.763553538821425 
1474	 0.76404685635744 
1475	 0.764778806918079 
1476	 0.76527950666234 
1477	 0.765667879436493 
1478	 0.766205107064425 
1479	 0.766690919027144 
1480	 0.767202958430697 
1481	 0.767795309263769 
1482	 0.768458200001442 
1483	 0.768979827890041 
1484	 0.769720914058986 
1485	 0.770818079379648 
1486	 0.771663712417964 
1487	 0.772401268412177 
1488	 0.773220163117773 
1489	 0.773905745704194 
1490	 0.77449423789487 
1491	 0.77524565223945 
1492	 0.775855936070988 
1493	 0.776380497055292 
1494	 0.776917234657183 
1495	 0.777356809067083 
1496	 0.777754826599775 
1497	 0.778081905317737 
1498	 0.778345989096543 
1499	 0.778603656110861 
1500	 0.778760130035755 
1501	 0.779071822562452 
1502	 0.779457049358273 
1503	 0.779767096117572 
1504	 0.780131961087481 
1505	 0.780443556775221 
1506	 0.78070201273225 
1507	 0.780922328923877 
1508	 0.781166936266723 
1509	 0.781312598009286 
1510	 0.781320516199985 
1511	 0.781427657978439 
1512	 0.781551978869171 
1513	 0.781652925400212 
1514	 0.781751565598955 
1515	 0.781884787545194 
1516	 0.781995107166983 
1517	 0.782151179336344 
1518	 0.782417893059992 
1519	 0.782565832023584 
1520	 0.782681167552145 
1521	 0.782772893080977 
1522	 0.782734046730812 
1523	 0.782842918785906 
1524	 0.783034070788614 
1525	 0.783172532916801 
1526	 0.783430310461473 
1527	 0.783531591006414 
1528	 0.783466588804031 
1529	 0.783502673451646 
1530	 0.783489263325773 
1531	 0.783545905811507 
1532	 0.783704506171909 
1533	 0.783822256808582 
1534	 0.783995940728007 
1535	 0.784067755201995 
1536	 0.784046678966175 
1537	 0.784079599115013 
1538	 0.784040280289597 
1539	 0.784076479309857 
1540	 0.784227988311679 
1541	 0.784309546540807 
1542	 0.784362312807481 
1543	 0.784438259542816 
1544	 0.784477949786281 
1545	 0.784563148320902 
1546	 0.784682414400816 
1547	 0.78482624007849 
1548	 0.785021291576446 
1549	 0.785192585273116 
1550	 0.785409418103141 
1551	 0.785567645024508 
1552	 0.785712802502394 
1553	 0.785791358467867 
1554	 0.785814352330727 
1555	 0.785801174071909 
1556	 0.785673028185405 
1557	 0.785602090784984 
1558	 0.785515596407813 
1559	 0.785459273791409 
1560	 0.785475894947398 
1561	 0.78545791305147 
1562	 0.785412009884594 
1563	 0.785395422708755 
1564	 0.785332691963288 
1565	 0.785351192218959 
1566	 0.785485296231568 
1567	 0.785546093847116 
1568	 0.785670502809563 
1569	 0.785883008329066 
1570	 0.785939070054924 
1571	 0.785935958929028 
1572	 0.785958437745255 
1573	 0.785896944522277 
1574	 0.785926066202215 
1575	 0.786014082384197 
1576	 0.786078254723534 
1577	 0.786167092266596 
1578	 0.786174884046 
1579	 0.786138803976703 
1580	 0.786173620541386 
1581	 0.786190690845566 
1582	 0.786201409252785 
1583	 0.78626759329589 
1584	 0.786298840009336 
1585	 0.786254061865854 
1586	 0.786301301131302 
1587	 0.786446653334669 
1588	 0.786457393498294 
1589	 0.786431685184695 
1590	 0.786396854684238 
1591	 0.786282610884221 
1592	 0.786242337305026 
1593	 0.786268294331638 
1594	 0.786171797095179 
1595	 0.785987001728858 
1596	 0.785944484121186 
1597	 0.785858357528335 
1598	 0.785914997697387 
1599	 0.786166767745928 
1600	 0.78629038444693 
1601	 0.786436881478719 
1602	 0.786487955949642 
1603	 0.786474193493588 
1604	 0.786476039798228 
1605	 0.786380134164362 
1606	 0.786432139248776 
1607	 0.786534037282807 
1608	 0.786695850690051 
1609	 0.787003273400919 
1610	 0.787123574469709 
1611	 0.787245502925321 
1612	 0.787254094971115 
1613	 0.787082921646067 
1614	 0.787057900982391 
1615	 0.787049462399711 
1616	 0.787022472146582 
1617	 0.787010084735349 
1618	 0.787036543511312 
1619	 0.787035965221898 
1620	 0.787120717652427 
1621	 0.787358424949449 
1622	 0.78738738645985 
1623	 0.787385118882791 
1624	 0.787297485963029 
1625	 0.787001839103818 
1626	 0.786929547610182 
1627	 0.786913952479707 
1628	 0.786885006826337 
1629	 0.786938827993501 
1630	 0.786976641828245 
1631	 0.787003645782028 
1632	 0.787014762639638 
1633	 0.787062850585618 
1634	 0.787075915938763 
1635	 0.787034777076677 
1636	 0.787004628186316 
1637	 0.787017382815852 
1638	 0.786937426805075 
1639	 0.786750773041513 
1640	 0.786706219362248 
1641	 0.78668696314288 
1642	 0.786660158055107 
1643	 0.786745851977567 
1644	 0.786680480890316 
1645	 0.786497904145202 
1646	 0.786408408304084 
1647	 0.78632443992443 
1648	 0.786179567868272 
1649	 0.786018101403267 
1650	 0.785944709249352 
1651	 0.78585049660563 
1652	 0.785807945458029 
1653	 0.785898241378383 
1654	 0.785826425862681 
1655	 0.785659687500158 
1656	 0.785549561013498 
1657	 0.785382373543204 
1658	 0.785358597716475 
1659	 0.785419184752178 
1660	 0.785379899101683 
1661	 0.785456047230878 
1662	 0.785492542386824 
1663	 0.785440023896555 
1664	 0.785440585625525 
1665	 0.78548869986269 
1666	 0.785535209385889 
1667	 0.785548384638157 
1668	 0.785612575620385 
1669	 0.785714453851404 
1670	 0.785886253652436 
1671	 0.786032171772327 
1672	 0.786038512349098 
1673	 0.786041373716284 
1674	 0.786057467013923 
1675	 0.785962516436168 
1676	 0.7858875969596 
1677	 0.785809192634206 
1678	 0.785544332657376 
1679	 0.785287705397224 
1680	 0.785158746117663 
1681	 0.784969148507532 
1682	 0.784771163531412 
1683	 0.784710387261297 
1684	 0.784672445635124 
1685	 0.784634188138703 
1686	 0.784523554692094 
1687	 0.784311293827175 
1688	 0.784089879355283 
1689	 0.783848897884535 
1690	 0.783603735764484 
1691	 0.783449096091986 
1692	 0.783274266951966 
1693	 0.783174183337149 
1694	 0.783278989393011 
1695	 0.783268130424644 
1696	 0.783257254490039 
1697	 0.78315632459261 
1698	 0.782939051368662 
1699	 0.782747400210757 
1700	 0.782485603650834 
1701	 0.782286041519813 
1702	 0.782047690350966 
1703	 0.781959810180829 
1704	 0.782050524547337 
1705	 0.782022385487788 
1706	 0.782034283593427 
1707	 0.782009927864619 
1708	 0.781874501370356 
1709	 0.78174540858892 
1710	 0.781674849860589 
1711	 0.781576338770709 
1712	 0.78137128727762 
1713	 0.781334054413978 
1714	 0.78141611213081 
1715	 0.781380443259646 
1716	 0.781424609250667 
1717	 0.781296643076649 
1718	 0.780951580838881 
1719	 0.780770896543438 
1720	 0.780619024687059 
1721	 0.780456777887044 
1722	 0.78035103973412 
1723	 0.780215063188371 
1724	 0.779998373183645 
1725	 0.779909795049868 
1726	 0.779914742517192 
1727	 0.779875140446404 
1728	 0.779873296875107 
1729	 0.779787518507935 
1730	 0.779659505120825 
1731	 0.779512170288323 
1732	 0.779504418742048 
1733	 0.77958677910409 
1734	 0.779661979028427 
1735	 0.779923946441018 
1736	 0.779936844137103 
1737	 0.779841636801366 
1738	 0.779634288645926 
1739	 0.779268552308066 
1740	 0.779116691447902 
1741	 0.778833500116942 
1742	 0.778596785186202 
1743	 0.778424983004409 
1744	 0.778026873170733 
1745	 0.778007431860552 
1746	 0.778067187019484 
1747	 0.778066110561543 
1748	 0.778353603808659 
1749	 0.778433684656343 
1750	 0.778456295160735 
1751	 0.77849361709839 
1752	 0.778358185464797 
1753	 0.7784501609928 
1754	 0.778506361288038 
1755	 0.778407037430664 
1756	 0.77844790391383 
1757	 0.77811843163411 
1758	 0.778004825337221 
1759	 0.777954927108118 
1760	 0.777889740061777 
1761	 0.778058934152271 
1762	 0.777967280430973 
1763	 0.777764206454681 
1764	 0.777616624160597 
1765	 0.777337911596658 
1766	 0.777032912574545 
1767	 0.776597613091892 
1768	 0.776426853262843 
1769	 0.776407801783075 
1770	 0.776302185993964 
1771	 0.776448389020567 
1772	 0.776247057791227 
1773	 0.775709214603257 
1774	 0.775300660869096 
1775	 0.774783513718051 
1776	 0.77414372233433 
1777	 0.773604038027698 
1778	 0.773390628363446 
1779	 0.773343916681788 
1780	 0.773246065538915 
1781	 0.77303829420618 
1782	 0.772758775111512 
1783	 0.772459687012397 
1784	 0.772170080475465 
1785	 0.772122956413379 
1786	 0.771697181253547 
1787	 0.770918686392032 
1788	 0.770093350450928 
1789	 0.768943083442758 
1790	 0.767794005724907 
1791	 0.766729078730614 
1792	 0.765721009795212 
1793	 0.764906718062436 
1794	 0.764181084857118 
1795	 0.763276670488485 
1796	 0.762317724155919 
1797	 0.761019249639344 
1798	 0.759510366989256 
1799	 0.758399943821463 
1800	 0.757314947099247 
1801	 0.747763442067408 
1802	 0.747804326153709 
1803	 0.74654679348308 
1804	 0.743616687595355 
1805	 0.742079159496731 
1806	 0.741159797364252 
1807	 0.739406532886815 
1808	 0.738127183157982 
1809	 0.736484962807193 
1810	 0.734309032030413 
1811	 0.729648266984012 
1812	 0.727803069818596 
1813	 0.728353049676004 
1814	 0.727020087159732 
1815	 0.726645352284635 
1816	 0.725261044685426 
1817	 0.721306119586444 
1818	 0.718547303873055 
1819	 0.716029585732959 
1820	 0.713967960832986 
1821	 0.711901024686367 
1822	 0.710751091757181 
1823	 0.709007944278243 
1824	 0.707286425539151 
1825	 0.705647622290959 
1826	 0.704601352301904 
1827	 0.702168770205508 
1828	 0.698887788892295 
1829	 0.691468864668416 
1830	 0.693881837927207 
1831	 0.713453105673203 
1832	 0.711556860999998 
1833	 0.70002090149926 
1834	 0.694070261803271 
1835	 0.643047924884537 
1836	 0.604533065034282 
1837	 0.636803947004595 
1838	 0.633084454256408 
1839	 0.614029988900388 
1840	 0.53557862701415 
1841	 0.552272346886182 
1842	 0.626482143056055 
1843	 0.648799793618891 
1844	 0.703529725863376 
1845	 0.727486797369248 
1846	 0.694305994458886 
1847	 0.686491525051651 
1848	 0.686353732118766 
1849	 0.713426860579521 
1850	 0.710406845725947 
1851	 0.689414588086555 
1852	 0.685846759594649 
1853	 0.677948130742264 
1854	 0.679028641590111 
1855	 0.693556368320056 
1856	 0.698329553841169 
1857	 0.68892378238883 
1858	 0.708044643066063 
1859	 0.707875555887953 
1860	 0.707241646417279 
1861	 0.704669168792868 
1862	 0.691118277528877 
1863	 0.690522091098638 
1864	 0.702841516859747 
1865	 0.698872889604247 
1866	 0.694692555755679 
1867	 0.681472463856556 
1868	 0.647216727573012 
1869	 0.637386550644502 
1870	 0.64387890306396 
1871	 0.683849935819635 
1872	 0.698930680837761 
1873	 0.718016096044785 
1874	 0.726954893962037 
1875	 0.742312557601444 
1876	 0.728633030175263 
1877	 0.696212389783083 
1878	 0.681575448059517 
1879	 0.684594830551291 
1880	 0.673071786168152 
1881	 0.676974239423915 
1882	 0.702443637089682 
1883	 0.708611641925932 
1884	 0.709989698801867 
1885	 0.708775321445967 
1886	 0.705291620999626 
1887	 0.698021412834979 
1888	 0.687794346605926 
1889	 0.682894796841279 
1890	 0.682137926251588 
1891	 0.686412666176297 
1892	 0.686872442324071 
1893	 0.691262448466529 
1894	 0.69273775150739 
1895	 0.689284584704293 
1896	 0.689646772806886 
1897	 0.694119084892627 
1898	 0.695898865776276 
1899	 0.692144103504029 
1900	 0.694213761779468 
1901	 0.697052946696648 
1902	 0.70357313983962 
1903	 0.698835741733751 
1904	 0.686484788110311 
1905	 0.683851727229451 
1906	 0.674141359355123 
1907	 0.671392255179247 
1908	 0.688795568544145 
1909	 0.698124955729699 
1910	 0.694792301842594 
1911	 0.693872969048111 
1912	 0.696765340280996 
1913	 0.69816288076636 
1914	 0.700882928012254 
1915	 0.708393391024837 
1916	 0.708718743638497 
1917	 0.706131409472829 
1918	 0.705362531521994 
1919	 0.702366287802309 
1920	 0.700689528114472 
1921	 0.69915003145828 
1922	 0.697985303163377 
1923	 0.6992438717023 
1924	 0.700547259467158 
1925	 0.702621451964625 
1926	 0.708831198983656 
1927	 0.712231177300456 
1928	 0.714184030237725 
1929	 0.717776308409923 
1930	 0.71864873620805 
1931	 0.71538718643087 
1932	 0.717983339772759 
1933	 0.721015061095133 
1934	 0.722679100342597 
1935	 0.72609911201008 
1936	 0.728717932720721 
1937	 0.728565464316494 
1938	 0.731041571962735 
1939	 0.735442496628683 
1940	 0.738654872487957 
1941	 0.742045646660376 
1942	 0.743150290572986 
1943	 0.743182654857781 
1944	 0.744608165241792 
1945	 0.74641474195788 
1946	 0.747400009174696 
1947	 0.748331996437894 
1948	 0.750031459830947 
1949	 0.750599243776678 
1950	 0.749550579648485 
1951	 0.750215213236348 
1952	 0.751124038840176 
1953	 0.751723872938844 
1954	 0.754487373255842 
1955	 0.756813800657316 
1956	 0.759190005126511 
1957	 0.762783473581536 
1958	 0.764850139546323 
1959	 0.765638579529732 
1960	 0.767143316714193 
1961	 0.768702062074148 
1962	 0.769243019938581 
1963	 0.770439036566489 
1964	 0.771438437626307 
1965	 0.772368571628858 
1966	 0.773271504490741 
1967	 0.773900301503933 
1968	 0.774713766768379 
1969	 0.77529846012853 
1970	 0.775867131379673 
1971	 0.776086450248589 
1972	 0.775980856968773 
1973	 0.776234179388027 
1974	 0.776453801588969 
1975	 0.776473026045072 
1976	 0.777265404238691 
1977	 0.77769740104297 
1978	 0.777891920063646 
1979	 0.778124089993643 
1980	 0.777888408670916 
1981	 0.777879485511221 
1982	 0.777950770234461 
1983	 0.778056247162232 
1984	 0.778135348799273 
1985	 0.77842829876917 
1986	 0.778765019268818 
1987	 0.779199708710363 
1988	 0.779349879659156 
1989	 0.779656974593968 
1990	 0.77967890041738 
1991	 0.779136470733091 
1992	 0.779371925309075 
1993	 0.779496575003392 
1994	 0.779476323826558 
1995	 0.779695196751965 
1996	 0.780376512082996 
1997	 0.780355958204961 
1998	 0.780717331635788 
1999	 0.781672529469757 
2000	 0.781814800007311 
2001	 0.782291972268355 
2002	 0.782677788244306 
2003	 0.782734568492171 
2004	 0.784187537762827 
2005	 0.785649039944997 
2006	 0.786323748939258 
2007	 0.786805037553588 
2008	 0.786675086767633 
2009	 0.785866071949183 
2010	 0.785561836321577 
2011	 0.785953832240631 
2012	 0.786333739136093 
2013	 0.786026656448921 
2014	 0.785660690634516 
2015	 0.785298954211727 
2016	 0.785167934217115 
2017	 0.785443885912119 
2018	 0.785755318295952 
2019	 0.785985965135429 
2020	 0.786276910741468 
2021	 0.786057820667473 
2022	 0.785816908932437 
2023	 0.785540738492501 
2024	 0.784684830717654 
2025	 0.784104157669618 
2026	 0.78392858097041 
2027	 0.783303441538515 
2028	 0.782894765135952 
2029	 0.783134051061822 
2030	 0.783016736632995 
2031	 0.783020277317198 
2032	 0.783118124589052 
2033	 0.78335960384698 
2034	 0.783374657163751 
2035	 0.783584135905067 
2036	 0.783599587611351 
2037	 0.783673334898168 
2038	 0.78361562068665 
2039	 0.783301463359539 
2040	 0.783267776055002 
2041	 0.783369730534092 
2042	 0.783527953768528 
2043	 0.78380874820674 
2044	 0.784022251326327 
2045	 0.784031368324295 
2046	 0.783903111209781 
2047	 0.783596684226426 
2048	 0.783292191397284 
2049	 0.783119299104067 
2050	 0.783146696843376 
2051	 0.783215265032451 
2052	 0.783230400819178 
2053	 0.783202425171716 
2054	 0.783077195247512 
2055	 0.783353395476168 
2056	 0.783569047834173 
2057	 0.78345933715818 
2058	 0.784075450201801 
2059	 0.784319126935737 
2060	 0.784375441000531 
2061	 0.783944492767102 
2062	 0.784058866890815 
2063	 0.783876411166704 
2064	 0.783900722712578 
2065	 0.784671776786231 
2066	 0.785164679065218 
2067	 0.785316783602705 
2068	 0.785295313840693 
2069	 0.78550057744537 
2070	 0.785577551943902 
2071	 0.785604999896794 
2072	 0.78570484920056 
2073	 0.785991174572557 
2074	 0.785403352466147 
2075	 0.785012187897222 
2076	 0.785073734644747 
2077	 0.784920148385257 
2078	 0.785212568114796 
2079	 0.785423847627652 
2080	 0.785465401430034 
2081	 0.785610112485282 
2082	 0.785642718912256 
2083	 0.785315984757156 
2084	 0.784948504765796 
2085	 0.784630541798648 
2086	 0.784361586075429 
2087	 0.784441127288816 
2088	 0.78512793200996 
2089	 0.785581975329987 
2090	 0.785422838831293 
2091	 0.785190434420993 
2092	 0.784876753581649 
2093	 0.784622872155824 
2094	 0.784682217820446 
2095	 0.785087938963516 
2096	 0.785110794052531 
2097	 0.784845840272879 
2098	 0.784655766035046 
2099	 0.784122372269745 
2100	 0.783684345177344 
2101	 0.783615756006405 
2102	 0.783601521665382 
2103	 0.78383450406709 
2104	 0.784063651301619 
2105	 0.784118933927955 
2106	 0.78420546890027 
2107	 0.784228014712981 
2108	 0.784132081039736 
2109	 0.783917012759834 
2110	 0.783688029186259 
2111	 0.783806933744179 
2112	 0.784248248523035 
2113	 0.784855490341562 
2114	 0.785324760128688 
2115	 0.785723280733326 
2116	 0.785955613511277 
2117	 0.785863862373283 
2118	 0.78537446511643 
2119	 0.785302118568434 
2120	 0.785211127353288 
2121	 0.784918706370606 
2122	 0.784907406292164 
2123	 0.784477367530985 
2124	 0.783737398117975 
2125	 0.783016512534296 
2126	 0.782197373932563 
2127	 0.781860619460369 
2128	 0.781908230508428 
2129	 0.78225480806533 
2130	 0.782990651702781 
2131	 0.783368239964161 
2132	 0.783421195084492 
2133	 0.783736825594585 
2134	 0.78376734432498 
2135	 0.783380833100426 
2136	 0.783475939757831 
2137	 0.784035573067709 
2138	 0.783950765389103 
2139	 0.78397771255816 
2140	 0.783956071747914 
2141	 0.783927938815916 
2142	 0.783501087540944 
2143	 0.782977695935654 
2144	 0.783546777662281 
2145	 0.783563508241054 
2146	 0.783115231985994 
2147	 0.78309335568321 
2148	 0.782704690161645 
2149	 0.78239256705196 
2150	 0.782536342137556 
2151	 0.782432952829827 
2152	 0.78231200501486 
2153	 0.782193943555908 
2154	 0.781924724512636 
2155	 0.781676991072856 
2156	 0.781661386473215 
2157	 0.781374765616541 
2158	 0.781515843035243 
2159	 0.781922874336114 
2160	 0.782065313130469 
2161	 0.782313065056808 
2162	 0.782785346736972 
2163	 0.782516600435846 
2164	 0.782045818794779 
2165	 0.782394647359723 
2166	 0.782249605054319 
2167	 0.782321067700983 
2168	 0.782340614835055 
2169	 0.782607141464011 
2170	 0.78242954527071 
2171	 0.781962959637323 
2172	 0.78146381538587 
2173	 0.781381153489751 
2174	 0.781434818836769 
2175	 0.781269445250722 
2176	 0.78103159820655 
2177	 0.780634548270725 
2178	 0.780237402750863 
2179	 0.780343972848252 
2180	 0.780534035802582 
2181	 0.780360826416419 
2182	 0.780520675811521 
2183	 0.780640749143607 
2184	 0.780539535922664 
2185	 0.780681219126645 
2186	 0.780594390505918 
2187	 0.780777133437085 
2188	 0.781354344206528 
2189	 0.781518446628722 
2190	 0.781629004680705 
2191	 0.781705590422658 
2192	 0.781564969819584 
2193	 0.780923729806296 
2194	 0.780983589727214 
2195	 0.781292294397273 
2196	 0.781104638140629 
2197	 0.781204156125115 
2198	 0.781526141658476 
2199	 0.781710852717211 
2200	 0.782161160254829 
2201	 0.782510568789878 
2202	 0.782452287333323 
2203	 0.782091105213752 
2204	 0.781623315955023 
2205	 0.781767748896137 
2206	 0.78212865845106 
2207	 0.782273106799816 
2208	 0.782160004725664 
2209	 0.781789945499047 
2210	 0.781772840043428 
2211	 0.781607670072719 
2212	 0.781357958856365 
2213	 0.782052869822012 
2214	 0.781938948475952 
2215	 0.781338551774809 
2216	 0.78147946372101 
2217	 0.781171287695651 
2218	 0.780822270380802 
2219	 0.780754121470526 
2220	 0.780508140505988 
2221	 0.780515409277656 
2222	 0.780420731065598 
2223	 0.780216161164274 
2224	 0.780231142733768 
2225	 0.779853154891926 
2226	 0.779877345350536 
2227	 0.77969123322853 
2228	 0.779002237925252 
2229	 0.779209178786749 
2230	 0.779205621618273 
2231	 0.779016279180881 
2232	 0.779033414940168 
2233	 0.778928360039716 
2234	 0.778473997528441 
2235	 0.778104929811113 
2236	 0.777839645336075 
2237	 0.7778310932647 
2238	 0.77739406331787 
2239	 0.777184585274791 
2240	 0.777520198055212 
2241	 0.777298085504572 
2242	 0.777335999092662 
2243	 0.777821525619595 
2244	 0.777785705643394 
2245	 0.77800844834848 
2246	 0.778406265383462 
2247	 0.777637364314293 
2248	 0.776846921763506 
2249	 0.77653157685481 
2250	 0.775824183014431 
2251	 0.775229635863907 
2252	 0.774543461147558 
2253	 0.773775082901919 
2254	 0.773204206949801 
2255	 0.772679175899519 
2256	 0.772660631347899 
2257	 0.77313926667063 
2258	 0.773596946487567 
2259	 0.773855787760862 
2260	 0.774183832303608 
2261	 0.774309333839113 
2262	 0.77408723043634 
2263	 0.773524370580011 
2264	 0.773603835468832 
2265	 0.77363116371776 
2266	 0.77299421913191 
2267	 0.772941350413578 
2268	 0.772940689511104 
2269	 0.772380268836938 
2270	 0.771740044264104 
2271	 0.771750155806542 
2272	 0.771439773086703 
2273	 0.771242196171756 
2274	 0.772072991487027 
2275	 0.771970227612961 
2276	 0.77194661329001 
2277	 0.772565721214518 
2278	 0.772867702434845 
2279	 0.773412435008797 
2280	 0.77364697885192 
2281	 0.77285161249356 
2282	 0.772757560912973 
2283	 0.773652947815182 
2284	 0.774165899550113 
2285	 0.774631945431891 
2286	 0.774570692033587 
2287	 0.773803201241395 
2288	 0.772068506606716 
2289	 0.77081454727943 
2290	 0.770811835154235 
2291	 0.770479513537639 
2292	 0.769660673163268 
2293	 0.770450712561725 
2294	 0.770602102001184 
2295	 0.770719881462278 
2296	 0.771903585315549 
2297	 0.771684708358704 
2298	 0.77168429903166 
2299	 0.77214963544998 
2300	 0.771931990779846 
2301	 0.772184608473579 
2302	 0.772401532292541 
2303	 0.772038424586211 
2304	 0.772080373990314 
2305	 0.772439172693875 
2306	 0.772104286970137 
2307	 0.771732181217275 
2308	 0.772357838841282 
2309	 0.773065853849045 
2310	 0.773745124075444 
2311	 0.774974555795187 
2312	 0.774642345729119 
2313	 0.772941476218186 
2314	 0.771955291892187 
2315	 0.770798208333206 
2316	 0.770525121430097 
2317	 0.771040899061203 
2318	 0.770818879711407 
2319	 0.770331490535 
2320	 0.769135634092328 
2321	 0.768970717287332 
2322	 0.769729443640246 
2323	 0.770522935463799 
2324	 0.771823698856878 
2325	 0.773083632505619 
2326	 0.773986019199798 
2327	 0.773563214045595 
2328	 0.773323771285188 
2329	 0.773214544473779 
2330	 0.772756766234406 
2331	 0.772835083492546 
2332	 0.772756234746924 
2333	 0.772894441979536 
2334	 0.772798435182326 
2335	 0.771436541775153 
2336	 0.769514508048856 
2337	 0.768145531886338 
2338	 0.767838205363359 
2339	 0.768784134859687 
2340	 0.769734651382839 
2341	 0.769776971205134 
2342	 0.769882051161572 
2343	 0.768878312046633 
2344	 0.767829487803233 
2345	 0.767605316394629 
2346	 0.766697551513752 
2347	 0.76733580299015 
2348	 0.768092389676924 
2349	 0.769401009714122 
2350	 0.772163514637565 
2351	 0.771985935577278 
2352	 0.771285040153375 
2353	 0.770856033067147 
2354	 0.769859741417081 
2355	 0.770959198630129 
2356	 0.772148169185437 
2357	 0.772240867010813 
2358	 0.77184443048016 
2359	 0.771710808117193 
2360	 0.771541941906692 
2361	 0.76955597152681 
2362	 0.768222270664592 
2363	 0.767478159794758 
2364	 0.767071674162004 
2365	 0.768502844427366 
2366	 0.769181882058178 
2367	 0.76833871727623 
2368	 0.767369207358475 
2369	 0.768221202270612 
2370	 0.770911170707337 
2371	 0.772666017853833 
2372	 0.773802768800926 
2373	 0.775545119675573 
2374	 0.774252640889337 
2375	 0.769509813950145 
2376	 0.767719222520309 
2377	 0.765162894114725 
2378	 0.764004401777661 
2379	 0.765775293720875 
2380	 0.76530141796912 
2381	 0.763075486379723 
2382	 0.761539217885356 
2383	 0.760054964544369 
2384	 0.759787236620051 
2385	 0.7606775939043 
2386	 0.761477867145118 
2387	 0.762540897053549 
2388	 0.762879209800543 
2389	 0.762186362749075 
2390	 0.762809036505479 
2391	 0.764597697041523 
2392	 0.76514298273235 
2393	 0.766560560911534 
2394	 0.767116620232897 
2395	 0.766155702127216 
2396	 0.766376267487078 
2397	 0.766542042394523 
2398	 0.765884261801632 
2399	 0.765205884535177 
2400	 0.763866357941974 
2401	 0.760496089376448 
2402	 0.761100098352615 
2403	 0.762102306344679 
2404	 0.762770976898679 
2405	 0.764661431231244 
2406	 0.764512540633984 
2407	 0.761820758583474 
2408	 0.760012934081584 
2409	 0.758367810160965 
2410	 0.757077178719114 
2411	 0.75769889666377 
2412	 0.759067693819083 
2413	 0.761045179855708 
2414	 0.76407431313888 
2415	 0.76655530018876 
2416	 0.765929321132769 
2417	 0.763956049514177 
2418	 0.761965105593315 
2419	 0.763721200129285 
2420	 0.767006285562242 
2421	 0.767711979089156 
2422	 0.770501606684352 
2423	 0.768069479449575 
2424	 0.762940300681299 
2425	 0.764326862986527 
2426	 0.763499007069801 
2427	 0.761246349335977 
2428	 0.762577381557691 
2429	 0.762900718593359 
2430	 0.762510851894634 
2431	 0.765603810357381 
2432	 0.770186356624817 
2433	 0.774906030548022 
2434	 0.775204542059232 
2435	 0.768616921143555 
2436	 0.767970215226993 
2437	 0.768279438360766 
2438	 0.76741635244829 
2439	 0.771490024354336 
2440	 0.772543766271309 
2441	 0.770280955709855 
2442	 0.767923256016839 
2443	 0.763627878238751 
2444	 0.762240732825623 
2445	 0.759123909980036 
2446	 0.759400200987671 
2447	 0.768944257483115 
2448	 0.770753422807528 
2449	 0.767448044772805 
2450	 0.76697146315816 
2451	 0.761167803764336 
2452	 0.759865400526598 
2453	 0.767596418173951 
2454	 0.766734595354079 
2455	 0.759845795427333 
2456	 0.75870180776084 
2457	 0.758865053399493 
2458	 0.758347468727941 
2459	 0.761040201462354 
2460	 0.760549239032531 
2461	 0.753268873585911 
2462	 0.749354403271341 
2463	 0.749163072142868 
2464	 0.746325603305842 
2465	 0.743953578774823 
2466	 0.740400347624507 
2467	 0.730738691304775 
2468	 0.729497984224883 
2469	 0.73308809163826 
2470	 0.735233246363547 
2471	 0.744127310910482 
2472	 0.74972449373094 
2473	 0.751434136624822 
2474	 0.754697911185911 
2475	 0.767053675806599 
2476	 0.756208688632765 
2477	 0.723252324859082 
2478	 0.712891711407754 
2479	 0.689296767427597 
2480	 0.685021659037617 
2481	 0.725548255757564 
2482	 0.726078251419298 
2483	 0.706347348945639 
2484	 0.709469999169214 
2485	 0.704825447821375 
2486	 0.69087800389321 
2487	 0.690615362823064 
2488	 0.670647573235147 
2489	 0.664355406628727 
2490	 0.709227390520239 
2491	 0.755369081340617 
2492	 0.752980509553375 
2493	 0.736407319753757 
2494	 0.775946870654223 
2495	 0.761942414927653 
2496	 0.763050166610235 
2497	 0.820641132325726 
2498	 0.750472415497593 
2499	 0.686715582321758 
2500	 0.681059067307953 
