Wavelength	ref00129.asd
350	 0.352629376294103 
351	 0.327611854352364 
352	 0.323786894017814 
353	 0.338553929732453 
354	 0.332726942183379 
355	 0.330275904131336 
356	 0.339987745733836 
357	 0.311333779727193 
358	 0.316814167309118 
359	 0.331113925077893 
360	 0.31711875172856 
361	 0.3286227380408 
362	 0.319206362638638 
363	 0.30173883651336 
364	 0.321678702438296 
365	 0.321947236060102 
366	 0.31478508419878 
367	 0.30829153324978 
368	 0.292770627446643 
369	 0.287271560787474 
370	 0.290104035509675 
371	 0.293310245818282 
372	 0.287022368203879 
373	 0.279365114281354 
374	 0.277123808910959 
375	 0.283161874824066 
376	 0.277483585822445 
377	 0.27192639360678 
378	 0.273190158285895 
379	 0.278418967574033 
380	 0.263778302391878 
381	 0.258266570524806 
382	 0.275567502096229 
383	 0.260809220406292 
384	 0.254065739297465 
385	 0.254404430354484 
386	 0.247833238046665 
387	 0.258876596576854 
388	 0.25636191846174 
389	 0.241672203673982 
390	 0.248127909962367 
391	 0.245816132742996 
392	 0.240430927580003 
393	 0.238499036154828 
394	 0.234398762008372 
395	 0.234812250389731 
396	 0.234476135214703 
397	 0.228251562910045 
398	 0.23175440033249 
399	 0.232152475418191 
400	 0.226714365817816 
401	 0.222156733606941 
402	 0.225085401670127 
403	 0.226887110482621 
404	 0.222789522522644 
405	 0.218904828515107 
406	 0.223883636855739 
407	 0.225383281576734 
408	 0.212211535279157 
409	 0.215562188286085 
410	 0.220707282784601 
411	 0.221671618192176 
412	 0.221534557256253 
413	 0.215305993499977 
414	 0.21169929180717 
415	 0.214511567207809 
416	 0.213677903246903 
417	 0.214728093819354 
418	 0.215026291775024 
419	 0.211483960813584 
420	 0.211493343452281 
421	 0.211131689551611 
422	 0.210302745801994 
423	 0.212264853711041 
424	 0.214057455475051 
425	 0.213627359536962 
426	 0.21082403031293 
427	 0.208295243107144 
428	 0.211600644599434 
429	 0.214823177124012 
430	 0.211345822826632 
431	 0.212846000200535 
432	 0.213236107489303 
433	 0.211807354771122 
434	 0.212705657735368 
435	 0.212234104940867 
436	 0.212207842790001 
437	 0.213286037848521 
438	 0.211897891675492 
439	 0.211689952195085 
440	 0.212165870566195 
441	 0.211919555348637 
442	 0.213000465885089 
443	 0.2127183052906 
444	 0.211378986104573 
445	 0.212036552912334 
446	 0.211417471266633 
447	 0.211124191457924 
448	 0.212328750170055 
449	 0.213488207386857 
450	 0.212118145110138 
451	 0.210070555226356 
452	 0.210409610804857 
453	 0.210922252602228 
454	 0.211650670341875 
455	 0.212203186039685 
456	 0.211548891371676 
457	 0.211121982115011 
458	 0.210356729278568 
459	 0.208916416011501 
460	 0.208456685556623 
461	 0.208022783077855 
462	 0.207368392026943 
463	 0.206690137178918 
464	 0.206522689762286 
465	 0.206154234496487 
466	 0.205497987783652 
467	 0.205577783031298 
468	 0.204868196592925 
469	 0.204116341643851 
470	 0.204046350928578 
471	 0.202720366222709 
472	 0.20207758637438 
473	 0.202630458317335 
474	 0.203593511922828 
475	 0.202235436502613 
476	 0.200926528459557 
477	 0.20080492957046 
478	 0.199289930618819 
479	 0.199602800863967 
480	 0.200552051329751 
481	 0.199966295726143 
482	 0.198587204183932 
483	 0.198200834769745 
484	 0.199017562818263 
485	 0.199625195934563 
486	 0.199790413137262 
487	 0.19869559209416 
488	 0.196760775307589 
489	 0.197777440299648 
490	 0.196966933324656 
491	 0.196003704511629 
492	 0.198221898135677 
493	 0.19896558394796 
494	 0.199209959075987 
495	 0.199869913653353 
496	 0.20123758719733 
497	 0.202453262289209 
498	 0.204054283297773 
499	 0.206365294897947 
500	 0.20787315545134 
501	 0.209883978847745 
502	 0.212366641389178 
503	 0.214587999324103 
504	 0.217331064641874 
505	 0.220130229802946 
506	 0.223033172607339 
507	 0.227157623203395 
508	 0.231817645488064 
509	 0.236791642049638 
510	 0.242015866553119 
511	 0.24738501842065 
512	 0.253380223799538 
513	 0.259543345524905 
514	 0.264919171947903 
515	 0.272675132529933 
516	 0.282007813630759 
517	 0.291266866920351 
518	 0.298557774848287 
519	 0.306127346787522 
520	 0.314763818057264 
521	 0.324130056265845 
522	 0.330864944909287 
523	 0.338723029697344 
524	 0.348041458351495 
525	 0.354893213886908 
526	 0.363112017973377 
527	 0.371467424739515 
528	 0.378407610418966 
529	 0.384709974651611 
530	 0.391004809423165 
531	 0.396984424944635 
532	 0.402064595196897 
533	 0.407963973962162 
534	 0.413316887669331 
535	 0.417118995373534 
536	 0.419404899292879 
537	 0.422679906611735 
538	 0.426541576411764 
539	 0.429724884202642 
540	 0.431536841407922 
541	 0.433795724712546 
542	 0.435857672140531 
543	 0.435316287366619 
544	 0.437046545777427 
545	 0.439215316035153 
546	 0.440280955270976 
547	 0.441934518310101 
548	 0.443772788367897 
549	 0.445073483829107 
550	 0.445161311561577 
551	 0.444714526767562 
552	 0.444126297472708 
553	 0.443467085036286 
554	 0.442463099129232 
555	 0.439955711080774 
556	 0.437139638268449 
557	 0.43496964162702 
558	 0.43171269691031 
559	 0.428145629318257 
560	 0.424351447364903 
561	 0.419984547990973 
562	 0.415411643610562 
563	 0.410389021094127 
564	 0.405028599523345 
565	 0.400221660473491 
566	 0.395148232856351 
567	 0.389520750765536 
568	 0.383378986312046 
569	 0.377422646654705 
570	 0.370866676945033 
571	 0.364240497639431 
572	 0.35913894870461 
573	 0.352971075341515 
574	 0.347473183895684 
575	 0.343539789954436 
576	 0.337965239896294 
577	 0.333003700780161 
578	 0.32871306256424 
579	 0.324327245381809 
580	 0.321187206975999 
581	 0.317859441731282 
582	 0.313969373361189 
583	 0.31081737822275 
584	 0.3071410081727 
585	 0.303843565825601 
586	 0.301709884597177 
587	 0.298926874508474 
588	 0.296446431792378 
589	 0.294075369700999 
590	 0.290956455541693 
591	 0.288355254466944 
592	 0.286728060666763 
593	 0.285654654653698 
594	 0.283564169210121 
595	 0.281470166306817 
596	 0.279865255901005 
597	 0.278785923616748 
598	 0.276888383908285 
599	 0.275240151427326 
600	 0.274106850602914 
601	 0.272848286898908 
602	 0.270998570354355 
603	 0.26874282600494 
604	 0.26647333515861 
605	 0.264756435016897 
606	 0.262343797636378 
607	 0.259516135029297 
608	 0.257167296326099 
609	 0.254530281081062 
610	 0.251633270721504 
611	 0.248638773313581 
612	 0.245762362771707 
613	 0.243168415890643 
614	 0.240513337336703 
615	 0.237539269503296 
616	 0.2347981182448 
617	 0.232002524391061 
618	 0.229549357636029 
619	 0.228066068500126 
620	 0.225849683722491 
621	 0.223723525282577 
622	 0.222260763319111 
623	 0.220909670557165 
624	 0.219828239959247 
625	 0.218432071118624 
626	 0.21648179948789 
627	 0.216700638791817 
628	 0.216392487550752 
629	 0.215136426340442 
630	 0.214846233209543 
631	 0.214227351052819 
632	 0.213128329557163 
633	 0.211666016721674 
634	 0.209995070752617 
635	 0.208534094199519 
636	 0.207112491740361 
637	 0.205268862344465 
638	 0.202713110313782 
639	 0.199692253388855 
640	 0.196563120135966 
641	 0.193824901320064 
642	 0.190568158005771 
643	 0.18719573909349 
644	 0.184207868523178 
645	 0.181451454214902 
646	 0.178499659494573 
647	 0.175630063453041 
648	 0.173461478798383 
649	 0.171323399386853 
650	 0.168822942414202 
651	 0.166411842693917 
652	 0.165687832672389 
653	 0.164266045506457 
654	 0.162622235222202 
655	 0.161618931996171 
656	 0.160085596226538 
657	 0.158289924331833 
658	 0.156324025737301 
659	 0.153855245421737 
660	 0.151387853802209 
661	 0.149177377110401 
662	 0.147164277841729 
663	 0.144559569396713 
664	 0.142162577063445 
665	 0.139819377388292 
666	 0.137326645648444 
667	 0.136020289290502 
668	 0.134642946784791 
669	 0.133094946046162 
670	 0.13232275451201 
671	 0.131015017349254 
672	 0.129883098764976 
673	 0.129401511067508 
674	 0.128590708266156 
675	 0.127994331992709 
676	 0.128110275482074 
677	 0.129007586428839 
678	 0.128426627409021 
679	 0.128358295537074 
680	 0.129299079459154 
681	 0.130003527384725 
682	 0.132154774104638 
683	 0.134758036231785 
684	 0.137071603024647 
685	 0.140291938995204 
686	 0.144967323248597 
687	 0.151144523798596 
688	 0.158038716579576 
689	 0.166153970400306 
690	 0.174922135483035 
691	 0.184626213654618 
692	 0.195838192626964 
693	 0.208062325338845 
694	 0.221979795495439 
695	 0.237829027754263 
696	 0.25435120901602 
697	 0.271672672726154 
698	 0.289591894293693 
699	 0.307747263669431 
700	 0.326648947207512 
701	 0.346200803079957 
702	 0.366174425096484 
703	 0.386318954695147 
704	 0.406056413385168 
705	 0.425572577365618 
706	 0.445263471803674 
707	 0.465017052064445 
708	 0.485149984605491 
709	 0.505504658752419 
710	 0.525582138761555 
711	 0.54559137850501 
712	 0.566270557647782 
713	 0.58743647412255 
714	 0.607950515490271 
715	 0.62797040329854 
716	 0.647228747890472 
717	 0.666370893444766 
718	 0.686546121509184 
719	 0.709425734239216 
720	 0.734531109474896 
721	 0.759881287382399 
722	 0.783174635303745 
723	 0.804203664115915 
724	 0.825074402701219 
725	 0.847777326235005 
726	 0.870108896283686 
727	 0.891924839630584 
728	 0.914007835928607 
729	 0.936666155086691 
730	 0.958099215833284 
731	 0.979106964409264 
732	 1.00104378715199 
733	 1.02160730798496 
734	 1.04026028866346 
735	 1.05755813440431 
736	 1.07447415275562 
737	 1.09082180684814 
738	 1.10589513521662 
739	 1.11985709246867 
740	 1.13423764368623 
741	 1.14793512270347 
742	 1.16023566595281 
743	 1.17076152493864 
744	 1.18047974214248 
745	 1.18916803605074 
746	 1.19709641299988 
747	 1.20477725887019 
748	 1.21095129537483 
749	 1.21642115172503 
750	 1.22174229929887 
751	 1.22661056711174 
752	 1.23017590313814 
753	 1.23341270542951 
754	 1.23702277576353 
755	 1.2388142335525 
756	 1.24045635292781 
757	 1.24178805972577 
758	 1.2419274371091 
759	 1.24389291790191 
760	 1.24659486083542 
761	 1.24791237095807 
762	 1.24613636588801 
763	 1.24611463984868 
764	 1.24567726879552 
765	 1.24384872039169 
766	 1.24445461252598 
767	 1.24346439043603 
768	 1.24188184296058 
769	 1.24141741481891 
770	 1.24036520665613 
771	 1.239017160784 
772	 1.2378247775541 
773	 1.23712972524729 
774	 1.23495385039301 
775	 1.23348109403792 
776	 1.23331773218615 
777	 1.2314096570439 
778	 1.22917040771287 
779	 1.22736006846999 
780	 1.22625165202113 
781	 1.22502285373861 
782	 1.22353930568895 
783	 1.22202350883892 
784	 1.22072714958891 
785	 1.21865251707238 
786	 1.21638727179083 
787	 1.21404855610725 
788	 1.21119105691542 
789	 1.20888534961003 
790	 1.20710269313131 
791	 1.2056804168588 
792	 1.20472019732686 
793	 1.20354929330597 
794	 1.20210486532742 
795	 1.20040158400328 
796	 1.19766877469259 
797	 1.19582945683646 
798	 1.19493497296244 
799	 1.19383933665525 
800	 1.19185372238512 
801	 1.1898201610481 
802	 1.18825072959325 
803	 1.18702636018853 
804	 1.18593826026229 
805	 1.1845511951916 
806	 1.18293783370726 
807	 1.18234107972474 
808	 1.17994937782213 
809	 1.17719688479348 
810	 1.17564960778073 
811	 1.1718184849554 
812	 1.16746271596369 
813	 1.1630594600226 
814	 1.15843228991631 
815	 1.15428980709651 
816	 1.15142123680573 
817	 1.14998589428982 
818	 1.14936543399786 
819	 1.14913596253212 
820	 1.14944902713095 
821	 1.14965384401037 
822	 1.14758719527217 
823	 1.14584930384124 
824	 1.14463574808871 
825	 1.14378131044386 
826	 1.14422900693499 
827	 1.14347759548365 
828	 1.14181527485271 
829	 1.14046495785404 
830	 1.1382196929971 
831	 1.13707968085676 
832	 1.13692753175873 
833	 1.13617694499959 
834	 1.13595956600137 
835	 1.13581327285719 
836	 1.13543027652715 
837	 1.13491908096318 
838	 1.13492161964563 
839	 1.13497814052033 
840	 1.13418167313272 
841	 1.13108325883072 
842	 1.13078689204081 
843	 1.13099582234253 
844	 1.12894840888395 
845	 1.12798727621067 
846	 1.1276735386448 
847	 1.127085679065 
848	 1.12548833060472 
849	 1.12460140531927 
850	 1.12290454987377 
851	 1.12078944896391 
852	 1.12002278056915 
853	 1.12051116260926 
854	 1.11953192727507 
855	 1.1167393425788 
856	 1.11476450666106 
857	 1.11423262459427 
858	 1.1135181080444 
859	 1.1119141989059 
860	 1.1107538362021 
861	 1.10948251291708 
862	 1.10881754730433 
863	 1.10890446149515 
864	 1.10778828558617 
865	 1.10632022824951 
866	 1.10556295417856 
867	 1.10564745933724 
868	 1.10294417500265 
869	 1.10064833951641 
870	 1.09957776808728 
871	 1.099129538611 
872	 1.09856697334617 
873	 1.0977930187307 
874	 1.0966065060697 
875	 1.09478508651902 
876	 1.09223422620762 
877	 1.09131855615301 
878	 1.09145280325297 
879	 1.0893660552994 
880	 1.08812665298127 
881	 1.08707141589568 
882	 1.08563360751146 
883	 1.08411771750885 
884	 1.08287463727684 
885	 1.08142213058682 
886	 1.07979138307712 
887	 1.07923026733413 
888	 1.07811563901716 
889	 1.07626286813439 
890	 1.07391334255507 
891	 1.07134665725785 
892	 1.06810977522148 
893	 1.06462443976982 
894	 1.06134151983637 
895	 1.05765136961574 
896	 1.05537247981772 
897	 1.05347579528802 
898	 1.05026101894927 
899	 1.0469761321811 
900	 1.04598570138451 
901	 1.045577295297 
902	 1.04328807931345 
903	 1.0451592993265 
904	 1.04347585644821 
905	 1.04002902445631 
906	 1.041263133636 
907	 1.04039654600067 
908	 1.03691799832678 
909	 1.0327806568738 
910	 1.03107213282439 
911	 1.02989726996426 
912	 1.02874389350809 
913	 1.02668598004476 
914	 1.0229892078822 
915	 1.02294162818811 
916	 1.02210836958192 
917	 1.01979423404201 
918	 1.0203966092667 
919	 1.02032126462292 
920	 1.02059131045181 
921	 1.0208656098605 
922	 1.01859469792639 
923	 1.0177421162619 
924	 1.01514043381495 
925	 1.00997201445388 
926	 1.00666931472642 
927	 0.99987486969055 
928	 0.994309197726699 
929	 0.991503603361459 
930	 0.983019432407016 
931	 0.977405986740287 
932	 0.970530270819221 
933	 0.959917807347391 
934	 0.954023736389568 
935	 0.951850855097589 
936	 0.948301912342588 
937	 0.943311114491365 
938	 0.947468866057144 
939	 0.946163560792766 
940	 0.946103055062448 
941	 0.949814396049381 
942	 0.943162399068744 
943	 0.941165664638692 
944	 0.941449458588798 
945	 0.939032611138026 
946	 0.933355232075067 
947	 0.929473432066448 
948	 0.928176183019365 
949	 0.92753153580049 
950	 0.923028034432936 
951	 0.923240621932329 
952	 0.922155284882856 
953	 0.915814203846872 
954	 0.911906618007028 
955	 0.909441353441978 
956	 0.908365148157227 
957	 0.908226647744245 
958	 0.907829148199435 
959	 0.905337400235483 
960	 0.904268676808304 
961	 0.905705159310034 
962	 0.90423655723152 
963	 0.909094738490465 
964	 0.910161382734625 
965	 0.904311802039847 
966	 0.906239689901779 
967	 0.907858418284183 
968	 0.90859288430283 
969	 0.907961457657636 
970	 0.903874082472928 
971	 0.908687168200038 
972	 0.907740037651453 
973	 0.899529537829632 
974	 0.906584590479665 
975	 0.903481005502664 
976	 0.900797212901018 
977	 0.903236738169466 
978	 0.900538219641374 
979	 0.901887464794384 
980	 0.906173414673301 
981	 0.908712983472215 
982	 0.904544861612223 
983	 0.903408346721463 
984	 0.904433959926194 
985	 0.906619455463275 
986	 0.909775064208092 
987	 0.911639368118984 
988	 0.908180894427557 
989	 0.904113070581542 
990	 0.908020659300706 
991	 0.910193894642726 
992	 0.909060833958767 
993	 0.909793705212973 
994	 0.917098130756857 
995	 0.913669482957976 
996	 0.911048015839286 
997	 0.91111741298906 
998	 0.910992208659435 
999	 0.914018000104442 
1000	 0.909999144881829 
1001	 0.928106034419217 
1002	 0.9284134859629 
1003	 0.928941623666626 
1004	 0.929398453774055 
1005	 0.929995150616743 
1006	 0.931180944227348 
1007	 0.931885984660919 
1008	 0.932333212379872 
1009	 0.932627541210166 
1010	 0.932922196230484 
1011	 0.932824245719498 
1012	 0.932354044363101 
1013	 0.932702331289079 
1014	 0.93323065877964 
1015	 0.934134208316533 
1016	 0.934942148653961 
1017	 0.934919626543615 
1018	 0.935412438781512 
1019	 0.935728166563247 
1020	 0.936335463896354 
1021	 0.937698249412556 
1022	 0.938467906995827 
1023	 0.939181689246876 
1024	 0.939269021803753 
1025	 0.939176737175401 
1026	 0.939069331032502 
1027	 0.939489481970544 
1028	 0.940320859856476 
1029	 0.94086782274735 
1030	 0.940935220209817 
1031	 0.940892780598538 
1032	 0.940688301231894 
1033	 0.940562019685137 
1034	 0.940490193771355 
1035	 0.940715002956965 
1036	 0.940953025650724 
1037	 0.94117798739612 
1038	 0.941610275656127 
1039	 0.942310106803536 
1040	 0.942236369514519 
1041	 0.94187984042741 
1042	 0.941768644597737 
1043	 0.941755982096532 
1044	 0.94192652863403 
1045	 0.942281772349934 
1046	 0.942304399121009 
1047	 0.941696132969121 
1048	 0.94108166998048 
1049	 0.94130776321339 
1050	 0.941442920716935 
1051	 0.94186394987761 
1052	 0.941946408190382 
1053	 0.942256326841464 
1054	 0.94207356545211 
1055	 0.941891068442146 
1056	 0.941882858982006 
1057	 0.941269576351904 
1058	 0.941105648658429 
1059	 0.94093615593197 
1060	 0.940360570310386 
1061	 0.940495874697498 
1062	 0.940651200912953 
1063	 0.940381568241492 
1064	 0.940682875404733 
1065	 0.940544554225592 
1066	 0.940322651423028 
1067	 0.939579360570683 
1068	 0.939467689439801 
1069	 0.939231063144294 
1070	 0.939198187650653 
1071	 0.939465126018347 
1072	 0.938742515410104 
1073	 0.93766863279548 
1074	 0.937184007803142 
1075	 0.936550409805626 
1076	 0.935781847819184 
1077	 0.93550556262681 
1078	 0.934844345108023 
1079	 0.933876452024626 
1080	 0.933411175774139 
1081	 0.932634479636775 
1082	 0.931656126945812 
1083	 0.930434145562036 
1084	 0.929685123421494 
1085	 0.929059437839604 
1086	 0.928169830865557 
1087	 0.927413221085871 
1088	 0.926716643379518 
1089	 0.925150951554722 
1090	 0.923268654942757 
1091	 0.921900306061885 
1092	 0.92034659200493 
1093	 0.918641301894162 
1094	 0.917089661078538 
1095	 0.91514881988417 
1096	 0.913453917164127 
1097	 0.911857801708271 
1098	 0.909983347864076 
1099	 0.908055327473606 
1100	 0.906361555508184 
1101	 0.904110606043148 
1102	 0.901774923823172 
1103	 0.899783575779469 
1104	 0.897567123630761 
1105	 0.895314832965981 
1106	 0.892720251744805 
1107	 0.890176860240174 
1108	 0.887747122275168 
1109	 0.885037450574866 
1110	 0.882076037796356 
1111	 0.878358951950169 
1112	 0.87336282615307 
1113	 0.868817109738073 
1114	 0.863623394092083 
1115	 0.858435539526313 
1116	 0.85340051879747 
1117	 0.847883577170645 
1118	 0.841922099947829 
1119	 0.835449747640918 
1120	 0.82911377985128 
1121	 0.824074494297756 
1122	 0.81953994291137 
1123	 0.81544694061815 
1124	 0.812491735341841 
1125	 0.809464827081251 
1126	 0.806631541826742 
1127	 0.804624746627628 
1128	 0.802087338729288 
1129	 0.799483184380302 
1130	 0.797156750084762 
1131	 0.795034671414542 
1132	 0.792645911046845 
1133	 0.790506937909878 
1134	 0.788009022415045 
1135	 0.785361907844954 
1136	 0.782176127621744 
1137	 0.778555623246441 
1138	 0.775111717894844 
1139	 0.771011653240966 
1140	 0.766307877132801 
1141	 0.761681251845759 
1142	 0.756762146853015 
1143	 0.751649229055069 
1144	 0.746068123770908 
1145	 0.740859773314615 
1146	 0.735484398102977 
1147	 0.730533200097127 
1148	 0.725360937349017 
1149	 0.721491034621933 
1150	 0.718597560043525 
1151	 0.715902617565669 
1152	 0.71381724117516 
1153	 0.712660881567303 
1154	 0.711591841203 
1155	 0.710373907811597 
1156	 0.709548532113907 
1157	 0.709217420777249 
1158	 0.708860507089088 
1159	 0.708248266825489 
1160	 0.708038321242456 
1161	 0.708271825216539 
1162	 0.708070062831067 
1163	 0.70796249426811 
1164	 0.707575794583326 
1165	 0.706734949373142 
1166	 0.706116316715748 
1167	 0.705574876011795 
1168	 0.704960189479964 
1169	 0.704349803605519 
1170	 0.703714950185175 
1171	 0.70290454497815 
1172	 0.702039275785866 
1173	 0.701605291916518 
1174	 0.701149777515161 
1175	 0.700612565512832 
1176	 0.699898552792004 
1177	 0.698942712833172 
1178	 0.697527801185707 
1179	 0.696362896753893 
1180	 0.69500603829396 
1181	 0.694044157446173 
1182	 0.693365200483662 
1183	 0.692461307234427 
1184	 0.691595839405678 
1185	 0.690855752290371 
1186	 0.690019008802643 
1187	 0.689272090415956 
1188	 0.688742294864675 
1189	 0.688299145449093 
1190	 0.6874082298211 
1191	 0.686843769261621 
1192	 0.686307721171557 
1193	 0.685525087354373 
1194	 0.685094567668722 
1195	 0.684894813403774 
1196	 0.684479191740345 
1197	 0.684170878944113 
1198	 0.683845198551445 
1199	 0.683304982641322 
1200	 0.682970083144398 
1201	 0.682784772301019 
1202	 0.682560472077268 
1203	 0.682360406099202 
1204	 0.682245380441986 
1205	 0.682046216518683 
1206	 0.682128279481329 
1207	 0.682464377430159 
1208	 0.682749286323037 
1209	 0.683145671315667 
1210	 0.683683915097707 
1211	 0.684093310516678 
1212	 0.684252098657626 
1213	 0.684661162125853 
1214	 0.685002009028097 
1215	 0.685720406679709 
1216	 0.686738651445398 
1217	 0.687671308835529 
1218	 0.688911509516123 
1219	 0.68982718545938 
1220	 0.690417419891593 
1221	 0.69136360220265 
1222	 0.692457972562997 
1223	 0.693441085548629 
1224	 0.694750572927777 
1225	 0.695664409830224 
1226	 0.696089167244075 
1227	 0.696790970365963 
1228	 0.69747755974875 
1229	 0.698174796729847 
1230	 0.698995456059694 
1231	 0.700061105211579 
1232	 0.700922180908642 
1233	 0.701788363812422 
1234	 0.702517122550137 
1235	 0.703180909388961 
1236	 0.703774442187671 
1237	 0.704204900598003 
1238	 0.704737679212435 
1239	 0.705285940174444 
1240	 0.705787343155195 
1241	 0.706358569701151 
1242	 0.706783033448901 
1243	 0.70705882747286 
1244	 0.707394166831986 
1245	 0.707774075717564 
1246	 0.708000279230914 
1247	 0.708075357828675 
1248	 0.708271256644178 
1249	 0.708361112539958 
1250	 0.708518974535588 
1251	 0.708897776452798 
1252	 0.709202528906356 
1253	 0.709348424484262 
1254	 0.709393688438231 
1255	 0.709440899771183 
1256	 0.709388601016963 
1257	 0.709313637373853 
1258	 0.709266733278486 
1259	 0.709062006308543 
1260	 0.708601684449349 
1261	 0.708381200056293 
1262	 0.708278643694857 
1263	 0.708006501252407 
1264	 0.707673266423487 
1265	 0.707488412607456 
1266	 0.707258676368767 
1267	 0.707027126932556 
1268	 0.70717521487554 
1269	 0.70694211321513 
1270	 0.706322030585766 
1271	 0.705837057075701 
1272	 0.705261571099699 
1273	 0.704671191588512 
1274	 0.704208557823452 
1275	 0.703926325925224 
1276	 0.703394924152587 
1277	 0.702735807213528 
1278	 0.702269999000396 
1279	 0.701832475348967 
1280	 0.701276876153356 
1281	 0.700966203479276 
1282	 0.700211032560096 
1283	 0.699055474738387 
1284	 0.698050295290866 
1285	 0.696915259925523 
1286	 0.695826627491847 
1287	 0.694834085000514 
1288	 0.693692424041591 
1289	 0.692430960609957 
1290	 0.691192101842624 
1291	 0.690022346701582 
1292	 0.688613642418299 
1293	 0.687102901739096 
1294	 0.685491968105491 
1295	 0.683738487061715 
1296	 0.681731221219246 
1297	 0.679746715962716 
1298	 0.677665950958742 
1299	 0.675643598184075 
1300	 0.673589237276072 
1301	 0.671396027763457 
1302	 0.669308237194564 
1303	 0.666810283575308 
1304	 0.663813294109058 
1305	 0.661205965159587 
1306	 0.658653324077104 
1307	 0.655904891560946 
1308	 0.653337807340543 
1309	 0.650455548430784 
1310	 0.64702490360816 
1311	 0.643952572815779 
1312	 0.641225932562538 
1313	 0.638018705589874 
1314	 0.63459567317118 
1315	 0.631251845826538 
1316	 0.627592746113265 
1317	 0.624025230551618 
1318	 0.620789974545701 
1319	 0.617257835282988 
1320	 0.613437918935308 
1321	 0.609567589596466 
1322	 0.605620750976769 
1323	 0.601455379100542 
1324	 0.59732682594215 
1325	 0.59307456241218 
1326	 0.588794180440483 
1327	 0.584433371725884 
1328	 0.579910841696681 
1329	 0.575199645179553 
1330	 0.570538928028276 
1331	 0.565774581481664 
1332	 0.561033039500462 
1333	 0.556228831153313 
1334	 0.551787122511759 
1335	 0.547451266154909 
1336	 0.543322619612642 
1337	 0.539603249979487 
1338	 0.535770023364538 
1339	 0.531661063457994 
1340	 0.527788829300775 
1341	 0.523827404524867 
1342	 0.519775248607497 
1343	 0.515219805878845 
1344	 0.510817851282641 
1345	 0.506131639046007 
1346	 0.500677025491904 
1347	 0.495397647234596 
1348	 0.49051777264249 
1349	 0.484515325061374 
1350	 0.477619715053342 
1351	 0.470360493650651 
1352	 0.461957455419144 
1353	 0.45360166522246 
1354	 0.448968475852973 
1355	 0.440079336574367 
1356	 0.4344467378256 
1357	 0.423911122116195 
1358	 0.41433540569755 
1359	 0.396410005174745 
1360	 0.376047571779238 
1361	 0.358000762318623 
1362	 0.368881866512348 
1363	 0.360429151413314 
1364	 0.382276814252694 
1365	 0.38361251267283 
1366	 0.342395150267522 
1367	 0.332997907921808 
1368	 0.355220783749839 
1369	 0.349071468937382 
1370	 0.337389682917497 
1371	 0.33080012358096 
1372	 0.310481949933634 
1373	 0.303679401324459 
1374	 0.311529225576815 
1375	 0.311157192803281 
1376	 0.297112789734974 
1377	 0.289336864924105 
1378	 0.28580550410934 
1379	 0.278355289184217 
1380	 0.272717016424955 
1381	 0.276792214710039 
1382	 0.27399135353336 
1383	 0.266841690614863 
1384	 0.255580030161808 
1385	 0.244668312215975 
1386	 0.235127290653117 
1387	 0.216128865351518 
1388	 0.213135025614763 
1389	 0.226311900039513 
1390	 0.221524308802256 
1391	 0.209722738280698 
1392	 0.206649056981129 
1393	 0.200698442892848 
1394	 0.195400649789731 
1395	 0.198521552158528 
1396	 0.196098382152553 
1397	 0.186474425410009 
1398	 0.180392882082399 
1399	 0.17676077814987 
1400	 0.172118204415247 
1401	 0.165486496854149 
1402	 0.161592343552572 
1403	 0.161618692526667 
1404	 0.158043625077709 
1405	 0.152686570114606 
1406	 0.149656593933398 
1407	 0.145863048976072 
1408	 0.142452900787821 
1409	 0.142808579727805 
1410	 0.142384548430679 
1411	 0.141402903202253 
1412	 0.140149725763537 
1413	 0.138835135466932 
1414	 0.137545510953351 
1415	 0.135799950448428 
1416	 0.13333347296039 
1417	 0.132552972699565 
1418	 0.132187725851336 
1419	 0.131411283515736 
1420	 0.13149824270077 
1421	 0.130790851579061 
1422	 0.129085855262487 
1423	 0.128453251695112 
1424	 0.128307343056485 
1425	 0.127764637607803 
1426	 0.127379154158553 
1427	 0.126906328321047 
1428	 0.125942468200298 
1429	 0.125612894351675 
1430	 0.125925058296744 
1431	 0.12556717541691 
1432	 0.124989540386809 
1433	 0.124670503321845 
1434	 0.124259440919645 
1435	 0.123637826729957 
1436	 0.123013085627054 
1437	 0.122647920370178 
1438	 0.121929595051622 
1439	 0.121611756973717 
1440	 0.121693459750814 
1441	 0.121918999692205 
1442	 0.122356023393409 
1443	 0.122841711517891 
1444	 0.122993274419227 
1445	 0.123730725695968 
1446	 0.123672318588653 
1447	 0.123444409187319 
1448	 0.123481243626059 
1449	 0.123277430515893 
1450	 0.123722210550946 
1451	 0.124691180558009 
1452	 0.124982974045218 
1453	 0.125275067432068 
1454	 0.125614202539158 
1455	 0.125644557786327 
1456	 0.125855558262935 
1457	 0.126282132164378 
1458	 0.126692172934046 
1459	 0.127146873780232 
1460	 0.127354890285794 
1461	 0.127730163371504 
1462	 0.127748870924861 
1463	 0.12696437423028 
1464	 0.127051886046643 
1465	 0.127585960743712 
1466	 0.127933499123318 
1467	 0.128572301985721 
1468	 0.12924895809975 
1469	 0.12982122198885 
1470	 0.130447644694293 
1471	 0.131080603438036 
1472	 0.132091391216028 
1473	 0.133161876377566 
1474	 0.134221654133718 
1475	 0.135813162812168 
1476	 0.136940001405529 
1477	 0.137302755248138 
1478	 0.138376818396706 
1479	 0.139745982257036 
1480	 0.141061754324117 
1481	 0.142550059200299 
1482	 0.1442230189327 
1483	 0.146032174787116 
1484	 0.147586225072872 
1485	 0.149288695523733 
1486	 0.15089600273929 
1487	 0.152261252706961 
1488	 0.153401048769823 
1489	 0.155171984424068 
1490	 0.156447556310184 
1491	 0.157871948774837 
1492	 0.15937905205109 
1493	 0.16049609457392 
1494	 0.161965805474823 
1495	 0.163448844773855 
1496	 0.164905558202257 
1497	 0.166606210658799 
1498	 0.168673319300686 
1499	 0.170330575123853 
1500	 0.172032944796822 
1501	 0.173540732649067 
1502	 0.1747665218349 
1503	 0.176161131100901 
1504	 0.177595007265536 
1505	 0.178939533644789 
1506	 0.180141914673826 
1507	 0.181668403247239 
1508	 0.183331230878325 
1509	 0.184837251714773 
1510	 0.186608660530806 
1511	 0.187987505052937 
1512	 0.188898261442043 
1513	 0.190254436518069 
1514	 0.191697337531507 
1515	 0.193159887318869 
1516	 0.194832911564983 
1517	 0.196437658748974 
1518	 0.198078177555394 
1519	 0.199604661158736 
1520	 0.201186974302683 
1521	 0.202605075923294 
1522	 0.203739133865837 
1523	 0.205100589463726 
1524	 0.206561325942658 
1525	 0.207941395299694 
1526	 0.209296646477596 
1527	 0.210778205928972 
1528	 0.212325840542353 
1529	 0.213776276801611 
1530	 0.215383733767228 
1531	 0.21682060618331 
1532	 0.217968598483811 
1533	 0.219328642474481 
1534	 0.220810728678203 
1535	 0.222193069925158 
1536	 0.223598303027492 
1537	 0.224984298521672 
1538	 0.226304985691647 
1539	 0.227621853860366 
1540	 0.228910748543383 
1541	 0.230281811749859 
1542	 0.231686378863149 
1543	 0.233055283730203 
1544	 0.234528710434516 
1545	 0.235895582049374 
1546	 0.237066460732745 
1547	 0.238404407212417 
1548	 0.239929429131927 
1549	 0.241261009110024 
1550	 0.24259629773319 
1551	 0.243868491586826 
1552	 0.244948410339165 
1553	 0.24603977060873 
1554	 0.247089009806733 
1555	 0.248200041308772 
1556	 0.249325790651596 
1557	 0.250420442325378 
1558	 0.251556827766734 
1559	 0.252695513392039 
1560	 0.253674817674787 
1561	 0.254844885209705 
1562	 0.256298729774478 
1563	 0.257570167359986 
1564	 0.258873520588948 
1565	 0.260186096994886 
1566	 0.261064079863487 
1567	 0.261875722862655 
1568	 0.262874406523812 
1569	 0.263800945463426 
1570	 0.264927302435525 
1571	 0.266269449746935 
1572	 0.267526895084869 
1573	 0.268846183669027 
1574	 0.269983679980634 
1575	 0.271091445514866 
1576	 0.272116132072467 
1577	 0.272932421287244 
1578	 0.273930904266653 
1579	 0.274986178795966 
1580	 0.275968207968243 
1581	 0.276963873264935 
1582	 0.277906880013142 
1583	 0.278773356637042 
1584	 0.279718406687963 
1585	 0.280762650744411 
1586	 0.281527853837353 
1587	 0.282082662598659 
1588	 0.283035887751445 
1589	 0.283969519925385 
1590	 0.285014574365668 
1591	 0.286519116958719 
1592	 0.28748141871092 
1593	 0.288143016879199 
1594	 0.288934101553458 
1595	 0.289620681673492 
1596	 0.290371534049413 
1597	 0.291124671481607 
1598	 0.291951385688268 
1599	 0.292753650243365 
1600	 0.293739683718024 
1601	 0.295033326618781 
1602	 0.295795347353271 
1603	 0.296340103770791 
1604	 0.297123630011844 
1605	 0.297620808250629 
1606	 0.29848446473785 
1607	 0.299882555945987 
1608	 0.300664369911233 
1609	 0.301122706949946 
1610	 0.30187295205159 
1611	 0.302542820307343 
1612	 0.30322874970879 
1613	 0.304182034901685 
1614	 0.304742625948363 
1615	 0.304816036237148 
1616	 0.305582688994142 
1617	 0.306668217151756 
1618	 0.307360137401235 
1619	 0.308346209214809 
1620	 0.308858920957918 
1621	 0.308683846047696 
1622	 0.309203240818673 
1623	 0.309930772784336 
1624	 0.310657202933572 
1625	 0.311690347851861 
1626	 0.312368402854245 
1627	 0.312863795746426 
1628	 0.313579080660976 
1629	 0.314420779306331 
1630	 0.314858209138873 
1631	 0.315206336877885 
1632	 0.315564632937677 
1633	 0.315496888728712 
1634	 0.315890199852652 
1635	 0.316669249395036 
1636	 0.317150834568073 
1637	 0.31768733918263 
1638	 0.317963614591568 
1639	 0.317981896968511 
1640	 0.318267565127939 
1641	 0.31845524765019 
1642	 0.318751797443551 
1643	 0.319421156905624 
1644	 0.319497771447809 
1645	 0.319149191779779 
1646	 0.319338463816371 
1647	 0.319553145130393 
1648	 0.319625158872926 
1649	 0.32000828642479 
1650	 0.320044077655579 
1651	 0.319575729768151 
1652	 0.319585786497271 
1653	 0.31999951437411 
1654	 0.319809833686199 
1655	 0.319406368918085 
1656	 0.319152923171294 
1657	 0.318580035017095 
1658	 0.318078747550218 
1659	 0.31805336045247 
1660	 0.317890274207446 
1661	 0.317974018189328 
1662	 0.318361300255758 
1663	 0.318747845693061 
1664	 0.318634179254663 
1665	 0.318329514231552 
1666	 0.318157198002848 
1667	 0.317822767134906 
1668	 0.317772711920646 
1669	 0.318048379955492 
1670	 0.31813267227292 
1671	 0.317960318561351 
1672	 0.318024694362075 
1673	 0.318129162168172 
1674	 0.318134238876543 
1675	 0.318624690366555 
1676	 0.319071515546952 
1677	 0.319147533194975 
1678	 0.319148675828689 
1679	 0.318955231978366 
1680	 0.318657148397516 
1681	 0.318403668060691 
1682	 0.31839892355292 
1683	 0.318661895513458 
1684	 0.318807861046678 
1685	 0.318772366190591 
1686	 0.318613716602655 
1687	 0.318058204930847 
1688	 0.317419892545513 
1689	 0.317153888235147 
1690	 0.316959235365767 
1691	 0.316686664977838 
1692	 0.316477195316608 
1693	 0.316083306894797 
1694	 0.315592083713589 
1695	 0.31497236602299 
1696	 0.313883949082482 
1697	 0.313365163993304 
1698	 0.313337743712077 
1699	 0.312867549980688 
1700	 0.312598245183592 
1701	 0.312113800034886 
1702	 0.310938609691831 
1703	 0.310172448684719 
1704	 0.309918423538224 
1705	 0.30913571178516 
1706	 0.307877990500115 
1707	 0.307126230677204 
1708	 0.306493160938197 
1709	 0.305718070025007 
1710	 0.305378126113359 
1711	 0.304550819552419 
1712	 0.302950821182805 
1713	 0.3019538076717 
1714	 0.301232992271384 
1715	 0.300400618468029 
1716	 0.299919742860336 
1717	 0.299141600112649 
1718	 0.297858772216759 
1719	 0.297126755443578 
1720	 0.296768831609754 
1721	 0.29596780192341 
1722	 0.295136421656152 
1723	 0.294500373300943 
1724	 0.293643403499777 
1725	 0.292896817573132 
1726	 0.292442052439217 
1727	 0.291880636227015 
1728	 0.291259314163767 
1729	 0.290525497902648 
1730	 0.28991483365512 
1731	 0.289067929540152 
1732	 0.287866070731493 
1733	 0.286936888119656 
1734	 0.286401963171616 
1735	 0.28578242307573 
1736	 0.285240436125939 
1737	 0.284686324030305 
1738	 0.284168460563369 
1739	 0.283486931871316 
1740	 0.282687547432135 
1741	 0.281990167931271 
1742	 0.280843531885171 
1743	 0.280301479267259 
1744	 0.280150645546303 
1745	 0.279726497687866 
1746	 0.279815722368704 
1747	 0.279283113081667 
1748	 0.278046365146611 
1749	 0.277066016671 
1750	 0.275840996121853 
1751	 0.274970445684363 
1752	 0.27448569734153 
1753	 0.273806766892239 
1754	 0.273246305780269 
1755	 0.272458997771114 
1756	 0.271069690910444 
1757	 0.26993208128394 
1758	 0.268948120261476 
1759	 0.268070836855628 
1760	 0.267205861132693 
1761	 0.266087474529443 
1762	 0.265122512070736 
1763	 0.26440446989096 
1764	 0.263307724093746 
1765	 0.262333267767802 
1766	 0.261656358670317 
1767	 0.260482755375491 
1768	 0.259839909543757 
1769	 0.259926267101065 
1770	 0.259380903090629 
1771	 0.258860774396338 
1772	 0.258076593824766 
1773	 0.256684779733325 
1774	 0.255944576923357 
1775	 0.255542115545579 
1776	 0.255506026786988 
1777	 0.255115610969447 
1778	 0.253710174541808 
1779	 0.252001734765935 
1780	 0.250939858554242 
1781	 0.25024066146977 
1782	 0.249822540226921 
1783	 0.250555271040018 
1784	 0.251035793969251 
1785	 0.250382449766347 
1786	 0.250598344512768 
1787	 0.249621714346016 
1788	 0.247038389041505 
1789	 0.246591100669602 
1790	 0.246335794119011 
1791	 0.245590362903146 
1792	 0.245952225694446 
1793	 0.244945184033795 
1794	 0.243531249262191 
1795	 0.243092011642304 
1796	 0.241544172926362 
1797	 0.240439782724975 
1798	 0.239500481871548 
1799	 0.237834780578315 
1800	 0.238305700042934 
1801	 0.235999161750452 
1802	 0.239467607093871 
1803	 0.239567185758399 
1804	 0.238293281643329 
1805	 0.236717103751567 
1806	 0.231609689156923 
1807	 0.228929638950093 
1808	 0.22755741849725 
1809	 0.226309333894019 
1810	 0.223884853610779 
1811	 0.221448388305468 
1812	 0.219806988614892 
1813	 0.215783695095851 
1814	 0.215778864344388 
1815	 0.222461942822773 
1816	 0.224391621464251 
1817	 0.227283639934874 
1818	 0.228215911355267 
1819	 0.227060040876407 
1820	 0.21809530104498 
1821	 0.218684997925848 
1822	 0.222950199754807 
1823	 0.226632346104846 
1824	 0.245478520840998 
1825	 0.248209513199165 
1826	 0.232268634065875 
1827	 0.224526087423118 
1828	 0.213640222000589 
1829	 0.182411330627644 
1830	 0.16780123682348 
1831	 0.168633836171672 
1832	 0.174787912633303 
1833	 0.225397751276473 
1834	 0.244949360020739 
1835	 0.250930481665216 
1836	 0.270110762726292 
1837	 0.228101591239635 
1838	 0.215793909881879 
1839	 0.221469673906897 
1840	 0.284819187856206 
1841	 0.321865295831925 
1842	 0.355904160738801 
1843	 0.36785935133358 
1844	 0.361541054946011 
1845	 0.363157503761642 
1846	 0.371395873746325 
1847	 0.352830722317988 
1848	 0.324805817577442 
1849	 0.313517486128174 
1850	 0.250016668323009 
1851	 9.44946071988744E-02 
1852	 4.43993817933777E-02 
1853	-7.88488093590391E-03 
1854	-7.3325730263117E-03 
1855	 8.21036011742117E-02 
1856	 0.129088206869298 
1857	 0.180136664428689 
1858	 0.223369046601033 
1859	 0.23944087931524 
1860	 0.262814861152016 
1861	 0.247141856376037 
1862	 0.172956879432733 
1863	 0.157107726517857 
1864	 0.156451557830333 
1865	 0.138728468166607 
1866	 0.14379839067215 
1867	 0.117978139853575 
1868	 9.68232328486403E-02 
1869	 0.128936810274944 
1870	 0.13794335642858 
1871	 0.200699352156855 
1872	 0.211560457049457 
1873	 0.159354387227843 
1874	 0.149535786473666 
1875	 0.160955802047653 
1876	 0.167695008801907 
1877	 0.169101582140761 
1878	 0.185051347790241 
1879	 0.206542903593331 
1880	 0.217015814854147 
1881	 0.203434398748598 
1882	 0.169530110513691 
1883	 0.159169397293805 
1884	 0.143101803348161 
1885	 0.12999618894055 
1886	 0.1294876635964 
1887	 0.12859742236817 
1888	 0.102014392267438 
1889	 7.48906877458781E-02 
1890	 7.65868541272706E-02 
1891	 0.106469155777544 
1892	 0.108553172158875 
1893	 0.119541823225667 
1894	 0.123879653054703 
1895	 9.83122455967379E-02 
1896	 8.53246492912321E-02 
1897	 7.36780015308626E-02 
1898	 9.19780415448429E-02 
1899	 0.106901450274321 
1900	 0.066285303498264 
1901	 5.31399151427018E-02 
1902	 5.05438410195283E-02 
1903	 7.60345198434534E-02 
1904	 0.162034169525982 
1905	 0.175175334033484 
1906	 0.184906238870004 
1907	 0.164762358128771 
1908	 7.63357033381385E-02 
1909	 5.82082278020258E-02 
1910	 0.149954234047928 
1911	 0.137285545754142 
1912	 0.140446338928338 
1913	 0.163475594181804 
1914	 0.143608953895044 
1915	 8.57069649407764E-02 
1916	 8.04274004514246E-02 
1917	 8.25562824126087E-02 
1918	 8.91078395340911E-02 
1919	 9.26733878287405E-02 
1920	 9.95668160205924E-02 
1921	 8.74113932032073E-02 
1922	 5.35357853226807E-02 
1923	 3.89732665514491E-02 
1924	 2.54219824946227E-02 
1925	 2.47631552258478E-02 
1926	 3.41945803496943E-02 
1927	 3.77642164727027E-02 
1928	 4.92946214065547E-02 
1929	 4.82243294456266E-02 
1930	 4.20117121136567E-02 
1931	 4.78880689820006E-02 
1932	 5.08253368757238E-02 
1933	 5.61577947589739E-02 
1934	 5.69073402009678E-02 
1935	 5.41637194484818E-02 
1936	 5.32417841468278E-02 
1937	 4.96978720645704E-02 
1938	 5.13314871897569E-02 
1939	 5.76630189271463E-02 
1940	 6.04041525466275E-02 
1941	 6.17806530612009E-02 
1942	 6.14060520668353E-02 
1943	 0.056734911618068 
1944	 0.056722056735376 
1945	 5.66602252700271E-02 
1946	 5.44704562371859E-02 
1947	 5.57475846429961E-02 
1948	 6.10565270945955E-02 
1949	 6.22487040488516E-02 
1950	 6.38036087490901E-02 
1951	 6.38587185602821E-02 
1952	 6.22136525427236E-02 
1953	 5.66105700893818E-02 
1954	 5.58109365601508E-02 
1955	 5.65322467003723E-02 
1956	 0.055456938957321 
1957	 5.82422070636248E-02 
1958	 5.91886487114469E-02 
1959	 0.058731983515994 
1960	 6.01560507058407E-02 
1961	 6.34001406914027E-02 
1962	 6.32280980603082E-02 
1963	 6.34892629747816E-02 
1964	 6.29619361819404E-02 
1965	 6.08034797144711E-02 
1966	 5.86195402815525E-02 
1967	 5.81983723315862E-02 
1968	 6.04017084629043E-02 
1969	 6.07044607409107E-02 
1970	 6.14616517082491E-02 
1971	 6.10656852110076E-02 
1972	 0.059859046412305 
1973	 5.70463911140628E-02 
1974	 5.74434209445617E-02 
1975	 6.03221289786521E-02 
1976	 6.10814040975789E-02 
1977	 6.11863730207581E-02 
1978	 6.03639943700161E-02 
1979	 5.90891796828865E-02 
1980	 6.01952192049245E-02 
1981	 6.21227856022126E-02 
1982	 6.23154024109338E-02 
1983	 6.17844546909108E-02 
1984	 6.07046784702877E-02 
1985	 6.07326834882758E-02 
1986	 6.18240617222507E-02 
1987	 6.37185411964303E-02 
1988	 6.48804464794227E-02 
1989	 6.42109043945023E-02 
1990	 6.24894366883266E-02 
1991	 6.22395545937425E-02 
1992	 0.063055843529889 
1993	 0.06347016558503 
1994	 6.36478421071909E-02 
1995	 6.37358780925156E-02 
1996	 6.22499903554667E-02 
1997	 6.29841313959659E-02 
1998	 6.61737065413866E-02 
1999	 6.77215313017577E-02 
2000	 6.96481551663891E-02 
2001	 7.05697847211837E-02 
2002	 6.96926370925175E-02 
2003	 7.11273566579448E-02 
2004	 7.45643367228223E-02 
2005	 7.58834985955685E-02 
2006	 7.63187041864973E-02 
2007	 0.074747090414663 
2008	 7.47022917651233E-02 
2009	 0.075986259719144 
2010	 7.64005042760321E-02 
2011	 7.77680738815878E-02 
2012	 7.98059423729344E-02 
2013	 7.77964790003104E-02 
2014	 7.71697159354185E-02 
2015	 7.88939483048005E-02 
2016	 7.78808335277454E-02 
2017	 7.82759039458687E-02 
2018	 7.91977491960853E-02 
2019	 7.99915866074967E-02 
2020	 8.05968473733844E-02 
2021	 8.13652588347053E-02 
2022	 8.18664123862358E-02 
2023	 8.33523532623848E-02 
2024	 8.24367266694801E-02 
2025	 8.05152297301508E-02 
2026	 8.01938731279157E-02 
2027	 7.93048883128461E-02 
2028	 7.94089001269284E-02 
2029	 8.17186021757642E-02 
2030	 8.30441695805814E-02 
2031	 8.32801521987701E-02 
2032	 8.37597288197134E-02 
2033	 8.43103744823319E-02 
2034	 0.083959790447217 
2035	 8.30542889732732E-02 
2036	 8.30807415266161E-02 
2037	 8.32386141137402E-02 
2038	 8.30102030156292E-02 
2039	 8.36414833419621E-02 
2040	 8.43452323654272E-02 
2041	 8.56514740534865E-02 
2042	 8.78862380812523E-02 
2043	 8.96023149261176E-02 
2044	 9.13063608814083E-02 
2045	 9.22059346133748E-02 
2046	 9.20211582965466E-02 
2047	 0.090833908869733 
2048	 0.091058402157398 
2049	 9.11835385628651E-02 
2050	 9.14068886944153E-02 
2051	 0.092470428172373 
2052	 9.26907994628896E-02 
2053	 9.32374013492478E-02 
2054	 9.40986375771383E-02 
2055	 9.44922956687264E-02 
2056	 9.51448889255575E-02 
2057	 9.55861151496617E-02 
2058	 9.61034516427742E-02 
2059	 9.67297643385173E-02 
2060	 9.77237999734847E-02 
2061	 0.097718538886007 
2062	 9.76699954197283E-02 
2063	 9.85432011842668E-02 
2064	 9.91435813299879E-02 
2065	 0.100646699632341 
2066	 0.102465885813251 
2067	 0.102285849537029 
2068	 0.10174025312157 
2069	 0.102246260332994 
2070	 0.102768815890909 
2071	 0.103190942529773 
2072	 0.103526566453631 
2073	 0.104046483799021 
2074	 0.103922440037588 
2075	 0.103610636623011 
2076	 0.10433216947198 
2077	 0.105055190768753 
2078	 0.105017351273759 
2079	 0.10510774093819 
2080	 0.104759431521245 
2081	 0.105452256739201 
2082	 0.106680921991362 
2083	 0.106521047081844 
2084	 0.106680136920316 
2085	 0.107034672028746 
2086	 0.107650219874002 
2087	 0.108237978551095 
2088	 0.109599596669212 
2089	 0.11072572206291 
2090	 0.110782809859035 
2091	 0.109887707140269 
2092	 0.109859839386345 
2093	 0.110934755850722 
2094	 0.112811009235091 
2095	 0.114642377725862 
2096	 0.115756677116102 
2097	 0.116046831435344 
2098	 0.115334943077638 
2099	 0.114688366671928 
2100	 0.115625630910763 
2101	 0.116907794368258 
2102	 0.117183093013351 
2103	 0.117226859366404 
2104	 0.117689405967429 
2105	 0.11746905023419 
2106	 0.11825864743861 
2107	 0.119977243898142 
2108	 0.120293459011306 
2109	 0.12101994182008 
2110	 0.120202436196983 
2111	 0.11892959003373 
2112	 0.119436996263634 
2113	 0.119111358869484 
2114	 0.118574842960518 
2115	 0.119304711042461 
2116	 0.120193358980243 
2117	 0.120725922474233 
2118	 0.1212194422352 
2119	 0.122009625075766 
2120	 0.12260668013635 
2121	 0.123718973941502 
2122	 0.124845367662985 
2123	 0.124578516957152 
2124	 0.124609161705311 
2125	 0.124667797705548 
2126	 0.124411683337904 
2127	 0.126260561503306 
2128	 0.127079886755016 
2129	 0.126457777213293 
2130	 0.127393712404089 
2131	 0.127890493707791 
2132	 0.127806958972869 
2133	 0.128296200581806 
2134	 0.128891177900991 
2135	 0.128964371429872 
2136	 0.129518285313339 
2137	 0.130657101522776 
2138	 0.131374322689503 
2139	 0.132203417525235 
2140	 0.13183371123345 
2141	 0.130709204647829 
2142	 0.130719700654835 
2143	 0.130130010064011 
2144	 0.12958267284641 
2145	 0.130820905218018 
2146	 0.131401613989166 
2147	 0.130950709258389 
2148	 0.130861422318522 
2149	 0.130708032327537 
2150	 0.131547208553666 
2151	 0.132594289127286 
2152	 0.135310758813695 
2153	 0.135975924887532 
2154	 0.135949753384373 
2155	 0.135328224823618 
2156	 0.135053867093233 
2157	 0.135131085968706 
2158	 0.135289877963722 
2159	 0.135930386507457 
2160	 0.135456224174847 
2161	 0.135770420977549 
2162	 0.136361076703721 
2163	 0.135831298516788 
2164	 0.136374107371758 
2165	 0.136975779398236 
2166	 0.137255293465805 
2167	 0.138769446072732 
2168	 0.139201900035738 
2169	 0.137724240560979 
2170	 0.137625001047572 
2171	 0.138112946849565 
2172	 0.138205955279811 
2173	 0.138232028790293 
2174	 0.140307246982529 
2175	 0.141977042683372 
2176	 0.1431036945763 
2177	 0.143623881002394 
2178	 0.143562854938959 
2179	 0.142728617553838 
2180	 0.141328647314475 
2181	 0.141296082978475 
2182	 0.141950518142099 
2183	 0.143016257323535 
2184	 0.144141321454447 
2185	 0.145182304544266 
2186	 0.146502438652639 
2187	 0.147157540521821 
2188	 0.146811027910533 
2189	 0.146783542050312 
2190	 0.146855784042715 
2191	 0.146549047153713 
2192	 0.145843750737176 
2193	 0.146610915238868 
2194	 0.146352068531198 
2195	 0.145615287078044 
2196	 0.146385305776313 
2197	 0.145175680208252 
2198	 0.144789407093557 
2199	 0.145843754491948 
2200	 0.145359943928803 
2201	 0.146798314601064 
2202	 0.148807082093325 
2203	 0.149287917586167 
2204	 0.149874610742386 
2205	 0.14999116464154 
2206	 0.15078040771416 
2207	 0.151706035921969 
2208	 0.15205055463284 
2209	 0.152677207820128 
2210	 0.152346132629316 
2211	 0.150471599099497 
2212	 0.150604663743394 
2213	 0.150462624237493 
2214	 0.150481292256959 
2215	 0.152156895745758 
2216	 0.151078639556336 
2217	 0.1508285331537 
2218	 0.150750956761189 
2219	 0.149638438558866 
2220	 0.149533828394072 
2221	 0.148833997203747 
2222	 0.14941110324966 
2223	 0.150206607872678 
2224	 0.151358668693383 
2225	 0.153043948264459 
2226	 0.153611292481739 
2227	 0.153641474385733 
2228	 0.152671679558911 
2229	 0.151990966106166 
2230	 0.15150961704949 
2231	 0.150724417221129 
2232	 0.150076362844849 
2233	 0.149575110546305 
2234	 0.148830474816227 
2235	 0.148266935579435 
2236	 0.147616658164834 
2237	 0.146933203301274 
2238	 0.146168809368878 
2239	 0.144881868226935 
2240	 0.145907667566495 
2241	 0.148639318789219 
2242	 0.150121082417633 
2243	 0.152094610334791 
2244	 0.151791879487885 
2245	 0.14891684842535 
2246	 0.149237484040946 
2247	 0.148932826292525 
2248	 0.147643791347343 
2249	 0.148702773615506 
2250	 0.148781593396277 
2251	 0.148517050610257 
2252	 0.150314630281242 
2253	 0.151974499696722 
2254	 0.150122808382362 
2255	 0.146332296187468 
2256	 0.143965886432581 
2257	 0.140671163225585 
2258	 0.137930163792525 
2259	 0.137412932080404 
2260	 0.139445613038648 
2261	 0.140896157158606 
2262	 0.14155689627877 
2263	 0.142769751842082 
2264	 0.142063734438444 
2265	 0.140390682431739 
2266	 0.138531515910779 
2267	 0.138417631346134 
2268	 0.138357577038562 
2269	 0.137297526179849 
2270	 0.138244088525148 
2271	 0.135497987759992 
2272	 0.132243913974896 
2273	 0.132566221104483 
2274	 0.131683292474537 
2275	 0.131817416438147 
2276	 0.13201606524817 
2277	 0.131280771734586 
2278	 0.130775068975468 
2279	 0.129594740085566 
2280	 0.131515710253181 
2281	 0.133449313935117 
2282	 0.133246954637776 
2283	 0.13327669991841 
2284	 0.129934044628252 
2285	 0.125519960379474 
2286	 0.124241856818217 
2287	 0.124385579256851 
2288	 0.125383159670784 
2289	 0.129138896931023 
2290	 0.13424492413452 
2291	 0.135027397197431 
2292	 0.132440203392776 
2293	 0.12775797974131 
2294	 0.123416278189891 
2295	 0.121720212702766 
2296	 0.121504408383659 
2297	 0.12253733810169 
2298	 0.122296259194291 
2299	 0.121630646123325 
2300	 0.120851233321716 
2301	 0.119855876330079 
2302	 0.120584529029244 
2303	 0.120479617572454 
2304	 0.119618618785755 
2305	 0.117458235820714 
2306	 0.113445959602123 
2307	 0.110032625944883 
2308	 0.109338078652808 
2309	 0.111917534305041 
2310	 0.113197602887214 
2311	 0.113312504394919 
2312	 0.11437906042291 
2313	 0.115378134252232 
2314	 0.117334373428179 
2315	 0.116971497735597 
2316	 0.112984907969652 
2317	 0.110234177385967 
2318	 0.111704045329799 
2319	 0.114438518045433 
2320	 0.11602718267332 
2321	 0.116663877743938 
2322	 0.112389230328989 
2323	 0.1111629675432 
2324	 0.110681589404517 
2325	 0.113804179846739 
2326	 0.112424562388651 
2327	 0.111869901177634 
2328	 0.10972519629666 
2329	 0.105458571093823 
2330	 0.104017646688781 
2331	 0.107248697016055 
2332	 0.109944582026265 
2333	 0.108848158509068 
2334	 0.111995078628539 
2335	 0.113859310402437 
2336	 0.112319228101611 
2337	 0.11168477625399 
2338	 0.109458536226744 
2339	 0.106791752934085 
2340	 0.106738649558264 
2341	 0.113584420534038 
2342	 0.11733568135229 
2343	 0.114858313519507 
2344	 0.109616879310023 
2345	 0.09941913595827 
2346	 9.23453143622109E-02 
2347	 0.092207313462862 
2348	 9.53730829741431E-02 
2349	 0.10081844235315 
2350	 0.107827571438648 
2351	 0.109861396130091 
2352	 0.110361574405876 
2353	 0.106975573114761 
2354	 9.65434035427019E-02 
2355	 8.95615584215177E-02 
2356	 0.083854607244457 
2357	 8.07991409016229E-02 
2358	 8.05824351322455E-02 
2359	 7.93837765282891E-02 
2360	 8.21139185307013E-02 
2361	 8.36661181577236E-02 
2362	 8.57704806315322E-02 
2363	 9.53122558039561E-02 
2364	 9.90417674939792E-02 
2365	 9.58796298087668E-02 
2366	 9.52126027440893E-02 
2367	 9.35360997367497E-02 
2368	 9.30878090150568E-02 
2369	 9.74997053280156E-02 
2370	 0.101685820236752 
2371	 0.10413905099176 
2372	 0.106006927947544 
2373	 0.106643297240665 
2374	 0.103257300616601 
2375	 0.10045384283826 
2376	 9.36007021034892E-02 
2377	 0.073091660578284 
2378	 7.06681297282211E-02 
2379	 0.076395991927017 
2380	 7.94450735499542E-02 
2381	 9.81212108144913E-02 
2382	 0.100896491486676 
2383	 8.94363745131703E-02 
2384	 0.085996363406216 
2385	 7.42613158340687E-02 
2386	 7.43298662394708E-02 
2387	 9.12210482776666E-02 
2388	 9.58169118785947E-02 
2389	 0.10347135990935 
2390	 0.102717632401214 
2391	 8.53195030599838E-02 
2392	 7.63522285978943E-02 
2393	 6.55661160940583E-02 
2394	 6.34413718376469E-02 
2395	 7.35866321471976E-02 
2396	 0.076509504835058 
2397	 8.24880615747516E-02 
2398	 7.81448211811389E-02 
2399	 5.62808588795402E-02 
2400	 0.053725679833716 
2401	 5.81626583658406E-02 
2402	 5.90382889410299E-02 
2403	 7.63569845175962E-02 
2404	 8.71731331307587E-02 
2405	 8.01918461211837E-02 
2406	 8.37968726788899E-02 
2407	 8.24316587382609E-02 
2408	 8.20081492168431E-02 
2409	 8.14278391288268E-02 
2410	 0.074392846327138 
2411	 7.76272909422609E-02 
2412	 8.47374130422935E-02 
2413	 8.89874347805795E-02 
2414	 9.87326956390207E-02 
2415	 9.90109186171946E-02 
2416	 9.02429518831999E-02 
2417	 0.091068401149229 
2418	 0.100920446520866 
2419	 0.100684386920541 
2420	 9.26796581167843E-02 
2421	 0.103885346572054 
2422	 0.103724111696261 
2423	 9.31086398282792E-02 
2424	 0.104972866271217 
2425	 9.57807414025649E-02 
2426	 7.80433086153661E-02 
2427	 9.02766560875096E-02 
2428	 8.94466075573927E-02 
2429	 8.57770936523547E-02 
2430	 8.85518499570552E-02 
2431	 7.49811791564552E-02 
2432	 7.69733758582405E-02 
2433	 7.08325726288095E-02 
2434	 6.96582583364863E-02 
2435	 7.62595586536423E-02 
2436	 7.69216097158746E-02 
2437	 7.69119833535411E-02 
2438	 8.34923768574258E-02 
2439	 0.104250149850429 
2440	 0.108419324795229 
2441	 8.70266510981584E-02 
2442	 8.56715935748873E-02 
2443	 0.095765637762652 
2444	 9.17154581531139E-02 
2445	 0.103856904962369 
2446	 0.115927491192345 
2447	 9.28422688288215E-02 
2448	 9.12156724278985E-02 
2449	 0.131142192094943 
2450	 0.138939996219216 
2451	 0.126580633586213 
2452	 0.121675824554212 
2453	 9.67409592829599E-02 
2454	 9.83341179249252E-02 
2455	 0.134888100843631 
2456	 0.138366007043722 
2457	 0.132117467759683 
2458	 0.123517786662 
2459	 8.45146594892124E-02 
2460	 7.39361856846447E-02 
2461	 9.09714559083639E-02 
2462	 9.01370849963015E-02 
2463	 9.26120087028031E-02 
2464	 8.88217755360248E-02 
2465	 5.63628785011923E-02 
2466	 0.048002703790824 
2467	 6.45314973366369E-02 
2468	 6.11975968060772E-02 
2469	 5.68673444139253E-02 
2470	 6.72797385191065E-02 
2471	 5.07515912316471E-02 
2472	 4.31112351349661E-02 
2473	 9.00123966502466E-02 
2474	 0.10541883717128 
2475	 0.104761305655359 
2476	 0.116124663781823 
2477	 9.61305218750472E-02 
2478	 0.112062248027847 
2479	 0.164700109038979 
2480	 0.149543700948801 
2481	 0.134016166045066 
2482	 0.141077123794512 
2483	 7.33176939544164E-02 
2484	 5.14078771261697E-02 
2485	 0.111641691307725 
2486	 1.86499703364343E-02 
2487	 0.13410801343887 
2488	 0.124891195100461 
2489	 0.119542041216346 
2490	 0.250967647142264 
2491	 0.216609253008159 
2492	 0.322704881856567 
2493	 0.485462105565008 
2494	 0.396162477657568 
2495	 0.280451788973648 
2496	 0.214303362988202 
2497	 4.16595536074413E-02 
2498	-0.150608518452241 
2499	-0.355922737012823 
2500	-0.30528606043414 
