Wavelength	ref00061.asd
350	 1.96622758987086E-02 
351	 2.03706410470195E-02 
352	 2.01453228213058E-02 
353	 2.05296272508985E-02 
354	 1.97890151887017E-02 
355	 1.95261266830275E-02 
356	 2.03141327156398E-02 
357	 1.93551864621841E-02 
358	 1.92411380266179E-02 
359	 1.97997235662978E-02 
360	 2.01321620224845E-02 
361	 2.02836756104823E-02 
362	 2.00725123114142E-02 
363	 1.98681894407247E-02 
364	 2.02501253977307E-02 
365	 2.02234661959966E-02 
366	 2.01324543732414E-02 
367	 0.020293259692827 
368	 2.07576033982119E-02 
369	 2.09058282413393E-02 
370	 2.10258223634945E-02 
371	 2.15057552379597E-02 
372	 2.24297748520817E-02 
373	 2.26500204500926E-02 
374	 2.24548859778894E-02 
375	 2.27934638315479E-02 
376	 2.33746096130946E-02 
377	 2.38468587815051E-02 
378	 2.43584220561164E-02 
379	 2.56210778238705E-02 
380	 2.63085726106212E-02 
381	 2.72200099233768E-02 
382	 2.87499039434034E-02 
383	 2.88580447785893E-02 
384	 2.95490545211169E-02 
385	 3.08139434449163E-02 
386	 3.18476470774763E-02 
387	 3.30610671999728E-02 
388	 3.45011840062935E-02 
389	 3.59913006673686E-02 
390	 3.71793182990214E-02 
391	 0.038628074456208 
392	 4.03647606505618E-02 
393	 4.22025765536347E-02 
394	 4.36736234596931E-02 
395	 4.53979004766396E-02 
396	 4.73077229837471E-02 
397	 4.91250765229713E-02 
398	 0.050929164513353 
399	 5.23352696283845E-02 
400	 5.35690343592974E-02 
401	 5.53058807292168E-02 
402	 5.71189149669094E-02 
403	 5.88066671511529E-02 
404	 6.04555188888687E-02 
405	 6.27095384541741E-02 
406	 6.46391016658222E-02 
407	 6.64808035138873E-02 
408	 6.86710492698016E-02 
409	 7.04537377053804E-02 
410	 7.23526970514529E-02 
411	 7.44318044138812E-02 
412	 0.076342492562794 
413	 7.86021066494172E-02 
414	 8.06079202104752E-02 
415	 8.21632495522793E-02 
416	 8.42546478435324E-02 
417	 8.63891214904754E-02 
418	 8.82197261503921E-02 
419	 8.96423149881345E-02 
420	 9.14556755189664E-02 
421	 9.32641517256722E-02 
422	 9.49701418782868E-02 
423	 9.67731081984436E-02 
424	 9.83817668483243E-02 
425	 9.97590834779131E-02 
426	 0.100998359050157 
427	 0.102358438257573 
428	 0.103734439701849 
429	 0.105140539358039 
430	 0.10653531487437 
431	 0.107430572658924 
432	 0.108274814780123 
433	 0.109130670933086 
434	 0.109713874047984 
435	 0.110493886554078 
436	 0.111119855084444 
437	 0.111380667376392 
438	 0.111587760971428 
439	 0.111836866780372 
440	 0.112045653796771 
441	 0.112078413658915 
442	 0.111941805129451 
443	 0.111815792888792 
444	 0.111690935422285 
445	 0.111379925367378 
446	 0.110994318431246 
447	 0.110577263249707 
448	 0.110149672090226 
449	 0.109727927220242 
450	 0.109188522468532 
451	 0.108537009517888 
452	 0.107838549980044 
453	 0.107119751424474 
454	 0.106398520196923 
455	 0.105622068628231 
456	 0.104662175410268 
457	 0.103747494612884 
458	 0.102818860128511 
459	 0.101798991753645 
460	 0.100778028893526 
461	 9.96551933157991E-02 
462	 0.098473676342988 
463	 9.73368538821108E-02 
464	 0.096092782006298 
465	 9.48842495875741E-02 
466	 9.37083673271358E-02 
467	 9.23037566611329E-02 
468	 9.10190156554776E-02 
469	 8.96663744606252E-02 
470	 8.80708367855061E-02 
471	 8.66888499764113E-02 
472	 8.53482251512819E-02 
473	 8.39270549538877E-02 
474	 8.23757550382217E-02 
475	 0.080954486879579 
476	 7.94643798448333E-02 
477	 7.78637528726617E-02 
478	 7.65403200972941E-02 
479	 7.51668548763409E-02 
480	 7.37435285505431E-02 
481	 7.23604447525537E-02 
482	 7.09902111759722E-02 
483	 6.95543265499833E-02 
484	 6.81000823291573E-02 
485	 6.67878712114792E-02 
486	 6.53076428738247E-02 
487	 6.38164256270058E-02 
488	 6.24933287029847E-02 
489	 6.13157150464819E-02 
490	 6.02162914108906E-02 
491	 0.059033438041884 
492	 5.76537852056711E-02 
493	 5.65697701113536E-02 
494	 5.55233943613162E-02 
495	 5.44326734811727E-02 
496	 5.34988628872177E-02 
497	 5.24590900555295E-02 
498	 5.14430297901488E-02 
499	 0.050593641660905 
500	 4.97721305030763E-02 
501	 4.88946103258151E-02 
502	 4.80019311245207E-02 
503	 4.72050012652259E-02 
504	 0.046443864148343 
505	 4.57155741099111E-02 
506	 4.50086005076496E-02 
507	 4.42809645758834E-02 
508	 4.37690817004566E-02 
509	 4.32417238999001E-02 
510	 4.24858095812425E-02 
511	 4.20452037030663E-02 
512	 4.16347140437532E-02 
513	 4.11857518519112E-02 
514	 4.08245415731737E-02 
515	 4.03180940833458E-02 
516	 0.039886830601155 
517	 3.96647516612252E-02 
518	 3.93900872401331E-02 
519	 3.90459359920752E-02 
520	 3.86962828429174E-02 
521	 0.038436346681401 
522	 3.82898078089754E-02 
523	 3.80844926550294E-02 
524	 3.77771607775017E-02 
525	 3.74833837730861E-02 
526	 3.72518851587116E-02 
527	 3.70922992686839E-02 
528	 3.69730139762972E-02 
529	 3.67818513949025E-02 
530	 0.036669374726786 
531	 3.65967877964167E-02 
532	 3.64453620793318E-02 
533	 3.64231781314147E-02 
534	 0.036433586712295 
535	 3.64002625122459E-02 
536	 0.036338507851834 
537	 3.62734464096807E-02 
538	 3.62618875959689E-02 
539	 3.63338053502386E-02 
540	 3.63536075039124E-02 
541	 3.64674828510519E-02 
542	 3.66293635974692E-02 
543	 3.66445019049577E-02 
544	 3.68068249988701E-02 
545	 0.037016652591271 
546	 3.71827862018804E-02 
547	 3.73830128367808E-02 
548	 3.76308006518734E-02 
549	 3.79301935246772E-02 
550	 3.82667193157153E-02 
551	 3.85652627576087E-02 
552	 3.88875809704986E-02 
553	 3.92446232621813E-02 
554	 3.95738845343731E-02 
555	 3.99923929409924E-02 
556	 4.04924361552106E-02 
557	 4.10426940188728E-02 
558	 4.16387458345526E-02 
559	 4.23025862810822E-02 
560	 4.30311065824597E-02 
561	 4.38127520231066E-02 
562	 0.04469300729715 
563	 4.56017573002871E-02 
564	 4.65312055782883E-02 
565	 4.75952990567205E-02 
566	 4.87868369047533E-02 
567	 5.00113670634705E-02 
568	 5.12182390662982E-02 
569	 5.27378170315114E-02 
570	 5.42181794981467E-02 
571	 5.56700794775095E-02 
572	 5.74496744626847E-02 
573	 0.059213578299478 
574	 0.061159751213611 
575	 6.33830868165613E-02 
576	 6.53931219880534E-02 
577	 6.76462009761913E-02 
578	 7.01167384773479E-02 
579	 7.26061561439875E-02 
580	 7.54129480294096E-02 
581	 7.82980888745636E-02 
582	 8.11594074599055E-02 
583	 8.41423515492956E-02 
584	 8.74155168071905E-02 
585	 9.08593605572795E-02 
586	 9.43582320776723E-02 
587	 0.09818117685466 
588	 0.102309442644072 
589	 0.106787343146336 
590	 0.111584450073834 
591	 0.116458914912899 
592	 0.121442053098959 
593	 0.126702929668907 
594	 0.132297860764578 
595	 0.138261931418232 
596	 0.144346218713702 
597	 0.150331777521131 
598	 0.15649795063455 
599	 0.162779321594366 
600	 0.169199151995083 
601	 0.175855509018062 
602	 0.182531984925429 
603	 0.189308690388744 
604	 0.196234307564989 
605	 0.203157834468288 
606	 0.210230563495521 
607	 0.217402845382298 
608	 0.224520230618838 
609	 0.231734597649821 
610	 0.238964604392142 
611	 0.246103371704189 
612	 0.253103094283977 
613	 0.259873715840413 
614	 0.26658227029471 
615	 0.273326989052525 
616	 0.279757904153768 
617	 0.286129065289462 
618	 0.292335154339998 
619	 0.298154622997787 
620	 0.303852150495753 
621	 0.309365345303657 
622	 0.314691906444918 
623	 0.320033517694405 
624	 0.325162650761668 
625	 0.330142394228873 
626	 0.335044217421828 
627	 0.33949650732903 
628	 0.343873874397942 
629	 0.348307259534795 
630	 0.352608084827694 
631	 0.356761710650999 
632	 0.360707032723704 
633	 0.364443564969723 
634	 0.368161289330342 
635	 0.371701058379484 
636	 0.375073007489123 
637	 0.378349896924425 
638	 0.381588135734421 
639	 0.384630399621714 
640	 0.38749456360652 
641	 0.39035260786413 
642	 0.393011748188699 
643	 0.39550822572035 
644	 0.397936939262072 
645	 0.400289248343459 
646	 0.402464591038769 
647	 0.404527652793974 
648	 0.406658034192279 
649	 0.408997828475395 
650	 0.411252873107805 
651	 0.41324723150424 
652	 0.415195667036877 
653	 0.417122521980003 
654	 0.418908908286765 
655	 0.420536066279534 
656	 0.422408131655336 
657	 0.424424145529448 
658	 0.426145702324124 
659	 0.427352977317079 
660	 0.428301774805285 
661	 0.429090018225779 
662	 0.429807515448201 
663	 0.430667985131005 
664	 0.431374842633442 
665	 0.431905149532708 
666	 0.432364316287814 
667	 0.432912982403216 
668	 0.43339250095775 
669	 0.433816274266687 
670	 0.434362475981356 
671	 0.434868196888508 
672	 0.43541048060754 
673	 0.436020534773198 
674	 0.436539262404019 
675	 0.437092930281603 
676	 0.43773671910354 
677	 0.438471066966449 
678	 0.439157892866703 
679	 0.439944224034531 
680	 0.44090963826102 
681	 0.442039454972547 
682	 0.443359582580316 
683	 0.444861212475279 
684	 0.446534423672916 
685	 0.448365861301391 
686	 0.450474732737299 
687	 0.453038894155396 
688	 0.455947355555745 
689	 0.458913977546351 
690	 0.461486034327169 
691	 0.46370437240114 
692	 0.465843816129206 
693	 0.468086843706066 
694	 0.470357327923125 
695	 0.472651497989901 
696	 0.475468078562727 
697	 0.478085498118394 
698	 0.480345406679984 
699	 0.482380903939561 
700	 0.484465407407825 
701	 0.486659401888684 
702	 0.488931443965574 
703	 0.491159374591222 
704	 0.493221400678736 
705	 0.495132771585611 
706	 0.497008528644474 
707	 0.499092473105767 
708	 0.501002618570795 
709	 0.502789009643447 
710	 0.504649641407002 
711	 0.506354937677675 
712	 0.507992294401666 
713	 0.509585047148391 
714	 0.511056562375827 
715	 0.512420031186243 
716	 0.513229242853223 
717	 0.513431279774014 
718	 0.514326485791109 
719	 0.51593193906763 
720	 0.518200775904956 
721	 0.520770570244581 
722	 0.522627806272594 
723	 0.523809241029062 
724	 0.524736460664086 
725	 0.526045837079719 
726	 0.527586688042841 
727	 0.529181066021108 
728	 0.530727387890991 
729	 0.53219205780374 
730	 0.53371137243061 
731	 0.535349495249469 
732	 0.537109669924637 
733	 0.53889308111662 
734	 0.540325587184545 
735	 0.541449914075757 
736	 0.542640920567403 
737	 0.543956843940707 
738	 0.545172650787521 
739	 0.546222120547596 
740	 0.547443475744378 
741	 0.548473604407727 
742	 0.549408240455249 
743	 0.550415126808299 
744	 0.551283102642867 
745	 0.552064661938889 
746	 0.552847881840306 
747	 0.553709689991144 
748	 0.554380138199181 
749	 0.555081884290207 
750	 0.555910149870431 
751	 0.556635941627078 
752	 0.55722149108329 
753	 0.557801364580291 
754	 0.558482809055574 
755	 0.559099167910444 
756	 0.559607635046991 
757	 0.559800926403204 
758	 0.559512443142214 
759	 0.55965911800878 
760	 0.560950581362289 
761	 0.563557454946808 
762	 0.564957826017168 
763	 0.565351182020108 
764	 0.565680673987601 
765	 0.566240846078081 
766	 0.566232250102499 
767	 0.566309410558453 
768	 0.566513655260847 
769	 0.566757491393814 
770	 0.567210791053946 
771	 0.567696017936787 
772	 0.568148247400696 
773	 0.568614377964659 
774	 0.569111903594602 
775	 0.569638659607442 
776	 0.570163960199916 
777	 0.570622274984694 
778	 0.571037764701894 
779	 0.571502850743117 
780	 0.572058232360785 
781	 0.572512156199505 
782	 0.573019250308956 
783	 0.573595281661148 
784	 0.574157130904206 
785	 0.574534320113224 
786	 0.574870033322333 
787	 0.575208650114975 
788	 0.575466673373476 
789	 0.575863827897097 
790	 0.576335860254638 
791	 0.57682420269425 
792	 0.577407351181455 
793	 0.578009722417489 
794	 0.578627174287068 
795	 0.579238600273789 
796	 0.579675339784163 
797	 0.580112057585196 
798	 0.58058573762562 
799	 0.58105046747192 
800	 0.581559021107132 
801	 0.582004315444447 
802	 0.582420226558034 
803	 0.583011746838596 
804	 0.583742800229893 
805	 0.584364019679521 
806	 0.584772229165033 
807	 0.585252448505558 
808	 0.585715519622254 
809	 0.586008990213375 
810	 0.586055624275966 
811	 0.586195458737067 
812	 0.586008135256587 
813	 0.585632700293934 
814	 0.585494971218786 
815	 0.585318960082805 
816	 0.585534587551009 
817	 0.586232391510696 
818	 0.587056681397789 
819	 0.587920815273613 
820	 0.588621651538798 
821	 0.589145775476172 
822	 0.589785430974524 
823	 0.590381967239297 
824	 0.590958124624815 
825	 0.591557818612487 
826	 0.592213476541976 
827	 0.592846056255391 
828	 0.59332036140011 
829	 0.593568443943584 
830	 0.594065370243753 
831	 0.59464454387211 
832	 0.595277151615178 
833	 0.596032831239475 
834	 0.596704876759174 
835	 0.597376887581018 
836	 0.59805907356434 
837	 0.598648076887987 
838	 0.59934846130015 
839	 0.599978398368462 
840	 0.600445913591451 
841	 0.600982168184924 
842	 0.601571529909416 
843	 0.602116557221741 
844	 0.602543017793171 
845	 0.602955748668101 
846	 0.60330917602923 
847	 0.60375022361786 
848	 0.604408116633026 
849	 0.604878143448445 
850	 0.605307644014406 
851	 0.605710918472251 
852	 0.606039859571007 
853	 0.606733114888307 
854	 0.607385235309673 
855	 0.60778603753465 
856	 0.608073256377736 
857	 0.608447239678563 
858	 0.609005191912983 
859	 0.609610272192654 
860	 0.609801572526212 
861	 0.610238697554282 
862	 0.61065660303516 
863	 0.610873500769576 
864	 0.611532183536968 
865	 0.612115321608602 
866	 0.612678934034922 
867	 0.613318685570408 
868	 0.613512983541255 
869	 0.613691219942195 
870	 0.614113720722128 
871	 0.614789511074821 
872	 0.615024426032548 
873	 0.615393645538755 
874	 0.615905165458009 
875	 0.616201785968183 
876	 0.616790836241863 
877	 0.617227914863219 
878	 0.617513825381643 
879	 0.618108181030568 
880	 0.61839378653541 
881	 0.618729930670687 
882	 0.619194252986208 
883	 0.619322610160122 
884	 0.619538279581788 
885	 0.619956285741258 
886	 0.620447469884097 
887	 0.620579239328064 
888	 0.62085248000466 
889	 0.621193636684701 
890	 0.621380711108071 
891	 0.621207873204866 
892	 0.621113943627841 
893	 0.621019662262149 
894	 0.620783054387102 
895	 0.620682827253704 
896	 0.620808011650614 
897	 0.620666081351928 
898	 0.620027568179126 
899	 0.620965855143194 
900	 0.62188066476292 
901	 0.622205352849925 
902	 0.622189048181645 
903	 0.622486075905675 
904	 0.622788161613201 
905	 0.623306020383735 
906	 0.624303438431294 
907	 0.624051017691386 
908	 0.623927285338349 
909	 0.624154460037115 
910	 0.623882409671841 
911	 0.623768036532363 
912	 0.623779985789957 
913	 0.624184753350575 
914	 0.625393012259342 
915	 0.625884378176844 
916	 0.626243378928683 
917	 0.626748649207367 
918	 0.627052583098889 
919	 0.627677525628028 
920	 0.628192654723778 
921	 0.628492122688596 
922	 0.628999813737184 
923	 0.62879807771952 
924	 0.628093748041914 
925	 0.62724680691264 
926	 0.626479753606186 
927	 0.625213944710241 
928	 0.624024731466765 
929	 0.623151604258859 
930	 0.621696663040846 
931	 0.620226199748333 
932	 0.618493785669671 
933	 0.6165403715915 
934	 0.615413749797299 
935	 0.615370496624225 
936	 0.615606364574115 
937	 0.615678028536749 
938	 0.616451331543079 
939	 0.61678968193068 
940	 0.616254612840569 
941	 0.615643297509214 
942	 0.617567140679567 
943	 0.618008515128664 
944	 0.61749133338465 
945	 0.617271588071378 
946	 0.61751879602545 
947	 0.616907173372837 
948	 0.615781771497029 
949	 0.615156020914322 
950	 0.616251341616901 
951	 0.615987503829603 
952	 0.615499823232925 
953	 0.615932078460435 
954	 0.616118484476592 
955	 0.617327627941165 
956	 0.617614235064106 
957	 0.616306573869749 
958	 0.616611386621074 
959	 0.614753993364603 
960	 0.615210028683577 
961	 0.619262085041992 
962	 0.619436618155369 
963	 0.619543483108139 
964	 0.619801798461364 
965	 0.620144253654987 
966	 0.621202632635114 
967	 0.62239453374096 
968	 0.622708701184055 
969	 0.622594682155693 
970	 0.624533487590573 
971	 0.624745933661947 
972	 0.624358292393216 
973	 0.624729547182704 
974	 0.625906519681996 
975	 0.625530912832862 
976	 0.624834024298709 
977	 0.625324541366418 
978	 0.627486019534588 
979	 0.627569338513617 
980	 0.626976777692539 
981	 0.627287226938677 
982	 0.628866341550957 
983	 0.628860125365017 
984	 0.629587470487311 
985	 0.631009501306707 
986	 0.630866555409873 
987	 0.632453092850433 
988	 0.63221021036251 
989	 0.631438979255512 
990	 0.634249876302767 
991	 0.63460413219187 
992	 0.634562894862138 
993	 0.635502670199824 
994	 0.636969101871783 
995	 0.633909050943981 
996	 0.634058962304254 
997	 0.636808407424358 
998	 0.637467450044019 
999	 0.635130671540998 
1000	 0.635589960604995 
1001	 0.639948036252195 
1002	 0.640663574548465 
1003	 0.641340951252622 
1004	 0.642208632361966 
1005	 0.64270337297931 
1006	 0.642837758980801 
1007	 0.643207218425452 
1008	 0.643383328187672 
1009	 0.643935403543839 
1010	 0.644827633544479 
1011	 0.645565143157187 
1012	 0.646151151896856 
1013	 0.646796564442451 
1014	 0.647040243275012 
1015	 0.64727165836629 
1016	 0.647954808555846 
1017	 0.648440836160482 
1018	 0.648956859236069 
1019	 0.649640343289636 
1020	 0.650180844185105 
1021	 0.650540280773165 
1022	 0.651016459259436 
1023	 0.651626226553506 
1024	 0.651930010176857 
1025	 0.652082786707381 
1026	 0.652611010238692 
1027	 0.65320858816048 
1028	 0.653660371190298 
1029	 0.654392043259599 
1030	 0.655100103177473 
1031	 0.655474152926732 
1032	 0.656012578849017 
1033	 0.656512160298643 
1034	 0.656958060014724 
1035	 0.657411290462418 
1036	 0.657885721587645 
1037	 0.658253699220718 
1038	 0.658560928192074 
1039	 0.65897985669002 
1040	 0.65917357018393 
1041	 0.659511430814917 
1042	 0.659915969509725 
1043	 0.660263218787624 
1044	 0.660767945796355 
1045	 0.661116476481641 
1046	 0.661506867484751 
1047	 0.661966636695438 
1048	 0.662145999526717 
1049	 0.662452109746321 
1050	 0.662811565027523 
1051	 0.663261793655383 
1052	 0.663448445015512 
1053	 0.663580565096226 
1054	 0.663764066353489 
1055	 0.663859558179838 
1056	 0.663945983596625 
1057	 0.664196207821058 
1058	 0.664543624915279 
1059	 0.664812108821586 
1060	 0.665019743575035 
1061	 0.665330282026179 
1062	 0.665589814021389 
1063	 0.665791786052456 
1064	 0.666076612338352 
1065	 0.666252286943058 
1066	 0.666376488384656 
1067	 0.666438114523721 
1068	 0.666484201869993 
1069	 0.666535052752693 
1070	 0.666702817478491 
1071	 0.666915861988167 
1072	 0.667125819556845 
1073	 0.667309343612037 
1074	 0.667416646958979 
1075	 0.667439414995554 
1076	 0.667579586865993 
1077	 0.667681028163115 
1078	 0.667663107056221 
1079	 0.667777848646877 
1080	 0.667855414496091 
1081	 0.667928938665435 
1082	 0.667999305625001 
1083	 0.66812538148942 
1084	 0.668137407892287 
1085	 0.668056900725389 
1086	 0.667858085768365 
1087	 0.667706638500626 
1088	 0.66758407413137 
1089	 0.667412432523174 
1090	 0.667276660919544 
1091	 0.667127356573642 
1092	 0.667107088918216 
1093	 0.667116585388134 
1094	 0.667007578235181 
1095	 0.666780744781067 
1096	 0.666424479810006 
1097	 0.665745113353812 
1098	 0.665270699573417 
1099	 0.664813186037043 
1100	 0.664319481715632 
1101	 0.663956087634486 
1102	 0.66354648272542 
1103	 0.663016571189404 
1104	 0.662547179326306 
1105	 0.662012023725276 
1106	 0.661342041164694 
1107	 0.660678209914935 
1108	 0.659849609173381 
1109	 0.658778589676182 
1110	 0.657782060517117 
1111	 0.656611624345751 
1112	 0.655088602940371 
1113	 0.653702467215056 
1114	 0.652198375769754 
1115	 0.650622343039855 
1116	 0.648925968950226 
1117	 0.647477362117836 
1118	 0.645753018460289 
1119	 0.644036584861549 
1120	 0.642540725478306 
1121	 0.641097301590256 
1122	 0.640035223398506 
1123	 0.639194129100952 
1124	 0.638291458488593 
1125	 0.637535796606908 
1126	 0.636970473048148 
1127	 0.636455751984411 
1128	 0.636241577062049 
1129	 0.636652073872487 
1130	 0.636547443973006 
1131	 0.636388091760969 
1132	 0.63614229317347 
1133	 0.635813379130376 
1134	 0.635167350816646 
1135	 0.634654309092265 
1136	 0.634158039002667 
1137	 0.633342697206879 
1138	 0.63241320846059 
1139	 0.631398133101842 
1140	 0.630159929705109 
1141	 0.628721495658154 
1142	 0.627188990584791 
1143	 0.625695177739555 
1144	 0.623961866931864 
1145	 0.622506563145448 
1146	 0.62111444040191 
1147	 0.619933125705873 
1148	 0.618901232345897 
1149	 0.618060723963938 
1150	 0.617367519717724 
1151	 0.616948785336417 
1152	 0.616866357021203 
1153	 0.616652247698101 
1154	 0.616549489995339 
1155	 0.61671927533121 
1156	 0.616926012723803 
1157	 0.617246247387749 
1158	 0.617553582282526 
1159	 0.617837655587921 
1160	 0.61805422440889 
1161	 0.618125178197791 
1162	 0.618258674572169 
1163	 0.618460164695478 
1164	 0.618579338417728 
1165	 0.618604899341273 
1166	 0.618703218281735 
1167	 0.618769228259466 
1168	 0.618919863097331 
1169	 0.619167536560015 
1170	 0.619419358436727 
1171	 0.619462544658906 
1172	 0.619526087342006 
1173	 0.619544500475387 
1174	 0.61942430979434 
1175	 0.619483415810301 
1176	 0.619644872538109 
1177	 0.619635234499884 
1178	 0.619493501594352 
1179	 0.619461269038523 
1180	 0.619380003060499 
1181	 0.619361761580695 
1182	 0.619478929089428 
1183	 0.619491683319212 
1184	 0.619415008966282 
1185	 0.619426244705923 
1186	 0.619461938407486 
1187	 0.61948491387986 
1188	 0.619541847451401 
1189	 0.619609679826569 
1190	 0.619741100371874 
1191	 0.619722826985216 
1192	 0.61958324393832 
1193	 0.61958432830595 
1194	 0.61959740911254 
1195	 0.619514855009274 
1196	 0.619578816951408 
1197	 0.619824791897243 
1198	 0.619935839875402 
1199	 0.620005713151481 
1200	 0.620114227803124 
1201	 0.620226250896287 
1202	 0.620380621246706 
1203	 0.620494866281854 
1204	 0.620714059903729 
1205	 0.621114923457629 
1206	 0.621330718988899 
1207	 0.621426414994506 
1208	 0.621677612777826 
1209	 0.621973944729849 
1210	 0.622122859514193 
1211	 0.622426901369117 
1212	 0.622895333598197 
1213	 0.623282604702673 
1214	 0.623627753246507 
1215	 0.624006808489108 
1216	 0.624434220909287 
1217	 0.624841036173978 
1218	 0.625219989472208 
1219	 0.625603874543405 
1220	 0.626008019319074 
1221	 0.626423345907374 
1222	 0.626838661210009 
1223	 0.627248132978462 
1224	 0.62768027844546 
1225	 0.628098910134676 
1226	 0.628479680835421 
1227	 0.628886738743878 
1228	 0.629323012102807 
1229	 0.629768737985944 
1230	 0.630141326016094 
1231	 0.630463189745128 
1232	 0.630816261491136 
1233	 0.631110069322972 
1234	 0.631484990690102 
1235	 0.631958353873009 
1236	 0.632310996923672 
1237	 0.632622535341962 
1238	 0.632952581885759 
1239	 0.63322564072326 
1240	 0.633533001281183 
1241	 0.633879957818986 
1242	 0.634204373157698 
1243	 0.634526357915927 
1244	 0.634829919573011 
1245	 0.635154682701813 
1246	 0.635430648727982 
1247	 0.635656374663802 
1248	 0.635877548584873 
1249	 0.636068052978106 
1250	 0.63625560209301 
1251	 0.636427861879278 
1252	 0.636596793441476 
1253	 0.636797137560744 
1254	 0.637031179201688 
1255	 0.637195689061047 
1256	 0.637323239299733 
1257	 0.637525505791296 
1258	 0.637728902676053 
1259	 0.637912205806987 
1260	 0.638166692866733 
1261	 0.638371671827849 
1262	 0.638492915063615 
1263	 0.638652748234191 
1264	 0.638884165203438 
1265	 0.639030379826588 
1266	 0.639156770706916 
1267	 0.639204886511731 
1268	 0.639116208801852 
1269	 0.639107832017419 
1270	 0.639081284062209 
1271	 0.639057844278773 
1272	 0.639085580583717 
1273	 0.639119593845128 
1274	 0.639080857049008 
1275	 0.638995425544222 
1276	 0.638898893316889 
1277	 0.638783097681539 
1278	 0.638623563841462 
1279	 0.638430102266981 
1280	 0.638216297015171 
1281	 0.637935257819422 
1282	 0.637706913962657 
1283	 0.63750804202086 
1284	 0.63725643829468 
1285	 0.63706977364187 
1286	 0.636728790372246 
1287	 0.636240407759941 
1288	 0.635810144040706 
1289	 0.635299908761771 
1290	 0.634833450572104 
1291	 0.634483586357764 
1292	 0.634001437235788 
1293	 0.633403992674968 
1294	 0.632853546190308 
1295	 0.632340651415507 
1296	 0.631684607391669 
1297	 0.630985514836081 
1298	 0.630294816008337 
1299	 0.629493107029131 
1300	 0.628477101148355 
1301	 0.627661020807483 
1302	 0.626932030883135 
1303	 0.626082221551542 
1304	 0.625248214574082 
1305	 0.624361612181366 
1306	 0.623367745976064 
1307	 0.622401081369646 
1308	 0.62148254941618 
1309	 0.620460538926539 
1310	 0.619353345914074 
1311	 0.618240990573604 
1312	 0.617127803105007 
1313	 0.615907763551846 
1314	 0.614594665418707 
1315	 0.613301441585023 
1316	 0.611979531880729 
1317	 0.610582669337141 
1318	 0.609159506618832 
1319	 0.607702689988391 
1320	 0.60610584411605 
1321	 0.604536869229562 
1322	 0.602947562317304 
1323	 0.601398817776583 
1324	 0.599630680134598 
1325	 0.597721078401496 
1326	 0.595763324999932 
1327	 0.593542350045861 
1328	 0.591490328229886 
1329	 0.58946129326123 
1330	 0.587387896517466 
1331	 0.585288546328236 
1332	 0.583305588518675 
1333	 0.581398084856905 
1334	 0.579489575249097 
1335	 0.577765662389024 
1336	 0.575917243756515 
1337	 0.573883595327428 
1338	 0.571990033951847 
1339	 0.570050511937388 
1340	 0.568090558095768 
1341	 0.56608799799149 
1342	 0.56392952479959 
1343	 0.561229424803964 
1344	 0.558652015326734 
1345	 0.555700712486707 
1346	 0.552543648553264 
1347	 0.549361862288252 
1348	 0.545918284423891 
1349	 0.542356686669051 
1350	 0.53852721630426 
1351	 0.534343545056684 
1352	 0.530613567432819 
1353	 0.525587454372975 
1354	 0.520780546623032 
1355	 0.51413338144181 
1356	 0.508499103445239 
1357	 0.49908023173917 
1358	 0.490251563030667 
1359	 0.47925031685075 
1360	 0.48048600896428 
1361	 0.473344977102781 
1362	 0.486301785987164 
1363	 0.485946939167643 
1364	 0.469205795934871 
1365	 0.45686577119888 
1366	 0.44980132465431 
1367	 0.439147279501327 
1368	 0.434226877787737 
1369	 0.42567640838488 
1370	 0.409017861926653 
1371	 0.406988537534853 
1372	 0.412060635573516 
1373	 0.411978986965176 
1374	 0.413026643081216 
1375	 0.417610773099832 
1376	 0.415710520473578 
1377	 0.417218896315156 
1378	 0.415341799374548 
1379	 0.415577000079976 
1380	 0.409748086328558 
1381	 0.398125981112416 
1382	 0.389515159739415 
1383	 0.381274675049587 
1384	 0.373113148090297 
1385	 0.365785798132239 
1386	 0.35937321128232 
1387	 0.352723216781268 
1388	 0.348827373720967 
1389	 0.347324239240325 
1390	 0.344631755277929 
1391	 0.344122653414906 
1392	 0.340362744029882 
1393	 0.334088094562483 
1394	 0.329525339750334 
1395	 0.32397443656277 
1396	 0.319608453047175 
1397	 0.316807872581837 
1398	 0.313291526589647 
1399	 0.310768356054316 
1400	 0.306236542160608 
1401	 0.299588876198192 
1402	 0.295278978966938 
1403	 0.292056064594585 
1404	 0.287674534506322 
1405	 0.284208697801553 
1406	 0.2807691588692 
1407	 0.27632758108493 
1408	 0.273505236023726 
1409	 0.271231813215933 
1410	 0.269092322781071 
1411	 0.267370621381678 
1412	 0.265630766554384 
1413	 0.264316329146921 
1414	 0.263682341429989 
1415	 0.26241329886837 
1416	 0.261150269071035 
1417	 0.259632975855315 
1418	 0.257740585742249 
1419	 0.256417335579058 
1420	 0.255242913506142 
1421	 0.254002019368713 
1422	 0.252801088685181 
1423	 0.251915445606065 
1424	 0.251054340723729 
1425	 0.250225416225905 
1426	 0.249626707158237 
1427	 0.248971007651116 
1428	 0.248132718154469 
1429	 0.24748461378062 
1430	 0.247177181407893 
1431	 0.246451205486053 
1432	 0.245321362919477 
1433	 0.244551335200266 
1434	 0.243689326938315 
1435	 0.243027282806484 
1436	 0.242708168239888 
1437	 0.242377025650643 
1438	 0.241966747722658 
1439	 0.241738570303595 
1440	 0.241809552664921 
1441	 0.241709322818145 
1442	 0.241433530048021 
1443	 0.241471528559147 
1444	 0.241469266175957 
1445	 0.241487163298357 
1446	 0.241799469178167 
1447	 0.242196497267935 
1448	 0.242600718444247 
1449	 0.243090484199586 
1450	 0.24348262394547 
1451	 0.24380884342644 
1452	 0.244277570460078 
1453	 0.244714952469291 
1454	 0.245255273767719 
1455	 0.246035033990186 
1456	 0.24648833576837 
1457	 0.246909560114052 
1458	 0.247215944787418 
1459	 0.247284213288634 
1460	 0.247577578204903 
1461	 0.247949984855077 
1462	 0.248313400323855 
1463	 0.24878002353067 
1464	 0.249248619157422 
1465	 0.249663463965574 
1466	 0.250237329603166 
1467	 0.250821262022477 
1468	 0.251679749616047 
1469	 0.252677642619384 
1470	 0.253859425482602 
1471	 0.255303381914673 
1472	 0.256715202810042 
1473	 0.258050479661722 
1474	 0.259574956074557 
1475	 0.261135719836874 
1476	 0.26276347083554 
1477	 0.264469588519168 
1478	 0.266254887066832 
1479	 0.268102731019732 
1480	 0.269928472619585 
1481	 0.271765783121161 
1482	 0.273640594666091 
1483	 0.275384368876267 
1484	 0.277291560951988 
1485	 0.279280946635535 
1486	 0.281309014583161 
1487	 0.283387384389811 
1488	 0.285486555332659 
1489	 0.287503718050205 
1490	 0.289559510915307 
1491	 0.291506685627028 
1492	 0.293358798800192 
1493	 0.295311513216715 
1494	 0.297222110015677 
1495	 0.299149645616054 
1496	 0.301209111675217 
1497	 0.30305712487927 
1498	 0.304833040276776 
1499	 0.306630991383827 
1500	 0.308394049014313 
1501	 0.310174416727581 
1502	 0.311949963941538 
1503	 0.313868428822138 
1504	 0.315828395404677 
1505	 0.317778100020744 
1506	 0.319891691738029 
1507	 0.321777222691823 
1508	 0.323519810651744 
1509	 0.325316660216281 
1510	 0.3270539772517 
1511	 0.328826725038555 
1512	 0.330640454939111 
1513	 0.332400589125993 
1514	 0.33411648634101 
1515	 0.33589442792338 
1516	 0.337695152501762 
1517	 0.339506598742773 
1518	 0.341445150105181 
1519	 0.343220647684118 
1520	 0.344879623856354 
1521	 0.346626554053801 
1522	 0.348352274985846 
1523	 0.350068982817708 
1524	 0.351860139962207 
1525	 0.353595642616393 
1526	 0.355290926559057 
1527	 0.356947541378761 
1528	 0.358634139770106 
1529	 0.360224028917525 
1530	 0.361644019172589 
1531	 0.363201503877863 
1532	 0.364777384784703 
1533	 0.366378187468806 
1534	 0.368165001041322 
1535	 0.36975063783714 
1536	 0.371218330294941 
1537	 0.372701074289253 
1538	 0.374046334551977 
1539	 0.375475489898021 
1540	 0.376966070777833 
1541	 0.378438830445996 
1542	 0.379979328203874 
1543	 0.381412577220173 
1544	 0.382797457848844 
1545	 0.384152741074156 
1546	 0.385366779054561 
1547	 0.386680180888108 
1548	 0.388076968103264 
1549	 0.38941295841955 
1550	 0.390797087633252 
1551	 0.392106567932793 
1552	 0.393298545405922 
1553	 0.394539088977262 
1554	 0.395811850457725 
1555	 0.397028491201806 
1556	 0.398221906106306 
1557	 0.399417829061625 
1558	 0.400533932086083 
1559	 0.401700183472215 
1560	 0.402964600356322 
1561	 0.404154379460779 
1562	 0.405301964104715 
1563	 0.406478042981779 
1564	 0.407675563062161 
1565	 0.408791520064095 
1566	 0.409943925647525 
1567	 0.41109437041918 
1568	 0.412284745472223 
1569	 0.413493557915014 
1570	 0.414585591528979 
1571	 0.415687873950318 
1572	 0.416725372723676 
1573	 0.417579955399316 
1574	 0.418640671263076 
1575	 0.419786693365134 
1576	 0.420888357227431 
1577	 0.422027796924757 
1578	 0.423095039438084 
1579	 0.424139678886356 
1580	 0.425100906973306 
1581	 0.425993871883335 
1582	 0.426896763614581 
1583	 0.427744079057492 
1584	 0.428593253832081 
1585	 0.429416947508316 
1586	 0.430323180075363 
1587	 0.431242938942649 
1588	 0.432162810395096 
1589	 0.4331743863188 
1590	 0.43408313821995 
1591	 0.434931786906214 
1592	 0.435775170578185 
1593	 0.436590896047352 
1594	 0.437438415344942 
1595	 0.438292815748025 
1596	 0.439094651870663 
1597	 0.439881602515778 
1598	 0.440712603915438 
1599	 0.441531109528324 
1600	 0.442315488454782 
1601	 0.443161189307404 
1602	 0.443909211011487 
1603	 0.444535290610143 
1604	 0.445241542062104 
1605	 0.445994988735897 
1606	 0.446642587645443 
1607	 0.447183681235854 
1608	 0.447902718235819 
1609	 0.448654707710003 
1610	 0.449359697926059 
1611	 0.450189166568009 
1612	 0.450880710409053 
1613	 0.451445172641802 
1614	 0.452026443789244 
1615	 0.452619541746474 
1616	 0.453159137128747 
1617	 0.453601330999264 
1618	 0.454112580501211 
1619	 0.454603649123836 
1620	 0.455207547109776 
1621	 0.455904644830224 
1622	 0.456516900266213 
1623	 0.457218295245777 
1624	 0.457735667370125 
1625	 0.458057707685751 
1626	 0.458567543119952 
1627	 0.459155224121269 
1628	 0.45957640222382 
1629	 0.460014882746942 
1630	 0.460414539397012 
1631	 0.460674439870253 
1632	 0.460943835989685 
1633	 0.461254924361477 
1634	 0.461514796428444 
1635	 0.461610792632841 
1636	 0.461910999151448 
1637	 0.462374745091321 
1638	 0.462682849633253 
1639	 0.462988858748613 
1640	 0.463288671002038 
1641	 0.463537525072214 
1642	 0.463736306850048 
1643	 0.463906380750787 
1644	 0.464123771449035 
1645	 0.464311525886182 
1646	 0.464441738013469 
1647	 0.464643260489696 
1648	 0.464719725195849 
1649	 0.464591104282254 
1650	 0.464683325449162 
1651	 0.464852943449491 
1652	 0.464984322568079 
1653	 0.465166676879236 
1654	 0.46534501235054 
1655	 0.465513038296813 
1656	 0.465685183734983 
1657	 0.465921722732276 
1658	 0.466011895412818 
1659	 0.466076788893789 
1660	 0.46622156734084 
1661	 0.466369493894555 
1662	 0.466645981315683 
1663	 0.467013999651977 
1664	 0.467394736234305 
1665	 0.467820252270244 
1666	 0.468338159369366 
1667	 0.468832279155343 
1668	 0.469311312322201 
1669	 0.469671120297654 
1670	 0.469811816977685 
1671	 0.469992266054 
1672	 0.470082603210927 
1673	 0.470082824553186 
1674	 0.470227697166222 
1675	 0.470307148249535 
1676	 0.470287653184812 
1677	 0.470524912601779 
1678	 0.470698711564928 
1679	 0.470670894846289 
1680	 0.470878812962379 
1681	 0.470828445760047 
1682	 0.470487894735493 
1683	 0.470374187751791 
1684	 0.470100049808069 
1685	 0.469805289092354 
1686	 0.469767848373047 
1687	 0.469631236613587 
1688	 0.469508337103728 
1689	 0.469504636348355 
1690	 0.469498373556304 
1691	 0.469262877484675 
1692	 0.468762297757241 
1693	 0.468312612856086 
1694	 0.467716825362166 
1695	 0.467194792809418 
1696	 0.466746612510464 
1697	 0.466310904937326 
1698	 0.465884711134264 
1699	 0.465412950876554 
1700	 0.464985222829144 
1701	 0.464500773320168 
1702	 0.463894949642101 
1703	 0.463381447889103 
1704	 0.462898811266431 
1705	 0.462403018297846 
1706	 0.462015762362788 
1707	 0.461485119655524 
1708	 0.46087439623059 
1709	 0.460204716670266 
1710	 0.459360409241394 
1711	 0.458685378803393 
1712	 0.458083155901849 
1713	 0.457441660469103 
1714	 0.456809818707759 
1715	 0.456224911140115 
1716	 0.455723519822736 
1717	 0.455048101157222 
1718	 0.454341806422529 
1719	 0.453636223216171 
1720	 0.452796247383065 
1721	 0.451957187122356 
1722	 0.451091558754252 
1723	 0.450418336342081 
1724	 0.449716973287247 
1725	 0.449050897740274 
1726	 0.448602024504483 
1727	 0.44809851108998 
1728	 0.447482190393158 
1729	 0.447060311090064 
1730	 0.446834186446118 
1731	 0.446338842874356 
1732	 0.446049960479877 
1733	 0.445901420370504 
1734	 0.445613572895083 
1735	 0.445240434746601 
1736	 0.44482962799204 
1737	 0.444140053939434 
1738	 0.443414122948075 
1739	 0.44282580512947 
1740	 0.442156315711763 
1741	 0.441557156225144 
1742	 0.441050206668382 
1743	 0.440524589780187 
1744	 0.439821713585226 
1745	 0.438931326797583 
1746	 0.437905265375341 
1747	 0.436638655991265 
1748	 0.435518230707503 
1749	 0.434595325819726 
1750	 0.433569240497606 
1751	 0.432677072767752 
1752	 0.432035693331221 
1753	 0.431474015608939 
1754	 0.430742309504015 
1755	 0.429698376077626 
1756	 0.428544173115484 
1757	 0.426854762768913 
1758	 0.425700889869135 
1759	 0.425143910133314 
1760	 0.424196140597621 
1761	 0.423276204438882 
1762	 0.42243411008435 
1763	 0.421289390296727 
1764	 0.420317109007484 
1765	 0.419568729958535 
1766	 0.418741005525795 
1767	 0.417957606538646 
1768	 0.417153307830279 
1769	 0.416380202658226 
1770	 0.415587486460257 
1771	 0.414742489865563 
1772	 0.41374509942847 
1773	 0.412543875746908 
1774	 0.411452200669596 
1775	 0.410854871980633 
1776	 0.410234284148259 
1777	 0.40949333384326 
1778	 0.409239817893074 
1779	 0.4084897632179 
1780	 0.407796186802951 
1781	 0.407818840466854 
1782	 0.407083420207477 
1783	 0.406153680529267 
1784	 0.40566508338376 
1785	 0.405161330735787 
1786	 0.404789649074254 
1787	 0.40465551349422 
1788	 0.404612533593457 
1789	 0.404156795981096 
1790	 0.403374939623589 
1791	 0.402821595159044 
1792	 0.402219641907846 
1793	 0.401431176487695 
1794	 0.400714231724449 
1795	 0.400016089850851 
1796	 0.399313992832614 
1797	 0.398530351540011 
1798	 0.397985577621113 
1799	 0.397522499689217 
1800	 0.396412302707066 
1801	 0.39137077053954 
1802	 0.389049195869341 
1803	 0.387742408242229 
1804	 0.386650386630208 
1805	 0.385690530936586 
1806	 0.385111956867793 
1807	 0.384769697745946 
1808	 0.384847535017966 
1809	 0.385813015090581 
1810	 0.385130584669969 
1811	 0.384206981571562 
1812	 0.382708500605724 
1813	 0.378241587171289 
1814	 0.376251388556939 
1815	 0.375397602982595 
1816	 0.374857720594232 
1817	 0.37693390759533 
1818	 0.377682300035495 
1819	 0.37824566321631 
1820	 0.379190914252925 
1821	 0.378668070805055 
1822	 0.377387648528419 
1823	 0.374187508149403 
1824	 0.364576886018797 
1825	 0.360875807486634 
1826	 0.360125541729682 
1827	 0.356663200571522 
1828	 0.353791099383378 
1829	 0.359480693253995 
1830	 0.357562994511416 
1831	 0.34138335951062 
1832	 0.334939792534669 
1833	 0.333337694229202 
1834	 0.338337563150111 
1835	 0.381171820232459 
1836	 0.398991708775634 
1837	 0.409222530324659 
1838	 0.411669123231172 
1839	 0.390992842691463 
1840	 0.308751730290739 
1841	 0.269636608942458 
1842	 0.225263557789142 
1843	 0.234666990850601 
1844	 0.299020819881802 
1845	 0.317780916988158 
1846	 0.357190223706919 
1847	 0.389615590839178 
1848	 0.40990666080983 
1849	 0.393506368091876 
1850	 0.370935744306643 
1851	 0.355649921267998 
1852	 0.322524505538254 
1853	 0.21426374366938 
1854	 0.207614062208193 
1855	 0.282587543603236 
1856	 0.292346843624694 
1857	 0.301697714129704 
1858	 0.320605749151444 
1859	 0.316587695720441 
1860	 0.268127011352245 
1861	 0.259467133126708 
1862	 0.265100149006252 
1863	 0.271063606885719 
1864	 0.281768984477524 
1865	 0.300067956243099 
1866	 0.344020320229844 
1867	 0.375819476868466 
1868	 0.366539326808281 
1869	 0.358467095889042 
1870	 0.375697129930162 
1871	 0.409728161255229 
1872	 0.390164081654975 
1873	 0.377070728967227 
1874	 0.353092668746809 
1875	 0.305367893688685 
1876	 0.266037042318548 
1877	 0.236920155296437 
1878	 0.226067093494516 
1879	 0.211259714593767 
1880	 0.191983849714217 
1881	 0.188281906776689 
1882	 0.203233654496194 
1883	 0.201736296144077 
1884	 0.195296532802747 
1885	 0.190477854102551 
1886	 0.186438148645034 
1887	 0.175775963759918 
1888	 0.162526853924924 
1889	 0.155582765598648 
1890	 0.150662930970491 
1891	 0.141673869487217 
1892	 0.141905244861491 
1893	 0.156925092925029 
1894	 0.159892867551689 
1895	 0.162049960587316 
1896	 0.164870408782702 
1897	 0.170007275591619 
1898	 0.155548724691178 
1899	 0.146206639811395 
1900	 0.126855254110992 
1901	 0.120218432664593 
1902	 0.11984381145675 
1903	 0.117762218163141 
1904	 0.127297968471532 
1905	 0.142270663509264 
1906	 0.164759234462309 
1907	 0.169271920878377 
1908	 0.155356973411836 
1909	 0.137773796825888 
1910	 0.114380588772296 
1911	 8.79493210342635E-02 
1912	 8.27706576241166E-02 
1913	 0.093698106585733 
1914	 0.1008056416213 
1915	 0.109342492123759 
1916	 0.109863751498043 
1917	 0.113634317382467 
1918	 0.110232560245625 
1919	 0.100327103505884 
1920	 0.09801398603762 
1921	 9.35914223518896E-02 
1922	 9.15744782957695E-02 
1923	 8.94117919196844E-02 
1924	 8.69878642779276E-02 
1925	 8.64119571123913E-02 
1926	 0.086253979597175 
1927	 8.63201413144017E-02 
1928	 8.87684758602186E-02 
1929	 8.74116413288032E-02 
1930	 0.088657891646093 
1931	 0.091522093297972 
1932	 8.96175512792048E-02 
1933	 8.95632247543333E-02 
1934	 8.90947433802542E-02 
1935	 0.085710579908269 
1936	 8.64176265436424E-02 
1937	 0.089478139068557 
1938	 9.10978090783853E-02 
1939	 9.34840287186082E-02 
1940	 9.50838402489179E-02 
1941	 9.58126375464804E-02 
1942	 9.65292665522978E-02 
1943	 9.64714641301493E-02 
1944	 9.56800291658463E-02 
1945	 9.53192300446961E-02 
1946	 9.64350580513724E-02 
1947	 9.70664945238229E-02 
1948	 9.80974791626245E-02 
1949	 9.97004446730673E-02 
1950	 0.101943493243614 
1951	 0.102365466722532 
1952	 0.104648654553309 
1953	 0.10642210210379 
1954	 0.106010688765756 
1955	 0.106404677144307 
1956	 0.107183164074548 
1957	 0.107402143826194 
1958	 0.10834271059147 
1959	 0.110294655937602 
1960	 0.11147105171431 
1961	 0.112127541983831 
1962	 0.113546947044004 
1963	 0.114464146861527 
1964	 0.115044811440046 
1965	 0.115652793529118 
1966	 0.116094918532535 
1967	 0.117693675422013 
1968	 0.118764925863222 
1969	 0.119673265256623 
1970	 0.120964078366691 
1971	 0.121825129534936 
1972	 0.122013321940304 
1973	 0.122793367305209 
1974	 0.123954210800543 
1975	 0.125084750920451 
1976	 0.126224091835872 
1977	 0.127589284541646 
1978	 0.128857753977765 
1979	 0.129943209698319 
1980	 0.130924186421497 
1981	 0.131598278618659 
1982	 0.132472226868418 
1983	 0.133331395173506 
1984	 0.134207395674714 
1985	 0.135123973797228 
1986	 0.136268722744794 
1987	 0.137117500269509 
1988	 0.137800438312777 
1989	 0.13877857681198 
1990	 0.139681777762308 
1991	 0.140434671083831 
1992	 0.141336614169368 
1993	 0.142182120370331 
1994	 0.142847766727818 
1995	 0.143548527729562 
1996	 0.144332319783991 
1997	 0.145074746051575 
1998	 0.145331421211385 
1999	 0.146199166346432 
2000	 0.147451073899147 
2001	 0.148209463215274 
2002	 0.150157736568157 
2003	 0.152437809091045 
2004	 0.153594951516574 
2005	 0.155678932594145 
2006	 0.157478305199044 
2007	 0.159176363902734 
2008	 0.159445016444571 
2009	 0.160645869878653 
2010	 0.162020018770065 
2011	 0.162593673215044 
2012	 0.164048935865588 
2013	 0.165907748296709 
2014	 0.166909606780409 
2015	 0.168234564313892 
2016	 0.169444343328657 
2017	 0.169942976553008 
2018	 0.170807072734961 
2019	 0.171715567433769 
2020	 0.172613398264657 
2021	 0.173478436730213 
2022	 0.174512502058467 
2023	 0.175873206352574 
2024	 0.177012264914275 
2025	 0.177610518877969 
2026	 0.178560906074695 
2027	 0.178738321620366 
2028	 0.178365017174034 
2029	 0.17875130854146 
2030	 0.179211787741733 
2031	 0.179916536225438 
2032	 0.180786618926923 
2033	 0.182111458629795 
2034	 0.183414845366338 
2035	 0.184402765561331 
2036	 0.185143249589818 
2037	 0.186006636169579 
2038	 0.186496081747316 
2039	 0.187098649997662 
2040	 0.187837221708597 
2041	 0.188171116871421 
2042	 0.18873750827815 
2043	 0.189484575435173 
2044	 0.190570141381539 
2045	 0.191592547264745 
2046	 0.193008818958895 
2047	 0.19397877869753 
2048	 0.194548819701364 
2049	 0.194409807561319 
2050	 0.193854883708995 
2051	 0.194209029756723 
2052	 0.194827542508524 
2053	 0.19556735956935 
2054	 0.19694935352167 
2055	 0.198147639587057 
2056	 0.198870766089657 
2057	 0.199359625098598 
2058	 0.199915743144947 
2059	 0.200621108256938 
2060	 0.201173841465248 
2061	 0.20195782249487 
2062	 0.20300049699773 
2063	 0.203802776958525 
2064	 0.204315190875587 
2065	 0.204969255171664 
2066	 0.205623393277553 
2067	 0.206249843641917 
2068	 0.207096994576352 
2069	 0.207902198378372 
2070	 0.208336502123574 
2071	 0.208960070643178 
2072	 0.209784068038892 
2073	 0.210690349739948 
2074	 0.21129271293711 
2075	 0.212061047766339 
2076	 0.212904580477699 
2077	 0.213587427044732 
2078	 0.214214446051907 
2079	 0.215261050802539 
2080	 0.216269384285454 
2081	 0.216602145836961 
2082	 0.217025327006374 
2083	 0.217498663626404 
2084	 0.218026503136548 
2085	 0.218935394267297 
2086	 0.21976963771945 
2087	 0.220610480475867 
2088	 0.221514777005638 
2089	 0.222297349068015 
2090	 0.222844147853575 
2091	 0.223716197874245 
2092	 0.224262499798896 
2093	 0.224507550104309 
2094	 0.225316631099588 
2095	 0.226156736147433 
2096	 0.226703469076423 
2097	 0.227630543647359 
2098	 0.22866367182291 
2099	 0.228943602107383 
2100	 0.229286778814552 
2101	 0.229958697641933 
2102	 0.230447383114684 
2103	 0.23056322959101 
2104	 0.231125181297878 
2105	 0.232018812644916 
2106	 0.232509609596439 
2107	 0.233314646431327 
2108	 0.234208411361352 
2109	 0.234798081135809 
2110	 0.235760558337015 
2111	 0.236799084136158 
2112	 0.237521019722385 
2113	 0.238111861316616 
2114	 0.238685299499159 
2115	 0.239423922873992 
2116	 0.240107604338765 
2117	 0.240656816311148 
2118	 0.241501291895474 
2119	 0.242048392760636 
2120	 0.242170163413594 
2121	 0.24242454425148 
2122	 0.242763430723759 
2123	 0.242877217218147 
2124	 0.243718211576496 
2125	 0.244098187755334 
2126	 0.244951987112927 
2127	 0.24628631455474 
2128	 0.246129240522426 
2129	 0.246541790805963 
2130	 0.247545020233923 
2131	 0.2480311994054 
2132	 0.24911594470739 
2133	 0.250260609674979 
2134	 0.250878237612169 
2135	 0.250947847212838 
2136	 0.250869837782344 
2137	 0.250880877595972 
2138	 0.251314870139999 
2139	 0.252170050496215 
2140	 0.253274071726635 
2141	 0.2541420126212 
2142	 0.254667187612057 
2143	 0.254823903671484 
2144	 0.254735858535064 
2145	 0.255314713644225 
2146	 0.255835265395117 
2147	 0.256497058447605 
2148	 0.257695475254834 
2149	 0.25849905437776 
2150	 0.259385950096042 
2151	 0.259851629014761 
2152	 0.259377894923182 
2153	 0.259607553930109 
2154	 0.259902267748052 
2155	 0.260522269372257 
2156	 0.261504628860553 
2157	 0.262577714156214 
2158	 0.263152437797735 
2159	 0.263644751763853 
2160	 0.263607417709502 
2161	 0.263221550255525 
2162	 0.263604387139302 
2163	 0.263934122319526 
2164	 0.264338450649298 
2165	 0.265240653210181 
2166	 0.265603244686153 
2167	 0.265519718257089 
2168	 0.265526936380734 
2169	 0.265282183464874 
2170	 0.265541993906023 
2171	 0.266030082466717 
2172	 0.266300914740351 
2173	 0.267286634493941 
2174	 0.267756841964204 
2175	 0.267885413335349 
2176	 0.268069716932843 
2177	 0.267917381662995 
2178	 0.268090400706928 
2179	 0.268134866435233 
2180	 0.268770420805708 
2181	 0.269474479397966 
2182	 0.269411264253708 
2183	 0.269284207510488 
2184	 0.268794276713401 
2185	 0.269066417719746 
2186	 0.270276840738379 
2187	 0.270827164774227 
2188	 0.271907770201294 
2189	 0.272330735881411 
2190	 0.272108029847217 
2191	 0.271515120915842 
2192	 0.271352654571262 
2193	 0.271483792436984 
2194	 0.27217769505273 
2195	 0.272312599490376 
2196	 0.272772212475443 
2197	 0.274108784132991 
2198	 0.274560137105547 
2199	 0.274897457934781 
2200	 0.275233984088076 
2201	 0.275060864810061 
2202	 0.275056850461834 
2203	 0.275250749859319 
2204	 0.275319761417265 
2205	 0.275363702400093 
2206	 0.275594384508287 
2207	 0.275835296618469 
2208	 0.276157476045733 
2209	 0.276869519835874 
2210	 0.277156995049891 
2211	 0.277198056209933 
2212	 0.277359729555557 
2213	 0.277583244091515 
2214	 0.277617263957256 
2215	 0.278186658195891 
2216	 0.27900516065899 
2217	 0.279348644476308 
2218	 0.279576668162494 
2219	 0.279578905282623 
2220	 0.279058605261443 
2221	 0.278486843501068 
2222	 0.278387005518067 
2223	 0.278371915692392 
2224	 0.278305898124111 
2225	 0.278479580265125 
2226	 0.278306593569056 
2227	 0.278046999230881 
2228	 0.278014659910269 
2229	 0.277204428699736 
2230	 0.27607317958253 
2231	 0.275561611155082 
2232	 0.275152924469397 
2233	 0.274470591276147 
2234	 0.273866482320169 
2235	 0.274335741717367 
2236	 0.274141872753395 
2237	 0.273968577095406 
2238	 0.274041955183192 
2239	 0.273454682527976 
2240	 0.273000209032879 
2241	 0.272390976674416 
2242	 0.272341853804428 
2243	 0.272564995100499 
2244	 0.272152336798837 
2245	 0.272023097971694 
2246	 0.271600073509716 
2247	 0.270715366582844 
2248	 0.270396109049776 
2249	 0.269716494074665 
2250	 0.26914789166631 
2251	 0.269712160805888 
2252	 0.268919117352422 
2253	 0.267539067773217 
2254	 0.266876831015549 
2255	 0.265109601088376 
2256	 0.26387896457999 
2257	 0.262967910526225 
2258	 0.26291633042941 
2259	 0.262078718626672 
2260	 0.262106026635883 
2261	 0.262438714291581 
2262	 0.262148221968601 
2263	 0.262217324828868 
2264	 0.261568963712169 
2265	 0.260485085462117 
2266	 0.260102187365343 
2267	 0.259638586163844 
2268	 0.259490389858075 
2269	 0.259569357239312 
2270	 0.258972746079025 
2271	 0.258221749414597 
2272	 0.257469825388047 
2273	 0.256748095493516 
2274	 0.255400102490104 
2275	 0.254197870794185 
2276	 0.253898921693421 
2277	 0.2530688401825 
2278	 0.252086540161723 
2279	 0.251687258069282 
2280	 0.25079880682287 
2281	 0.25003154218884 
2282	 0.250636128379262 
2283	 0.250332258579489 
2284	 0.249480466895032 
2285	 0.248495713332215 
2286	 0.247224554833887 
2287	 0.245095893137959 
2288	 0.24441705067125 
2289	 0.243411768300249 
2290	 0.242715472175707 
2291	 0.243497366716024 
2292	 0.243329385977911 
2293	 0.243341374887634 
2294	 0.242703274363662 
2295	 0.240511614987922 
2296	 0.238540765619854 
2297	 0.236781425682699 
2298	 0.235872572902043 
2299	 0.235850781016862 
2300	 0.235231859742019 
2301	 0.234615710872564 
2302	 0.234255655766236 
2303	 0.232800848921299 
2304	 0.231472106946589 
2305	 0.23112664191097 
2306	 0.230345473785252 
2307	 0.229508138637457 
2308	 0.229630875990022 
2309	 0.229308173527491 
2310	 0.227832889389007 
2311	 0.226808348025496 
2312	 0.225778011017772 
2313	 0.22406734475225 
2314	 0.223046360262526 
2315	 0.223582895646616 
2316	 0.225144420367558 
2317	 0.226024931274406 
2318	 0.225981754654607 
2319	 0.224174107632008 
2320	 0.221082004070471 
2321	 0.219740123088549 
2322	 0.219516230609287 
2323	 0.218768629359841 
2324	 0.218836110220457 
2325	 0.219465532811622 
2326	 0.217534268981334 
2327	 0.215595671669893 
2328	 0.215032602847654 
2329	 0.214335568337163 
2330	 0.213922659358272 
2331	 0.213718736808765 
2332	 0.213422417595587 
2333	 0.212324632081274 
2334	 0.211449938825651 
2335	 0.210906833621663 
2336	 0.210435022030676 
2337	 0.209361816674953 
2338	 0.207493785301242 
2339	 0.206559215359648 
2340	 0.20500285272896 
2341	 0.203881916866159 
2342	 0.203427536812576 
2343	 0.202958618144741 
2344	 0.204464987881223 
2345	 0.205174036010876 
2346	 0.205982792111665 
2347	 0.20643555473203 
2348	 0.203922709801807 
2349	 0.201554548122478 
2350	 0.19907235396008 
2351	 0.1975722791846 
2352	 0.197547144495924 
2353	 0.197759054895406 
2354	 0.198708610667117 
2355	 0.198907086556892 
2356	 0.198308268813652 
2357	 0.196772414726994 
2358	 0.194746382744615 
2359	 0.193320872810593 
2360	 0.193264515834165 
2361	 0.194014914181637 
2362	 0.19350980774276 
2363	 0.19307379262118 
2364	 0.192893300343301 
2365	 0.191068850763208 
2366	 0.190442976147976 
2367	 0.190676625379162 
2368	 0.188235581647057 
2369	 0.188082703686385 
2370	 0.188511086525869 
2371	 0.186539436777885 
2372	 0.185893152985759 
2373	 0.185625308369087 
2374	 0.185634888888225 
2375	 0.186850512966977 
2376	 0.186673617682182 
2377	 0.187225612380444 
2378	 0.186545644099081 
2379	 0.183932586711012 
2380	 0.181369734270101 
2381	 0.176677242649603 
2382	 0.174039145696166 
2383	 0.17190804986918 
2384	 0.171994526749628 
2385	 0.17661673597232 
2386	 0.178033303318116 
2387	 0.17824969125522 
2388	 0.17802740195984 
2389	 0.175484344009365 
2390	 0.173074971912329 
2391	 0.171071726015601 
2392	 0.169254786616299 
2393	 0.166322345117282 
2394	 0.16651881548204 
2395	 0.169819370933999 
2396	 0.169952942835243 
2397	 0.169233063302352 
2398	 0.168921799327471 
2399	 0.168618320249565 
2400	 0.166965909870693 
2401	 0.164584339472774 
2402	 0.163333193593784 
2403	 0.161068099190808 
2404	 0.156716051417974 
2405	 0.157855913277556 
2406	 0.158967842417175 
2407	 0.156161418332831 
2408	 0.15589284749678 
2409	 0.157047843590485 
2410	 0.155605442383563 
2411	 0.155389608116414 
2412	 0.153266242808021 
2413	 0.146728216353381 
2414	 0.14555555711424 
2415	 0.149487870849874 
2416	 0.153092308971217 
2417	 0.156137352066932 
2418	 0.153066422050519 
2419	 0.146372511197812 
2420	 0.141969777060592 
2421	 0.138117663400313 
2422	 0.137679064215298 
2423	 0.140130136932566 
2424	 0.138481046959809 
2425	 0.135106072411592 
2426	 0.134836965456228 
2427	 0.133758751321077 
2428	 0.135051292875883 
2429	 0.135027596182425 
2430	 0.132286765971908 
2431	 0.133035184962123 
2432	 0.129543395231433 
2433	 0.129626753294242 
2434	 0.131144937683837 
2435	 0.132612607236663 
2436	 0.134806078020641 
2437	 0.140842534041022 
2438	 0.144035604192504 
2439	 0.14525024962165 
2440	 0.144442274154434 
2441	 0.140834053823937 
2442	 0.137278150422015 
2443	 0.130501315768 
2444	 0.125639601868972 
2445	 0.12240421378357 
2446	 0.119880363191035 
2447	 0.118409623603116 
2448	 0.117036262538307 
2449	 0.117501395288415 
2450	 0.114918812446209 
2451	 0.107158652917824 
2452	 0.106583165431014 
2453	 0.112956398584453 
2454	 0.113138602366268 
2455	 0.113984016247414 
2456	 0.113415085148119 
2457	 0.106204668518571 
2458	 0.102211228378249 
2459	 0.101105764770746 
2460	 9.95436331361034E-02 
2461	 9.57238452352729E-02 
2462	 9.60647679009043E-02 
2463	 0.100754068653097 
2464	 0.105381351132286 
2465	 0.115893735184431 
2466	 0.116349954402194 
2467	 0.110112163777197 
2468	 0.107876238398021 
2469	 9.40223030135812E-02 
2470	 9.57397088156476E-02 
2471	 0.115349519346117 
2472	 0.12116558035849 
2473	 0.132636961007025 
2474	 0.138448573117337 
2475	 0.130291640202014 
2476	 0.125803211180701 
2477	 0.122024680521281 
2478	 0.110644684727109 
2479	 8.32873939820389E-02 
2480	 7.09029750716972E-02 
2481	 0.063751563385104 
2482	 6.84522000112425E-02 
2483	 9.45239712223893E-02 
2484	 0.106521370378242 
2485	 0.131064559228979 
2486	 0.116357459252794 
2487	 0.100080176868964 
2488	 7.85706391644432E-02 
2489	 8.46232486574678E-02 
2490	 0.101369785236858 
2491	 0.107214349665331 
2492	 0.109373051997584 
2493	 4.52639487796596E-02 
2494	 1.49809070134246E-03 
2495	 1.70365106090175E-02 
2496	 0.029442959707151 
2497	 1.83864455435539E-02 
2498	 2.34782150216236E-02 
2499	 2.09128320523916E-02 
2500	-7.20989197436586E-03 
