Wavelength	ref00087.asd
350	 0.157526107214206 
351	 0.158588365858937 
352	 0.158699611554579 
353	 0.15870443033421 
354	 0.160057712350382 
355	 0.160645165330331 
356	 0.159845613183816 
357	 0.161559402099327 
358	 0.161554778161853 
359	 0.161210439144579 
360	 0.162656206567433 
361	 0.163583435441849 
362	 0.163790340059444 
363	 0.163756989577301 
364	 0.164224644488283 
365	 0.164292710899747 
366	 0.164576302173635 
367	 0.165238959889839 
368	 0.165601553235737 
369	 0.165583472663324 
370	 0.165753805264818 
371	 0.166470656615013 
372	 0.167006432518149 
373	 0.167404594208265 
374	 0.167549550979601 
375	 0.167379042163913 
376	 0.167720779232497 
377	 0.168361639014095 
378	 0.168961503971695 
379	 0.169175442369487 
380	 0.169178003660805 
381	 0.169626656497262 
382	 0.170694245937351 
383	 0.171040050183057 
384	 0.17138765739781 
385	 0.171750496362798 
386	 0.172003238927104 
387	 0.173229198089514 
388	 0.173871802549009 
389	 0.173716334645816 
390	 0.174092216509314 
391	 0.174692588901127 
392	 0.175416319022063 
393	 0.176088554903321 
394	 0.176273215688751 
395	 0.176752370967449 
396	 0.177527625831269 
397	 0.178282745078967 
398	 0.178772192228299 
399	 0.17890644658014 
400	 0.179104079230088 
401	 0.180047479679937 
402	 0.180278757447237 
403	 0.180456444463837 
404	 0.181058290668352 
405	 0.181527552756845 
406	 0.182517485875305 
407	 0.183356436947812 
408	 0.183327221462191 
409	 0.183910099354244 
410	 0.184487926237369 
411	 0.184989077100252 
412	 0.185840790540879 
413	 0.18624060522357 
414	 0.186843225168988 
415	 0.187907142112519 
416	 0.188387044100026 
417	 0.189045316827229 
418	 0.189630501071766 
419	 0.1898195059349 
420	 0.190676218537657 
421	 0.191524435601484 
422	 0.192051849627569 
423	 0.192377633941498 
424	 0.19293228770747 
425	 0.193678950909719 
426	 0.194403780326969 
427	 0.194657469997631 
428	 0.195342457484613 
429	 0.196234984026756 
430	 0.196808620342626 
431	 0.197252151253392 
432	 0.1979848693934 
433	 0.198876240762954 
434	 0.199356873543869 
435	 0.199703996523934 
436	 0.200180089521566 
437	 0.200824742411474 
438	 0.20120437881229 
439	 0.201906676405807 
440	 0.202574766597019 
441	 0.202768755489264 
442	 0.203519078647737 
443	 0.204151410487256 
444	 0.204494927120983 
445	 0.204939171796402 
446	 0.20540358193631 
447	 0.205874518831595 
448	 0.206362472360655 
449	 0.206948021534482 
450	 0.207313304897364 
451	 0.20761916811399 
452	 0.208144119000989 
453	 0.208437562556293 
454	 0.208858816364742 
455	 0.209456002736134 
456	 0.209852993790476 
457	 0.2103479126711 
458	 0.210820977326033 
459	 0.211164111888608 
460	 0.211567051907282 
461	 0.212055113838899 
462	 0.212497844089187 
463	 0.212728259610526 
464	 0.213074831714322 
465	 0.213479732918337 
466	 0.213926210602249 
467	 0.214529960207362 
468	 0.214901191027132 
469	 0.215185757800689 
470	 0.21562138290652 
471	 0.216157805320258 
472	 0.216690631832674 
473	 0.217150098117602 
474	 0.21752073111761 
475	 0.218052863230613 
476	 0.218523806760362 
477	 0.218829580954871 
478	 0.219203400967288 
479	 0.219656584698896 
480	 0.220099859854953 
481	 0.220444483457055 
482	 0.220821343877223 
483	 0.221241002716002 
484	 0.221728047433257 
485	 0.222310550710867 
486	 0.222765212905904 
487	 0.223208723194592 
488	 0.223733405412555 
489	 0.224176237751878 
490	 0.224711176737146 
491	 0.225230620721993 
492	 0.225561673765291 
493	 0.225897410663086 
494	 0.226343402135517 
495	 0.226862630817242 
496	 0.22725781276002 
497	 0.227608239597254 
498	 0.227998537913869 
499	 0.228471237794204 
500	 0.22891070556188 
501	 0.229446067191337 
502	 0.230041721443431 
503	 0.230573926267362 
504	 0.231162956912199 
505	 0.231634397232688 
506	 0.231973070411176 
507	 0.232471930519341 
508	 0.232943155062508 
509	 0.233359778915504 
510	 0.233756371258105 
511	 0.234208479363108 
512	 0.234762130230028 
513	 0.235317845492158 
514	 0.235675495637335 
515	 0.236082323925422 
516	 0.236601525817353 
517	 0.237200884697211 
518	 0.237713348617991 
519	 0.238272011304881 
520	 0.238801953837042 
521	 0.239210023797165 
522	 0.239771731876495 
523	 0.240321067347614 
524	 0.240797181241076 
525	 0.24128179260783 
526	 0.241828628915203 
527	 0.242450910031613 
528	 0.243091659546582 
529	 0.243510205799064 
530	 0.244028576875656 
531	 0.244603279992853 
532	 0.245020430209473 
533	 0.245522093120456 
534	 0.2461148680568 
535	 0.246701402027828 
536	 0.247057477574799 
537	 0.247570720321505 
538	 0.248191497001114 
539	 0.248767818136078 
540	 0.249348166363144 
541	 0.250076983430281 
542	 0.250781252042982 
543	 0.2510772021081 
544	 0.251765477699584 
545	 0.252428665257178 
546	 0.252793236221103 
547	 0.253394964606513 
548	 0.253959658338682 
549	 0.254413462161316 
550	 0.254790237234496 
551	 0.255279718724149 
552	 0.255792817496945 
553	 0.256281286631243 
554	 0.256772253718957 
555	 0.257211417989871 
556	 0.257702933243885 
557	 0.258300349100083 
558	 0.258737437540702 
559	 0.259318285252448 
560	 0.259938163088215 
561	 0.260290105206215 
562	 0.260904572213484 
563	 0.261486607004999 
564	 0.261910294383103 
565	 0.26253311556528 
566	 0.26312872243013 
567	 0.26364523294088 
568	 0.264100760971002 
569	 0.264558217233856 
570	 0.265044511506533 
571	 0.265521588927002 
572	 0.265899677351656 
573	 0.266189561088913 
574	 0.266532708890569 
575	 0.266999173611675 
576	 0.267417901291151 
577	 0.267821363459204 
578	 0.268210460799271 
579	 0.268582031014251 
580	 0.268978660341887 
581	 0.269322740215822 
582	 0.269560229290086 
583	 0.269679168093178 
584	 0.269983291996446 
585	 0.270368538523602 
586	 0.270673301888756 
587	 0.270962902215417 
588	 0.271441707348044 
589	 0.272001618376386 
590	 0.272306423403942 
591	 0.272452914098082 
592	 0.272627103946921 
593	 0.272883271192609 
594	 0.273000814059341 
595	 0.273190945514535 
596	 0.273402380277725 
597	 0.273518153109234 
598	 0.273545081010697 
599	 0.273665291763728 
600	 0.273865346126526 
601	 0.273939763100716 
602	 0.274084558454857 
603	 0.274203848626592 
604	 0.274252349171753 
605	 0.274480993591333 
606	 0.274631952770768 
607	 0.274786099246321 
608	 0.275141835564247 
609	 0.275436040850178 
610	 0.275672595889022 
611	 0.27588789302891 
612	 0.276127195029529 
613	 0.276290134831563 
614	 0.276460434121258 
615	 0.276713659395732 
616	 0.27690733547125 
617	 0.27708344780828 
618	 0.277285939230199 
619	 0.277543443605324 
620	 0.27768779084777 
621	 0.277846915965729 
622	 0.278090000482414 
623	 0.278299567549747 
624	 0.278445221926565 
625	 0.278627176482453 
626	 0.278933602071562 
627	 0.279124406722474 
628	 0.279314566840381 
629	 0.279517338998421 
630	 0.279640423781469 
631	 0.279891005228653 
632	 0.280134327817621 
633	 0.280255780355159 
634	 0.280353617469139 
635	 0.280540225159472 
636	 0.280741236522382 
637	 0.280842225516245 
638	 0.281150056292159 
639	 0.281382547174333 
640	 0.281461742784201 
641	 0.281622553731529 
642	 0.281814598898277 
643	 0.282005577205389 
644	 0.282195528848644 
645	 0.282482394934569 
646	 0.282806398833238 
647	 0.283174445551995 
648	 0.28359157719691 
649	 0.283677233824566 
650	 0.283669936494089 
651	 0.283778707108794 
652	 0.284042321075347 
653	 0.284135438640944 
654	 0.284137553760952 
655	 0.284253275354121 
656	 0.284658224668697 
657	 0.284931436586262 
658	 0.284976057928256 
659	 0.285028552009431 
660	 0.285129273416926 
661	 0.285158220930988 
662	 0.28513836581479 
663	 0.285434078363413 
664	 0.285667849994606 
665	 0.285813461881129 
666	 0.28597028057318 
667	 0.286186399336968 
668	 0.286437851744624 
669	 0.286665181666605 
670	 0.286798514542165 
671	 0.287009933771311 
672	 0.287280168153368 
673	 0.287509021406691 
674	 0.287468594906403 
675	 0.28766014537319 
676	 0.287988147373981 
677	 0.288155651582359 
678	 0.288233440974337 
679	 0.288402372824016 
680	 0.288672928761173 
681	 0.288871909448684 
682	 0.288988039852598 
683	 0.289172713308298 
684	 0.289476528496652 
685	 0.289582516917618 
686	 0.289781502662425 
687	 0.290031127064739 
688	 0.290149988759516 
689	 0.290410176026707 
690	 0.290742371221062 
691	 0.291066063503673 
692	 0.291311382233733 
693	 0.291992170431044 
694	 0.292631071538734 
695	 0.292795580346218 
696	 0.292752816507532 
697	 0.292752031637923 
698	 0.29291515579008 
699	 0.293248001497907 
700	 0.293527926162721 
701	 0.293751528542841 
702	 0.293929004140277 
703	 0.294062303798053 
704	 0.294094976865199 
705	 0.294159564040953 
706	 0.294355779683191 
707	 0.294602379968475 
708	 0.294785077916166 
709	 0.294930055738901 
710	 0.295138075850789 
711	 0.295511179874588 
712	 0.295686132112099 
713	 0.295707660895711 
714	 0.296117603386058 
715	 0.296730038431694 
716	 0.297748662010887 
717	 0.299254689356076 
718	 0.300698714868657 
719	 0.301388137017573 
720	 0.301207368351363 
721	 0.300623245208076 
722	 0.300231886200585 
723	 0.300596888801441 
724	 0.301570889250327 
725	 0.302183295220768 
726	 0.30258390870688 
727	 0.302732468471068 
728	 0.302721903990065 
729	 0.302982607629639 
730	 0.30322563037239 
731	 0.30324114949101 
732	 0.30294452143125 
733	 0.302633557503407 
734	 0.302498251431524 
735	 0.302608371282234 
736	 0.302917446482344 
737	 0.303047333543192 
738	 0.303162033502022 
739	 0.303369931625 
740	 0.3034313745141 
741	 0.30360264673705 
742	 0.303780833180219 
743	 0.303850155611467 
744	 0.304242731087032 
745	 0.30441614263649 
746	 0.304451761898033 
747	 0.304857569266406 
748	 0.305009653702211 
749	 0.305220566496685 
750	 0.305634638565226 
751	 0.305904184039838 
752	 0.306157513931448 
753	 0.306378964194138 
754	 0.306548039577194 
755	 0.306734220821778 
756	 0.307020527424103 
757	 0.30725141236538 
758	 0.307236007663567 
759	 0.307810974706325 
760	 0.308768506267138 
761	 0.309666903969746 
762	 0.309841475360997 
763	 0.309942147361919 
764	 0.310038460694327 
765	 0.310029463518212 
766	 0.309779653290557 
767	 0.309961636055846 
768	 0.310261407793859 
769	 0.310254295298945 
770	 0.310344649431349 
771	 0.310500583091752 
772	 0.31072764522684 
773	 0.311049452781124 
774	 0.311144089536871 
775	 0.311333629510735 
776	 0.311708238890752 
777	 0.31179506475187 
778	 0.31211921096039 
779	 0.312471849909043 
780	 0.312598439725905 
781	 0.312846000953856 
782	 0.313001626682205 
783	 0.31316716788368 
784	 0.313542819698887 
785	 0.313746254671524 
786	 0.314041260144931 
787	 0.314491311312499 
788	 0.31489423377545 
789	 0.315364565965504 
790	 0.315700615340647 
791	 0.315845850721614 
792	 0.316164201156032 
793	 0.316299408147967 
794	 0.316432177387902 
795	 0.316785732730489 
796	 0.317040140467765 
797	 0.317348734189051 
798	 0.317670496477962 
799	 0.31787876486603 
800	 0.318150778609609 
801	 0.318450726447752 
802	 0.318705471580565 
803	 0.318841464519773 
804	 0.319044069957988 
805	 0.319285020351316 
806	 0.319495482156633 
807	 0.319604454159658 
808	 0.319932247167605 
809	 0.320325123145199 
810	 0.320667998818474 
811	 0.321661947879117 
812	 0.322574684721184 
813	 0.323360600636696 
814	 0.324348442219248 
815	 0.32528499832082 
816	 0.325959559247957 
817	 0.326253942639326 
818	 0.326205760181761 
819	 0.326201202860328 
820	 0.326064005931174 
821	 0.325876024051041 
822	 0.326308706208781 
823	 0.326895536631289 
824	 0.327178305953235 
825	 0.326964434902244 
826	 0.326744263710309 
827	 0.326888848824611 
828	 0.327369959774658 
829	 0.327873691410486 
830	 0.327782676202244 
831	 0.327864544362416 
832	 0.32817652544605 
833	 0.328234632204368 
834	 0.32831173183662 
835	 0.328238626379899 
836	 0.328123429076588 
837	 0.328401961565077 
838	 0.328371357456825 
839	 0.328486135865201 
840	 0.328929330034005 
841	 0.328918938568474 
842	 0.328813515072389 
843	 0.328940787977523 
844	 0.329396192420677 
845	 0.329563946640094 
846	 0.329660733620206 
847	 0.3298681235253 
848	 0.330274710719369 
849	 0.33057570806598 
850	 0.330848334428635 
851	 0.331127126194121 
852	 0.331388516296407 
853	 0.331487830739305 
854	 0.331765107603647 
855	 0.332221088075422 
856	 0.332440203178726 
857	 0.332567280206512 
858	 0.332784281991246 
859	 0.333099116907853 
860	 0.333238105022866 
861	 0.333658513129919 
862	 0.334066744310591 
863	 0.334227666748427 
864	 0.334549724999891 
865	 0.334774734187464 
866	 0.335025014046135 
867	 0.335394902750368 
868	 0.335354798340607 
869	 0.335563141758853 
870	 0.335986899946426 
871	 0.336304116886307 
872	 0.336644148727211 
873	 0.336771884955432 
874	 0.33688040540491 
875	 0.337386927058387 
876	 0.337936095249184 
877	 0.33823820905092 
878	 0.338340641145451 
879	 0.338604412216671 
880	 0.339082118415816 
881	 0.339362730445455 
882	 0.339380870889809 
883	 0.339617850657101 
884	 0.340066067540238 
885	 0.340398642822876 
886	 0.340571007547239 
887	 0.341162745843339 
888	 0.341618511819698 
889	 0.341900919274148 
890	 0.342104895899359 
891	 0.342232256004977 
892	 0.34322880620534 
893	 0.344206896129237 
894	 0.344418321172056 
895	 0.346000774671173 
896	 0.346986644251528 
897	 0.34749516133274 
898	 0.348373281857966 
899	 0.349071631281792 
900	 0.349642446166525 
901	 0.349866958383445 
902	 0.349556171015291 
903	 0.349268894937387 
904	 0.349079780080627 
905	 0.349249612554704 
906	 0.349994756340911 
907	 0.350459329222153 
908	 0.351446108382308 
909	 0.352645505553738 
910	 0.352927156116434 
911	 0.353556070262505 
912	 0.353853619458817 
913	 0.353842306367438 
914	 0.354307361265184 
915	 0.354730858487434 
916	 0.354946438538899 
917	 0.354917944604941 
918	 0.354726258433213 
919	 0.354501769720581 
920	 0.35429772890175 
921	 0.354253282412333 
922	 0.354586413950006 
923	 0.354717838994656 
924	 0.355186335953067 
925	 0.356116955679967 
926	 0.356744020668633 
927	 0.358432852093335 
928	 0.360162969072465 
929	 0.361374181767703 
930	 0.363456297214748 
931	 0.365897974280831 
932	 0.36872888784748 
933	 0.371458531982387 
934	 0.372481239751632 
935	 0.373839485085105 
936	 0.375176676332282 
937	 0.375377518228762 
938	 0.373409726254404 
939	 0.373363348949119 
940	 0.37353841265435 
941	 0.372503131823361 
942	 0.371880098485988 
943	 0.371856034805089 
944	 0.372089769012764 
945	 0.372603070988338 
946	 0.374545022126012 
947	 0.375003111085853 
948	 0.374913685914692 
949	 0.375247611682346 
950	 0.37473328836328 
951	 0.374433752222845 
952	 0.374784366077959 
953	 0.375566638347573 
954	 0.375679931449521 
955	 0.375547945518159 
956	 0.375583050179643 
957	 0.375870589841067 
958	 0.375884989019482 
959	 0.37539619180796 
960	 0.373953629410423 
961	 0.372654955028923 
962	 0.37501582788463 
963	 0.374327632620593 
964	 0.372755682405611 
965	 0.37223133923782 
966	 0.370874574287771 
967	 0.370670974655385 
968	 0.370497989812501 
969	 0.369743635556956 
970	 0.369563098210041 
971	 0.369795976354087 
972	 0.370419825687248 
973	 0.371014457109332 
974	 0.370746237028324 
975	 0.371256990642887 
976	 0.372112362106046 
977	 0.372507683944139 
978	 0.371930046828046 
979	 0.371936651204034 
980	 0.372136674340182 
981	 0.372004438026017 
982	 0.371391233633808 
983	 0.371345878591768 
984	 0.37155624434451 
985	 0.371604787604045 
986	 0.371309157885584 
987	 0.371506989718385 
988	 0.371281807813432 
989	 0.371335305223822 
990	 0.372953266760295 
991	 0.372289073801466 
992	 0.372210624570771 
993	 0.372901769376611 
994	 0.372631607884665 
995	 0.37089745427862 
996	 0.371624299107041 
997	 0.373198056287004 
998	 0.372495108705985 
999	 0.373128492045047 
1000	 0.372622237631112 
1001	 0.375092936191444 
1002	 0.37526982097418 
1003	 0.375494455458824 
1004	 0.375743085905561 
1005	 0.375912466555178 
1006	 0.376114603118431 
1007	 0.3763417342883 
1008	 0.376422025511461 
1009	 0.376603267601658 
1010	 0.376878774058293 
1011	 0.377269043666915 
1012	 0.377536017725128 
1013	 0.377793814360058 
1014	 0.378028729099858 
1015	 0.378248622011658 
1016	 0.378479484294085 
1017	 0.378665427146932 
1018	 0.378941254640806 
1019	 0.37934823400971 
1020	 0.379573723613471 
1021	 0.379803499041108 
1022	 0.38003861234406 
1023	 0.380190156983413 
1024	 0.380209010791254 
1025	 0.38056794494761 
1026	 0.380820159897168 
1027	 0.38106265293605 
1028	 0.381422175038519 
1029	 0.381564693569289 
1030	 0.381599830124898 
1031	 0.381618146486019 
1032	 0.381691535912108 
1033	 0.38187175266428 
1034	 0.382189836206288 
1035	 0.382452777670176 
1036	 0.382804554845347 
1037	 0.383105853426812 
1038	 0.383406594197145 
1039	 0.383620102578166 
1040	 0.383828592688375 
1041	 0.3838461084966 
1042	 0.383968789497273 
1043	 0.384289814687715 
1044	 0.38459446146296 
1045	 0.38489780506835 
1046	 0.385095627466834 
1047	 0.385187717771332 
1048	 0.385195287981828 
1049	 0.385397252509011 
1050	 0.385672942682027 
1051	 0.386113077924225 
1052	 0.386325409549765 
1053	 0.386595646686015 
1054	 0.386835805357511 
1055	 0.3869016122514 
1056	 0.387077680888785 
1057	 0.387293700610274 
1058	 0.387513496034494 
1059	 0.387731743895586 
1060	 0.388084126220245 
1061	 0.388468296610085 
1062	 0.388701902470591 
1063	 0.388973174565852 
1064	 0.389170152968526 
1065	 0.389352103179524 
1066	 0.389466799879689 
1067	 0.389744846348331 
1068	 0.390027642019035 
1069	 0.390225354292928 
1070	 0.390551770015685 
1071	 0.390811532226885 
1072	 0.390866022872649 
1073	 0.391145838390505 
1074	 0.391440979705496 
1075	 0.391699185474132 
1076	 0.392124977550068 
1077	 0.392392715172353 
1078	 0.392497454254574 
1079	 0.392579613646001 
1080	 0.392798589930068 
1081	 0.393048087303156 
1082	 0.393359385666742 
1083	 0.393631873641513 
1084	 0.394050357217885 
1085	 0.394484873672683 
1086	 0.394829281241878 
1087	 0.395250057097047 
1088	 0.395679712331871 
1089	 0.395993510367396 
1090	 0.396325215450997 
1091	 0.396808485421529 
1092	 0.397409575182219 
1093	 0.397959097418829 
1094	 0.398443001004981 
1095	 0.399070142108484 
1096	 0.399682922771523 
1097	 0.400213970729878 
1098	 0.400846780893337 
1099	 0.401620855222225 
1100	 0.402317344549517 
1101	 0.402880070970358 
1102	 0.403528633999142 
1103	 0.404193127912976 
1104	 0.404870563909855 
1105	 0.405766573669362 
1106	 0.406831930181514 
1107	 0.407884399488819 
1108	 0.408974202386818 
1109	 0.410108452742545 
1110	 0.411239344967328 
1111	 0.412546093010165 
1112	 0.414069894894928 
1113	 0.415669704553306 
1114	 0.417574580068235 
1115	 0.419460270001046 
1116	 0.421410135428726 
1117	 0.423537850250368 
1118	 0.425943242966276 
1119	 0.428218889441384 
1120	 0.430398376552585 
1121	 0.432534372907566 
1122	 0.434136904941056 
1123	 0.435277260162586 
1124	 0.43656092709263 
1125	 0.437666327865022 
1126	 0.438333119907096 
1127	 0.438764135824641 
1128	 0.438871417824574 
1129	 0.43832288195724 
1130	 0.43795539271814 
1131	 0.43737129951066 
1132	 0.437006502931498 
1133	 0.436676037143461 
1134	 0.436495435165379 
1135	 0.436176420036136 
1136	 0.435954443510911 
1137	 0.435981076612864 
1138	 0.436023503345919 
1139	 0.436385773787764 
1140	 0.436907156912779 
1141	 0.437544095746752 
1142	 0.438281820545569 
1143	 0.438801522358604 
1144	 0.439376593415135 
1145	 0.439799986316137 
1146	 0.440006150293856 
1147	 0.440158780641084 
1148	 0.440523274635977 
1149	 0.440379908836127 
1150	 0.439891385951763 
1151	 0.439335204931216 
1152	 0.438597005680932 
1153	 0.437640334912544 
1154	 0.436748052306563 
1155	 0.436083844068453 
1156	 0.435399467102996 
1157	 0.434610504043721 
1158	 0.43380892065296 
1159	 0.432959618106086 
1160	 0.432322603556978 
1161	 0.431707635208043 
1162	 0.43124285974364 
1163	 0.430978844049167 
1164	 0.430671263026124 
1165	 0.430362769057823 
1166	 0.430113069603108 
1167	 0.429841355580283 
1168	 0.429687428199205 
1169	 0.429614226741719 
1170	 0.429567066509001 
1171	 0.429576815224707 
1172	 0.429765688762897 
1173	 0.429880912617714 
1174	 0.429992519531803 
1175	 0.430224322306936 
1176	 0.430315797950783 
1177	 0.430505122708644 
1178	 0.430757082244881 
1179	 0.431009318460779 
1180	 0.431322242396419 
1181	 0.431558219760255 
1182	 0.431789448930268 
1183	 0.431978369565614 
1184	 0.432074109725998 
1185	 0.432212256673403 
1186	 0.432421766131579 
1187	 0.432505608606938 
1188	 0.432502717789323 
1189	 0.432522280926805 
1190	 0.432508823518072 
1191	 0.432535180176581 
1192	 0.432658558975347 
1193	 0.432838549577662 
1194	 0.433032287260197 
1195	 0.433290980603052 
1196	 0.43345303334698 
1197	 0.433629941477265 
1198	 0.433767532744838 
1199	 0.433751237369598 
1200	 0.433931584384263 
1201	 0.434237165066134 
1202	 0.434461395523922 
1203	 0.434817857924241 
1204	 0.435004193876434 
1205	 0.435045759530107 
1206	 0.435116671450608 
1207	 0.435045462040367 
1208	 0.435108687603307 
1209	 0.435324354942457 
1210	 0.435376808824711 
1211	 0.435475610146457 
1212	 0.435643629437281 
1213	 0.435725151592235 
1214	 0.435708173420264 
1215	 0.435805721883706 
1216	 0.435915484507476 
1217	 0.436071597384656 
1218	 0.43634323733863 
1219	 0.436471859189186 
1220	 0.436575644432017 
1221	 0.436653773946805 
1222	 0.436594260749481 
1223	 0.436645711787147 
1224	 0.436712781006549 
1225	 0.436855542256654 
1226	 0.437142362446194 
1227	 0.43731227514385 
1228	 0.437490762861895 
1229	 0.437630227288811 
1230	 0.437678289271442 
1231	 0.437731460350842 
1232	 0.437812426877538 
1233	 0.43789055426296 
1234	 0.438040573905515 
1235	 0.438230386762561 
1236	 0.438410292094348 
1237	 0.438659324375584 
1238	 0.438860381722537 
1239	 0.439028431950997 
1240	 0.439202571858115 
1241	 0.439380077594222 
1242	 0.439557250365408 
1243	 0.439720266849047 
1244	 0.439888457126951 
1245	 0.440075422359586 
1246	 0.440248373642153 
1247	 0.440400430440095 
1248	 0.440569243126616 
1249	 0.440734135866018 
1250	 0.440909442527645 
1251	 0.44114839739107 
1252	 0.441295474334101 
1253	 0.441480130270704 
1254	 0.441668576629253 
1255	 0.441873069933289 
1256	 0.442086172480569 
1257	 0.442287057606321 
1258	 0.44245836968943 
1259	 0.442725766644318 
1260	 0.443116614416734 
1261	 0.443320309937718 
1262	 0.443457648354759 
1263	 0.443666992067668 
1264	 0.443711728877461 
1265	 0.443907744389128 
1266	 0.444292722601546 
1267	 0.444630564974537 
1268	 0.445017069347205 
1269	 0.445312235378409 
1270	 0.445568468457671 
1271	 0.445829207450503 
1272	 0.446037113547773 
1273	 0.446185226176158 
1274	 0.446424149756188 
1275	 0.446710740903139 
1276	 0.447002192323397 
1277	 0.447329924258401 
1278	 0.447617344119809 
1279	 0.447903632554301 
1280	 0.448203560392141 
1281	 0.44846960826353 
1282	 0.44878890561417 
1283	 0.449179611144017 
1284	 0.449507800885549 
1285	 0.449822265987251 
1286	 0.450135615908185 
1287	 0.450393904408719 
1288	 0.450712816535342 
1289	 0.45102875088249 
1290	 0.451414964630624 
1291	 0.451920558423772 
1292	 0.45234344542172 
1293	 0.452770660983706 
1294	 0.453198253904843 
1295	 0.453548561850406 
1296	 0.453959166985506 
1297	 0.454365121490055 
1298	 0.454807513566875 
1299	 0.455238866904846 
1300	 0.455648108802836 
1301	 0.4561162001894 
1302	 0.456629805467739 
1303	 0.457135741599717 
1304	 0.457683344166897 
1305	 0.458193307489046 
1306	 0.45865343349971 
1307	 0.459200364827776 
1308	 0.459835500857283 
1309	 0.460365648835 
1310	 0.460898175231815 
1311	 0.461414223223946 
1312	 0.461748400635228 
1313	 0.462271230818344 
1314	 0.462993874022983 
1315	 0.463582978955048 
1316	 0.464148302684664 
1317	 0.464759749736151 
1318	 0.465318259376174 
1319	 0.465893487726685 
1320	 0.466491198774407 
1321	 0.467186255536523 
1322	 0.467889036609392 
1323	 0.468570785882077 
1324	 0.469353513858361 
1325	 0.470261942656534 
1326	 0.47116084899714 
1327	 0.472112151790397 
1328	 0.473077779927465 
1329	 0.474158229125626 
1330	 0.475117540440192 
1331	 0.476069110216554 
1332	 0.476915339985156 
1333	 0.477609857561327 
1334	 0.478336594226037 
1335	 0.479013874394953 
1336	 0.479658006014591 
1337	 0.480183057213531 
1338	 0.480877434997881 
1339	 0.481480337011641 
1340	 0.482422522942995 
1341	 0.48385529446213 
1342	 0.485285751851645 
1343	 0.487338699450794 
1344	 0.48925764524931 
1345	 0.491288898388797 
1346	 0.49363871561463 
1347	 0.496631957655244 
1348	 0.499651701093148 
1349	 0.503260104042247 
1350	 0.508134552770508 
1351	 0.513144171193076 
1352	 0.51854285123879 
1353	 0.524908489963487 
1354	 0.530802651547265 
1355	 0.539289524019316 
1356	 0.546046754217365 
1357	 0.557130185667313 
1358	 0.56491144106195 
1359	 0.58235954624524 
1360	 0.598367139121038 
1361	 0.619710887135951 
1362	 0.624257629051732 
1363	 0.643355088478981 
1364	 0.630239409734727 
1365	 0.632792025358325 
1366	 0.644009372923144 
1367	 0.652608675096594 
1368	 0.655485094138477 
1369	 0.658725542989088 
1370	 0.665522756308549 
1371	 0.668177116547838 
1372	 0.663511526693482 
1373	 0.665142021160785 
1374	 0.672195581960213 
1375	 0.676833534084762 
1376	 0.668286959387462 
1377	 0.663968957607171 
1378	 0.662496931713509 
1379	 0.654973387772976 
1380	 0.651938095060659 
1381	 0.658011808374973 
1382	 0.659333621903799 
1383	 0.655570004963926 
1384	 0.655054790195398 
1385	 0.658954671114604 
1386	 0.659037935834008 
1387	 0.657401796174775 
1388	 0.654677558704433 
1389	 0.652407932981338 
1390	 0.648459554449081 
1391	 0.641806408980358 
1392	 0.637996273275235 
1393	 0.636225985764777 
1394	 0.631424780129086 
1395	 0.62585600769606 
1396	 0.621001040319209 
1397	 0.613673740219719 
1398	 0.609176386974233 
1399	 0.606977517397255 
1400	 0.603941462091805 
1401	 0.601547913028051 
1402	 0.59903291966338 
1403	 0.597880478411747 
1404	 0.594589685853054 
1405	 0.591010155928022 
1406	 0.586207044426515 
1407	 0.582794535926897 
1408	 0.578292423348751 
1409	 0.573780859472608 
1410	 0.570310272655666 
1411	 0.566148410168444 
1412	 0.561377794642336 
1413	 0.557472921442401 
1414	 0.553826341316346 
1415	 0.550985029079689 
1416	 0.548467692674719 
1417	 0.545974246282562 
1418	 0.544449405256297 
1419	 0.541618575228328 
1420	 0.537851684442599 
1421	 0.535410109146913 
1422	 0.53296959789784 
1423	 0.530879854571744 
1424	 0.529377213853611 
1425	 0.527878968237935 
1426	 0.526125839925587 
1427	 0.524813498696708 
1428	 0.523742713078753 
1429	 0.522902211622272 
1430	 0.522151226335138 
1431	 0.521623209404991 
1432	 0.521477118812067 
1433	 0.521247690720757 
1434	 0.521129466129458 
1435	 0.520940742233784 
1436	 0.520952019095415 
1437	 0.520586937996585 
1438	 0.520041940650737 
1439	 0.519401672674543 
1440	 0.518639121512046 
1441	 0.517698617626696 
1442	 0.516637495064194 
1443	 0.515583139900915 
1444	 0.514633758185876 
1445	 0.513147877092954 
1446	 0.51136299792899 
1447	 0.509882679047783 
1448	 0.508462514670638 
1449	 0.506928466727918 
1450	 0.50554534801663 
1451	 0.504454438285992 
1452	 0.50321115737032 
1453	 0.50173414105684 
1454	 0.500744414601999 
1455	 0.499781237837949 
1456	 0.499270071688072 
1457	 0.499020962809039 
1458	 0.498866532692987 
1459	 0.498961719846197 
1460	 0.499163847965987 
1461	 0.499445168803111 
1462	 0.499938070656443 
1463	 0.500791192963926 
1464	 0.501549153137724 
1465	 0.502496015107391 
1466	 0.503335163502202 
1467	 0.504321028564307 
1468	 0.50493601874632 
1469	 0.505256520493465 
1470	 0.505627949492565 
1471	 0.505920649268757 
1472	 0.50584147858266 
1473	 0.505620426034067 
1474	 0.505262573721031 
1475	 0.504463945487475 
1476	 0.503800762601137 
1477	 0.503234491705008 
1478	 0.50256434476403 
1479	 0.501671730595592 
1480	 0.501022630219386 
1481	 0.500647503052212 
1482	 0.500001959239117 
1483	 0.49942330409678 
1484	 0.498682767037509 
1485	 0.497624902563035 
1486	 0.496683909745118 
1487	 0.49571271606145 
1488	 0.494889403145042 
1489	 0.494109584741347 
1490	 0.493292021264762 
1491	 0.492477187708075 
1492	 0.49162993936054 
1493	 0.490740122644792 
1494	 0.49007917237169 
1495	 0.489602123790129 
1496	 0.489330536226745 
1497	 0.488918299779707 
1498	 0.488610369070658 
1499	 0.48825216032478 
1500	 0.487682710216062 
1501	 0.487539533633149 
1502	 0.487688958498618 
1503	 0.487587021745099 
1504	 0.487582269817192 
1505	 0.487488416039436 
1506	 0.487172324239794 
1507	 0.487102185652029 
1508	 0.487177455618144 
1509	 0.487220673383142 
1510	 0.487374021263898 
1511	 0.487342152374617 
1512	 0.487221268549729 
1513	 0.487177632637959 
1514	 0.487019073437328 
1515	 0.487004799029615 
1516	 0.487195456675269 
1517	 0.487180962144766 
1518	 0.48706843790305 
1519	 0.487035596226428 
1520	 0.486908392311727 
1521	 0.486911587506804 
1522	 0.487089432252709 
1523	 0.487128538581095 
1524	 0.487126719502753 
1525	 0.48714756379457 
1526	 0.487056847729311 
1527	 0.487130982484049 
1528	 0.487366749051763 
1529	 0.487491945024183 
1530	 0.487655146783914 
1531	 0.48777982130962 
1532	 0.487793281547645 
1533	 0.487885061362794 
1534	 0.488059869993926 
1535	 0.488159720661453 
1536	 0.488160736600562 
1537	 0.488300731003301 
1538	 0.488523864463522 
1539	 0.48868490560587 
1540	 0.488975703778562 
1541	 0.489133289788921 
1542	 0.489079497908047 
1543	 0.489157594977982 
1544	 0.489220179332922 
1545	 0.489370570957791 
1546	 0.489690886840153 
1547	 0.489906989114898 
1548	 0.490185826851929 
1549	 0.490332962178087 
1550	 0.490233303043516 
1551	 0.490323778784168 
1552	 0.490483965762692 
1553	 0.490600850330727 
1554	 0.490831306382599 
1555	 0.491023613989652 
1556	 0.491096869190336 
1557	 0.49122995644162 
1558	 0.491435668060706 
1559	 0.491616636949967 
1560	 0.491828910723999 
1561	 0.491991841001455 
1562	 0.492122612478035 
1563	 0.492239307894831 
1564	 0.492323665725319 
1565	 0.492338099147073 
1566	 0.492448267538073 
1567	 0.492751383733818 
1568	 0.492969888880523 
1569	 0.493286249053382 
1570	 0.493503258078699 
1571	 0.493646016020373 
1572	 0.49386132134949 
1573	 0.494092692880795 
1574	 0.494329492685473 
1575	 0.494611348895193 
1576	 0.494785310389403 
1577	 0.494883944398997 
1578	 0.495109192530012 
1579	 0.49531863876568 
1580	 0.495564863130055 
1581	 0.495953818948544 
1582	 0.496151725247693 
1583	 0.496219085456845 
1584	 0.496416942730756 
1585	 0.49660254826704 
1586	 0.496828443574581 
1587	 0.497162440195873 
1588	 0.497361669702619 
1589	 0.497477009631559 
1590	 0.497684139570628 
1591	 0.497908081044072 
1592	 0.498064070929823 
1593	 0.498248200064764 
1594	 0.498387591213354 
1595	 0.498405562965891 
1596	 0.498565617546364 
1597	 0.498821322540843 
1598	 0.498987883864711 
1599	 0.499144121206374 
1600	 0.499327626714987 
1601	 0.499498179548748 
1602	 0.499655494965938 
1603	 0.499846766716104 
1604	 0.500009799743901 
1605	 0.500118622690921 
1606	 0.500253017969011 
1607	 0.500398737077496 
1608	 0.500566890455631 
1609	 0.50075311317489 
1610	 0.500877349164935 
1611	 0.500996023862074 
1612	 0.501126464113497 
1613	 0.50121676208077 
1614	 0.50130730822097 
1615	 0.50143417079592 
1616	 0.501524580703998 
1617	 0.501518447454114 
1618	 0.501654055514297 
1619	 0.501896158638409 
1620	 0.502028670273861 
1621	 0.502166040255029 
1622	 0.502304038802663 
1623	 0.502394816405438 
1624	 0.502476199169805 
1625	 0.502603739482926 
1626	 0.502643340825164 
1627	 0.502481467848059 
1628	 0.502703582161539 
1629	 0.503143250334896 
1630	 0.503390456609389 
1631	 0.503839851427444 
1632	 0.503980264817135 
1633	 0.50382541397354 
1634	 0.50378309814688 
1635	 0.503644541550334 
1636	 0.503744049420352 
1637	 0.503920457775287 
1638	 0.504081244241687 
1639	 0.504448228721569 
1640	 0.504582795698998 
1641	 0.504534943465848 
1642	 0.504626549951756 
1643	 0.504700248838687 
1644	 0.504869285157101 
1645	 0.505150928754026 
1646	 0.505312371765198 
1647	 0.505448149524234 
1648	 0.50564074340361 
1649	 0.505768817050098 
1650	 0.505995105376097 
1651	 0.506392688780805 
1652	 0.506598983935187 
1653	 0.506728022666586 
1654	 0.506861121876095 
1655	 0.506882090720482 
1656	 0.507021578539251 
1657	 0.507251586573088 
1658	 0.507366083057822 
1659	 0.507532841615361 
1660	 0.507723177519628 
1661	 0.507801534678468 
1662	 0.507850581847046 
1663	 0.507894339061062 
1664	 0.50787215296154 
1665	 0.507827685338235 
1666	 0.507884578886313 
1667	 0.507970038658623 
1668	 0.508145614147554 
1669	 0.508251238606704 
1670	 0.50831905545658 
1671	 0.508311816589003 
1672	 0.508143672065112 
1673	 0.507998024881964 
1674	 0.50790737317927 
1675	 0.507969251781064 
1676	 0.508041204461694 
1677	 0.508060468307707 
1678	 0.508118783970334 
1679	 0.508111496967171 
1680	 0.5081111354218 
1681	 0.508023355122201 
1682	 0.507840152526958 
1683	 0.507789008728705 
1684	 0.507690943559906 
1685	 0.507691102676795 
1686	 0.507826720119135 
1687	 0.507766101304806 
1688	 0.507792077145982 
1689	 0.50787032684641 
1690	 0.507996398902127 
1691	 0.508094850831184 
1692	 0.508189008889109 
1693	 0.508271073194347 
1694	 0.508349407891385 
1695	 0.508365137635286 
1696	 0.508358795400259 
1697	 0.508337968819004 
1698	 0.50815211811415 
1699	 0.508134488443605 
1700	 0.508293105595066 
1701	 0.508346402502554 
1702	 0.508494119065773 
1703	 0.508510889957691 
1704	 0.508276075955219 
1705	 0.508185646143874 
1706	 0.508173785073582 
1707	 0.508128702207566 
1708	 0.50819397259784 
1709	 0.508098224528366 
1710	 0.507800159078098 
1711	 0.507637021454674 
1712	 0.507473080031186 
1713	 0.507363680989923 
1714	 0.507383825568438 
1715	 0.50731500084362 
1716	 0.507233170949588 
1717	 0.507093249311116 
1718	 0.506851958972892 
1719	 0.506650600021568 
1720	 0.506389214098389 
1721	 0.506230345089755 
1722	 0.506312546811796 
1723	 0.50607738523692 
1724	 0.505660443616338 
1725	 0.505324167418407 
1726	 0.5047528470854 
1727	 0.504454307692363 
1728	 0.504348174209649 
1729	 0.504340550204315 
1730	 0.50434584058116 
1731	 0.504471264723956 
1732	 0.504917083257907 
1733	 0.505241216703871 
1734	 0.505609326867711 
1735	 0.50622293713269 
1736	 0.506660025398114 
1737	 0.506835866196036 
1738	 0.507260251823571 
1739	 0.507493865356431 
1740	 0.507507849074626 
1741	 0.507992911900749 
1742	 0.508430185692226 
1743	 0.508711789886578 
1744	 0.509111996867052 
1745	 0.509143618982435 
1746	 0.509362885991905 
1747	 0.509761547477562 
1748	 0.509635696638285 
1749	 0.509644095409997 
1750	 0.50966775756526 
1751	 0.509403482621611 
1752	 0.509761091327764 
1753	 0.510449104058454 
1754	 0.510685039568893 
1755	 0.510778396095954 
1756	 0.511019806797582 
1757	 0.510947219549134 
1758	 0.511245939660989 
1759	 0.512034864046886 
1760	 0.512482044621711 
1761	 0.51284005743442 
1762	 0.513412515719694 
1763	 0.514032547327974 
1764	 0.51455397531385 
1765	 0.515053289470689 
1766	 0.515719270228906 
1767	 0.516295415009006 
1768	 0.517177594374564 
1769	 0.518616046630255 
1770	 0.519624792896222 
1771	 0.520473779136085 
1772	 0.521274861199983 
1773	 0.521851427038486 
1774	 0.522484082650246 
1775	 0.523516208524443 
1776	 0.524358129819386 
1777	 0.525040748367288 
1778	 0.526052174687336 
1779	 0.52668480521353 
1780	 0.527118084486405 
1781	 0.528215799951434 
1782	 0.529191893375931 
1783	 0.529934659176714 
1784	 0.530961748460942 
1785	 0.531621073702372 
1786	 0.532563290298512 
1787	 0.533952608832308 
1788	 0.534985171125245 
1789	 0.535825914295475 
1790	 0.536544291100572 
1791	 0.537188686372452 
1792	 0.538230246315495 
1793	 0.539728228854452 
1794	 0.541193402825909 
1795	 0.542855422948188 
1796	 0.544372944489109 
1797	 0.546270985429229 
1798	 0.549174731281858 
1799	 0.55180382533909 
1800	 0.55454745121211 
1801	 0.552265144630711 
1802	 0.557380244851361 
1803	 0.560555259174125 
1804	 0.563112638822996 
1805	 0.565957715887431 
1806	 0.567374247703846 
1807	 0.570530409161231 
1808	 0.576036719652908 
1809	 0.57921951618194 
1810	 0.583019709843816 
1811	 0.588193240072481 
1812	 0.59142571045641 
1813	 0.591309985353707 
1814	 0.594230585264446 
1815	 0.598456443611332 
1816	 0.60179407782975 
1817	 0.605196705926734 
1818	 0.610131817035814 
1819	 0.615619594322644 
1820	 0.621321691497101 
1821	 0.62463296216165 
1822	 0.629320761135012 
1823	 0.631203994896703 
1824	 0.621075191403571 
1825	 0.621962258193202 
1826	 0.63609483206433 
1827	 0.641434261571547 
1828	 0.645945948446148 
1829	 0.656337785845217 
1830	 0.663629602080079 
1831	 0.645962274961514 
1832	 0.653167883641925 
1833	 0.71070037520751 
1834	 0.735737319633223 
1835	 0.719843090581694 
1836	 0.740009923479839 
1837	 0.734276537641169 
1838	 0.727153094220589 
1839	 0.729514572417342 
1840	 0.779497373121107 
1841	 0.794437038851297 
1842	 0.786883534012462 
1843	 0.769994154799121 
1844	 0.740449302621518 
1845	 0.737856264291396 
1846	 0.713831585573941 
1847	 0.710791071631571 
1848	 0.72465578806192 
1849	 0.784915411976741 
1850	 0.809648011288819 
1851	 0.829760539316595 
1852	 0.851318429481724 
1853	 0.870408777496777 
1854	 0.889601723173837 
1855	 0.93259800820199 
1856	 0.920608455860767 
1857	 0.841752427159165 
1858	 0.844632611422287 
1859	 0.835675564737773 
1860	 0.822363809088398 
1861	 0.799787490537182 
1862	 0.770550517404455 
1863	 0.76938924194239 
1864	 0.769118834604032 
1865	 0.763208795028949 
1866	 0.777783898044723 
1867	 0.820005372252976 
1868	 0.803157851936023 
1869	 0.799584383768036 
1870	 0.791995646823483 
1871	 0.800376025554135 
1872	 0.791573369617703 
1873	 0.753369032609332 
1874	 0.750867180081046 
1875	 0.773934486607798 
1876	 0.777226192383997 
1877	 0.792286750813591 
1878	 0.779473435889413 
1879	 0.783039133381332 
1880	 0.765781702691831 
1881	 0.756976872325273 
1882	 0.753572704055405 
1883	 0.746421616127742 
1884	 0.733870500016424 
1885	 0.723430765634656 
1886	 0.713778925473581 
1887	 0.703837645213639 
1888	 0.682506965906117 
1889	 0.673774788804174 
1890	 0.667247530339352 
1891	 0.661600462503157 
1892	 0.656147706267484 
1893	 0.652281177164859 
1894	 0.65403516104668 
1895	 0.660583345973728 
1896	 0.664571072765071 
1897	 0.672610862866062 
1898	 0.694153736156152 
1899	 0.706113169812282 
1900	 0.725136693321275 
1901	 0.736192082165639 
1902	 0.751579794499516 
1903	 0.754100219420376 
1904	 0.719076294740437 
1905	 0.710539506516233 
1906	 0.718754409944802 
1907	 0.709611517215879 
1908	 0.701600681964704 
1909	 0.711556153608799 
1910	 0.702846604474599 
1911	 0.692789575929521 
1912	 0.678936234962364 
1913	 0.660242046121671 
1914	 0.648983368359067 
1915	 0.643658990730004 
1916	 0.633480779094455 
1917	 0.620463184692603 
1918	 0.619334485254742 
1919	 0.611180965168246 
1920	 0.598693203834078 
1921	 0.598128648947906 
1922	 0.600543831447801 
1923	 0.597024481076472 
1924	 0.590171633289677 
1925	 0.589193094525698 
1926	 0.589432326007405 
1927	 0.585863466269742 
1928	 0.583546791191055 
1929	 0.584822238758839 
1930	 0.575700970320805 
1931	 0.564285512675831 
1932	 0.56074240746942 
1933	 0.5576054745622 
1934	 0.552582684151786 
1935	 0.54983633351892 
1936	 0.545188046464785 
1937	 0.535875430072944 
1938	 0.532046766864966 
1939	 0.530440027213391 
1940	 0.52915328368326 
1941	 0.528804086989362 
1942	 0.529805550094657 
1943	 0.528980688686835 
1944	 0.528053085250092 
1945	 0.525778017317835 
1946	 0.521461207567583 
1947	 0.518046182893925 
1948	 0.513400929759804 
1949	 0.510036001007377 
1950	 0.506854305418333 
1951	 0.504584599742017 
1952	 0.503431985894191 
1953	 0.503645238352295 
1954	 0.504469871626177 
1955	 0.504832029381464 
1956	 0.503894962598628 
1957	 0.501026890522635 
1958	 0.498462833488089 
1959	 0.495041157236218 
1960	 0.492784142618416 
1961	 0.490888748974721 
1962	 0.48945609391395 
1963	 0.487690855039108 
1964	 0.486069565999622 
1965	 0.485038995203418 
1966	 0.483181735341165 
1967	 0.48211504386707 
1968	 0.482004124284436 
1969	 0.481487702178509 
1970	 0.481040293434574 
1971	 0.480706937365108 
1972	 0.480528113279253 
1973	 0.479767033614714 
1974	 0.479723384311472 
1975	 0.479229619077514 
1976	 0.478609788512027 
1977	 0.478663899129958 
1978	 0.478162339587939 
1979	 0.477850990744077 
1980	 0.477795649757706 
1981	 0.477282704658784 
1982	 0.477022900187396 
1983	 0.476854969684978 
1984	 0.476423599550464 
1985	 0.476029025304692 
1986	 0.475974649454272 
1987	 0.475349235798567 
1988	 0.474679534788418 
1989	 0.473984092431975 
1990	 0.473081887160998 
1991	 0.472266803441532 
1992	 0.472064494084613 
1993	 0.471937190783895 
1994	 0.47163419819302 
1995	 0.471471949119791 
1996	 0.471297526746552 
1997	 0.470941474576314 
1998	 0.470872499043798 
1999	 0.471415565321556 
2000	 0.47275605142784 
2001	 0.473621914127903 
2002	 0.474926252006958 
2003	 0.477653899753874 
2004	 0.479468389340363 
2005	 0.481958604572085 
2006	 0.48443529344491 
2007	 0.487268589091656 
2008	 0.488506512087978 
2009	 0.491092110535097 
2010	 0.493641768212871 
2011	 0.495923119929962 
2012	 0.498673203986164 
2013	 0.499695108776989 
2014	 0.500392027260242 
2015	 0.501303990445131 
2016	 0.502200716383467 
2017	 0.503883561894201 
2018	 0.505477830737276 
2019	 0.506266082491032 
2020	 0.506766159958551 
2021	 0.506725058360311 
2022	 0.506735318413911 
2023	 0.507252041626346 
2024	 0.508143338421564 
2025	 0.509475319994724 
2026	 0.510550364405415 
2027	 0.510938031763023 
2028	 0.511396383153375 
2029	 0.511925114724169 
2030	 0.512345630400526 
2031	 0.512748486675034 
2032	 0.513119238250773 
2033	 0.513443859803667 
2034	 0.513583159029734 
2035	 0.514168058006401 
2036	 0.51503467232313 
2037	 0.515383099859177 
2038	 0.515824595402955 
2039	 0.516113936601309 
2040	 0.516305973497983 
2041	 0.516857534959087 
2042	 0.517565710918484 
2043	 0.518398677322841 
2044	 0.518712238332892 
2045	 0.518965690449547 
2046	 0.519051814039069 
2047	 0.519416935365742 
2048	 0.519504121908986 
2049	 0.519705341060096 
2050	 0.520480824732161 
2051	 0.52096388954305 
2052	 0.521087780851209 
2053	 0.522138335528858 
2054	 0.523200661833016 
2055	 0.524050844072033 
2056	 0.524967859141896 
2057	 0.525131998604509 
2058	 0.525655315429877 
2059	 0.526069744863042 
2060	 0.526438844014278 
2061	 0.526641764082253 
2062	 0.527206722699777 
2063	 0.526994474647379 
2064	 0.526613959093699 
2065	 0.5270821468864 
2066	 0.52728312191876 
2067	 0.527029987509971 
2068	 0.527186216105118 
2069	 0.527622947974679 
2070	 0.527711404259724 
2071	 0.527613088131575 
2072	 0.5274859330486 
2073	 0.527195263910736 
2074	 0.526631347886183 
2075	 0.526784891837005 
2076	 0.527314279618495 
2077	 0.527908844946422 
2078	 0.528215383274733 
2079	 0.528019317898588 
2080	 0.528496966137404 
2081	 0.529135795658572 
2082	 0.529424166539615 
2083	 0.529898777000585 
2084	 0.529948402388785 
2085	 0.529578352903555 
2086	 0.529557268088052 
2087	 0.529697548732995 
2088	 0.529947773757158 
2089	 0.530307927790398 
2090	 0.53085380882233 
2091	 0.531461928252988 
2092	 0.531734783627367 
2093	 0.531627307085189 
2094	 0.531729387746382 
2095	 0.531908036141392 
2096	 0.532281342587616 
2097	 0.532721706597537 
2098	 0.53278951470919 
2099	 0.532486658656468 
2100	 0.532207090207357 
2101	 0.531956437782017 
2102	 0.531826781739557 
2103	 0.531826774698235 
2104	 0.531902979070762 
2105	 0.532006863087055 
2106	 0.53237748657422 
2107	 0.532628510722839 
2108	 0.532855044095073 
2109	 0.532629414986941 
2110	 0.532000785799878 
2111	 0.531679127143976 
2112	 0.531247955306671 
2113	 0.531153294092068 
2114	 0.531354061278664 
2115	 0.531097776562942 
2116	 0.531212931802755 
2117	 0.531326131645999 
2118	 0.531531669463479 
2119	 0.531543818399162 
2120	 0.531623763535161 
2121	 0.531361715984953 
2122	 0.531311958032792 
2123	 0.531718007040366 
2124	 0.532325627567779 
2125	 0.53288857728251 
2126	 0.533293598505536 
2127	 0.533162940465665 
2128	 0.532538838307034 
2129	 0.531852083577415 
2130	 0.530793491014329 
2131	 0.52994344506562 
2132	 0.529528907023029 
2133	 0.528841044146096 
2134	 0.52827742576337 
2135	 0.527949476522485 
2136	 0.527506434501425 
2137	 0.526470785251358 
2138	 0.525805938540294 
2139	 0.525078189306944 
2140	 0.523773386078026 
2141	 0.52230208008889 
2142	 0.520904686174031 
2143	 0.519736829402662 
2144	 0.518245160818768 
2145	 0.517130814599165 
2146	 0.516051495972667 
2147	 0.514727288656595 
2148	 0.513961884536688 
2149	 0.513522269610128 
2150	 0.513185124689653 
2151	 0.512467935618091 
2152	 0.511559483455622 
2153	 0.510747315352924 
2154	 0.509552965026007 
2155	 0.508545088523678 
2156	 0.50864547038745 
2157	 0.508175692733138 
2158	 0.508129083158062 
2159	 0.508510795397506 
2160	 0.508114828608568 
2161	 0.508130635790021 
2162	 0.508693769190022 
2163	 0.509273199431372 
2164	 0.510096793373938 
2165	 0.511216974336103 
2166	 0.512112635333804 
2167	 0.512760515795773 
2168	 0.513369243509656 
2169	 0.513944090873259 
2170	 0.514448264852393 
2171	 0.514829506547082 
2172	 0.515064626375485 
2173	 0.515613704819676 
2174	 0.516304324976647 
2175	 0.516558273207649 
2176	 0.516982041180698 
2177	 0.517365023386828 
2178	 0.51745317384922 
2179	 0.518354193075863 
2180	 0.519002274327278 
2181	 0.51902369939629 
2182	 0.519077470218899 
2183	 0.518878964589562 
2184	 0.519150085258199 
2185	 0.519707598563224 
2186	 0.519877746963331 
2187	 0.51991870587994 
2188	 0.519666840659739 
2189	 0.519351065504781 
2190	 0.518832855805002 
2191	 0.518432338365343 
2192	 0.51811348212678 
2193	 0.517432227619333 
2194	 0.517039474214909 
2195	 0.517058510221822 
2196	 0.516585140062028 
2197	 0.516613885799019 
2198	 0.516724445860509 
2199	 0.516031898270629 
2200	 0.515547079763819 
2201	 0.514973712930688 
2202	 0.513589516848019 
2203	 0.51240499960409 
2204	 0.511600602965824 
2205	 0.510496831340288 
2206	 0.509688321150628 
2207	 0.508799960074268 
2208	 0.507826732763286 
2209	 0.506653510622878 
2210	 0.505797679445633 
2211	 0.504851126958219 
2212	 0.504347560255957 
2213	 0.504489083012377 
2214	 0.504179186990176 
2215	 0.503812923141083 
2216	 0.503855267841541 
2217	 0.503002304621852 
2218	 0.502122198050649 
2219	 0.501414177084569 
2220	 0.499934028618764 
2221	 0.498664995432206 
2222	 0.498170164720267 
2223	 0.497708155932228 
2224	 0.496876060774379 
2225	 0.496283729895999 
2226	 0.494970905632736 
2227	 0.493071733696112 
2228	 0.492130051687102 
2229	 0.491035464244475 
2230	 0.489450605818973 
2231	 0.488209703173657 
2232	 0.487160686082059 
2233	 0.485778536940163 
2234	 0.484164183759376 
2235	 0.483367306119071 
2236	 0.482227095751931 
2237	 0.481326589248151 
2238	 0.480129692835798 
2239	 0.477901633109126 
2240	 0.475891774886052 
2241	 0.473448189315205 
2242	 0.470862583725913 
2243	 0.469418690863471 
2244	 0.467712789831509 
2245	 0.465598026254339 
2246	 0.463868362391237 
2247	 0.46145437298925 
2248	 0.458900072485962 
2249	 0.457385141389764 
2250	 0.455863725008278 
2251	 0.454218981246733 
2252	 0.452757245247754 
2253	 0.450206214245816 
2254	 0.446881456953594 
2255	 0.444109759988305 
2256	 0.441806540562824 
2257	 0.439708167630636 
2258	 0.437940203757517 
2259	 0.436212634789437 
2260	 0.433494380647203 
2261	 0.430135377495702 
2262	 0.426362176171967 
2263	 0.422831089911907 
2264	 0.420529014769387 
2265	 0.418553545445764 
2266	 0.416475383736115 
2267	 0.414547038274123 
2268	 0.412440532332411 
2269	 0.409924219322327 
2270	 0.407405749871441 
2271	 0.404579550412331 
2272	 0.401348859050955 
2273	 0.398262106055401 
2274	 0.395282675710097 
2275	 0.392220549492942 
2276	 0.388726905076257 
2277	 0.385224972427245 
2278	 0.381388242654171 
2279	 0.377560246711398 
2280	 0.374077416810765 
2281	 0.36998660180818 
2282	 0.3665730570461 
2283	 0.363917074938561 
2284	 0.361949515301397 
2285	 0.360546097036392 
2286	 0.358388128930386 
2287	 0.355879597705432 
2288	 0.35322498319742 
2289	 0.350318031517005 
2290	 0.347758773095728 
2291	 0.346269891436564 
2292	 0.344152697486522 
2293	 0.341664153088217 
2294	 0.339164071525578 
2295	 0.336695986901433 
2296	 0.335036120083665 
2297	 0.333594955568143 
2298	 0.331620206883772 
2299	 0.329498721072303 
2300	 0.327856404953249 
2301	 0.326194559373945 
2302	 0.325489758330818 
2303	 0.324941536901111 
2304	 0.323168371329981 
2305	 0.322115713668354 
2306	 0.320592788831632 
2307	 0.318750044616182 
2308	 0.317280719995375 
2309	 0.314764224202349 
2310	 0.313341815421133 
2311	 0.313072962077417 
2312	 0.312486021696674 
2313	 0.312196486220348 
2314	 0.31116729500275 
2315	 0.309114014119742 
2316	 0.307207252692958 
2317	 0.306339433500725 
2318	 0.30610061760421 
2319	 0.305035785404618 
2320	 0.303545937704184 
2321	 0.301236985726908 
2322	 0.296827779037222 
2323	 0.29334239418496 
2324	 0.289660149843368 
2325	 0.28728127640155 
2326	 0.28485702754025 
2327	 0.282900148458358 
2328	 0.281733372203223 
2329	 0.278811357118162 
2330	 0.276386257911116 
2331	 0.275211198490849 
2332	 0.273584447657828 
2333	 0.272530724984685 
2334	 0.270616332378787 
2335	 0.268442085923307 
2336	 0.266411505128163 
2337	 0.264672460602985 
2338	 0.263516552612792 
2339	 0.262513716853864 
2340	 0.262711857410169 
2341	 0.263338384561884 
2342	 0.265105878559603 
2343	 0.266569642930973 
2344	 0.267744989107464 
2345	 0.270367172011119 
2346	 0.27301444298992 
2347	 0.277203355737757 
2348	 0.281996794767772 
2349	 0.285063615586573 
2350	 0.290293495070605 
2351	 0.297546116167872 
2352	 0.303306420604348 
2353	 0.310162383420142 
2354	 0.316078261335437 
2355	 0.320500065518454 
2356	 0.328557490192646 
2357	 0.337055215800725 
2358	 0.342949063436858 
2359	 0.34994350955119 
2360	 0.356298172920914 
2361	 0.360984353890894 
2362	 0.370312323096509 
2363	 0.37982214494838 
2364	 0.386373941032461 
2365	 0.393798203054822 
2366	 0.399376118795916 
2367	 0.405819803123031 
2368	 0.411513910556543 
2369	 0.415047551257845 
2370	 0.419255907907775 
2371	 0.421379098274091 
2372	 0.425863617600927 
2373	 0.432587178899128 
2374	 0.439233137100816 
2375	 0.447978573368767 
2376	 0.453932987726331 
2377	 0.460024431614582 
2378	 0.462966907653991 
2379	 0.46204354939256 
2380	 0.463510848872392 
2381	 0.462320158819156 
2382	 0.463419047749157 
2383	 0.46830176322036 
2384	 0.468600420478198 
2385	 0.467650038901689 
2386	 0.467891078772117 
2387	 0.465569673085085 
2388	 0.465089096025493 
2389	 0.466484421861124 
2390	 0.466779670438801 
2391	 0.46695421944554 
2392	 0.466598951937148 
2393	 0.466440893074842 
2394	 0.46531113801102 
2395	 0.461121404904319 
2396	 0.460006264082642 
2397	 0.462310426359298 
2398	 0.462477710343017 
2399	 0.462926886392645 
2400	 0.46304646044952 
2401	 0.462500836945481 
2402	 0.458030935964659 
2403	 0.458795133273058 
2404	 0.46141013612557 
2405	 0.463210942730446 
2406	 0.464383275213658 
2407	 0.463492770961042 
2408	 0.468034309287091 
2409	 0.474000685089769 
2410	 0.47529842664454 
2411	 0.474739358698152 
2412	 0.468630297516153 
2413	 0.46131507866383 
2414	 0.461932066707164 
2415	 0.464664397258867 
2416	 0.466683699198981 
2417	 0.464167329220746 
2418	 0.45838043232245 
2419	 0.452901700500074 
2420	 0.447654722757989 
2421	 0.449197102359526 
2422	 0.449341346566781 
2423	 0.445128467336744 
2424	 0.441600800095334 
2425	 0.438602015210043 
2426	 0.437241059955282 
2427	 0.435391371459795 
2428	 0.433689830047162 
2429	 0.430217233681235 
2430	 0.42627143221261 
2431	 0.425943449827511 
2432	 0.425847684887291 
2433	 0.423782296984725 
2434	 0.420497196972544 
2435	 0.413639955735151 
2436	 0.409839140683222 
2437	 0.408121766151269 
2438	 0.405654998061549 
2439	 0.404456717552393 
2440	 0.405428318214595 
2441	 0.406108520039367 
2442	 0.406293720800019 
2443	 0.411509401141983 
2444	 0.411030989340346 
2445	 0.403995771820714 
2446	 0.400515040053963 
2447	 0.393803849704998 
2448	 0.391766494478422 
2449	 0.399676492444635 
2450	 0.399334032883214 
2451	 0.397764454346249 
2452	 0.392986885248736 
2453	 0.377059228732538 
2454	 0.369553709716645 
2455	 0.365834090813688 
2456	 0.362771179970383 
2457	 0.366186546205067 
2458	 0.363870873721709 
2459	 0.358361995624104 
2460	 0.353098277687963 
2461	 0.342508697881625 
2462	 0.336839886768847 
2463	 0.335227520035577 
2464	 0.333002505921659 
2465	 0.334079372516777 
2466	 0.33074722150204 
2467	 0.322964618674569 
2468	 0.317770230272201 
2469	 0.308867083487353 
2470	 0.305653152499756 
2471	 0.310381710697809 
2472	 0.308944781140993 
2473	 0.304052768314788 
2474	 0.307544521917345 
2475	 0.318037576984818 
2476	 0.316294093056531 
2477	 0.317031699314398 
2478	 0.314765851128678 
2479	 0.288920437823162 
2480	 0.288154147831254 
2481	 0.315789759875261 
2482	 0.312201014949563 
2483	 0.298616151047017 
2484	 0.291928172601432 
2485	 0.260689753938469 
2486	 0.269375750964838 
2487	 0.26876774967959 
2488	 0.26606148538924 
2489	 0.261807370533343 
2490	 0.27709199260538 
2491	 0.324909795620345 
2492	 0.346122293527831 
2493	 0.402415487875079 
2494	 0.447665913335744 
2495	 0.40233076480588 
2496	 0.37792840663971 
2497	 0.347458179886299 
2498	 0.249270650820782 
2499	 0.22862100595256 
2500	 0.27280108319576 
