Wavelength	ref00133.asd
350	 0.26981197343361 
351	 0.273744332358715 
352	 0.263746985547816 
353	 0.275107573288088 
354	 0.270316017518698 
355	 0.260193711594154 
356	 0.253553957828931 
357	 0.231309669389756 
358	 0.249607581063866 
359	 0.271370223311346 
360	 0.252737800429783 
361	 0.260558285015385 
362	 0.252599426247844 
363	 0.235477142453896 
364	 0.244366372920956 
365	 0.240396977908089 
366	 0.238116822129338 
367	 0.241147524713895 
368	 0.229830539049763 
369	 0.22008723362822 
370	 0.219955934520623 
371	 0.227968724729234 
372	 0.222414775574552 
373	 0.213305770192585 
374	 0.208399773213251 
375	 0.211721396784476 
376	 0.209791658088937 
377	 0.20648796085312 
378	 0.206096263948334 
379	 0.21107067792787 
380	 0.202925870240978 
381	 0.199963012568063 
382	 0.211525609542858 
383	 0.203517894565879 
384	 0.201170952398071 
385	 0.202191888892259 
386	 0.195403914768974 
387	 0.193122921314725 
388	 0.19503541842237 
389	 0.196385961753836 
390	 0.190277501380066 
391	 0.194745522818994 
392	 0.195578546600675 
393	 0.185483214836299 
394	 0.184073663418117 
395	 0.186923485010684 
396	 0.185741749501741 
397	 0.175984746225209 
398	 0.177476221788398 
399	 0.18012051496956 
400	 0.180150916803166 
401	 0.179837498061915 
402	 0.174093091477853 
403	 0.173691189809787 
404	 0.181918338026923 
405	 0.183492665724041 
406	 0.184458023294036 
407	 0.18218638494234 
408	 0.174428447776644 
409	 0.172857449915597 
410	 0.173448726892039 
411	 0.17343440285463 
412	 0.172150907645859 
413	 0.173611156022268 
414	 0.174352899086885 
415	 0.17242066198319 
416	 0.170930078567918 
417	 0.171529142943112 
418	 0.173237638832107 
419	 0.174076560088117 
420	 0.172196701955037 
421	 0.173820912923776 
422	 0.17730352571797 
423	 0.174712144983926 
424	 0.171705126452214 
425	 0.170485699735977 
426	 0.171395016633456 
427	 0.172290168776333 
428	 0.173996918473721 
429	 0.174549574212425 
430	 0.172424568163001 
431	 0.171907045184286 
432	 0.175159305092033 
433	 0.178447458884047 
434	 0.174460670883745 
435	 0.175394918619875 
436	 0.177218231254192 
437	 0.176252483683797 
438	 0.174558715115165 
439	 0.174249795189654 
440	 0.174338454967209 
441	 0.173330242148308 
442	 0.173606270812914 
443	 0.173945094136946 
444	 0.174284718878553 
445	 0.175673088822908 
446	 0.174805265933217 
447	 0.173930582544843 
448	 0.174664445430105 
449	 0.17473876289961 
450	 0.175155577751093 
451	 0.17560268333479 
452	 0.175512719461575 
453	 0.176103287281533 
454	 0.177346337339964 
455	 0.17815313950687 
456	 0.176441021424103 
457	 0.175803825349319 
458	 0.175899186117934 
459	 0.175625276888849 
460	 0.174405219242292 
461	 0.173490054454837 
462	 0.173203637590613 
463	 0.173207853441244 
464	 0.172361787358895 
465	 0.17186399717063 
466	 0.172035668923494 
467	 0.171548776522767 
468	 0.171672455844691 
469	 0.171368716778846 
470	 0.169926685572692 
471	 0.170312448050501 
472	 0.169799288363784 
473	 0.168620446736558 
474	 0.168871164395466 
475	 0.168293029280409 
476	 0.167815414538019 
477	 0.167968006124517 
478	 0.167757007441222 
479	 0.167674436075173 
480	 0.167860100475572 
481	 0.168097488212864 
482	 0.166954669830274 
483	 0.165905793520337 
484	 0.165984462491538 
485	 0.167467116648324 
486	 0.167124795896128 
487	 0.165936401647481 
488	 0.165314118250782 
489	 0.165397514996385 
490	 0.165933638826934 
491	 0.166312031522396 
492	 0.166122578789147 
493	 0.167120039863617 
494	 0.168182235080175 
495	 0.168878092523938 
496	 0.169877122509966 
497	 0.171245255348267 
498	 0.173510269412526 
499	 0.17651655826919 
500	 0.17752088300908 
501	 0.179906604441936 
502	 0.183563045585138 
503	 0.186394268086891 
504	 0.189624897754186 
505	 0.191810169739364 
506	 0.193484115070159 
507	 0.198800004754591 
508	 0.204099479964248 
509	 0.208801621109941 
510	 0.213421916911712 
511	 0.218744460011275 
512	 0.224906066236347 
513	 0.231280597381733 
514	 0.236856224393309 
515	 0.243469308594512 
516	 0.251329664978402 
517	 0.259901235753163 
518	 0.267656442594552 
519	 0.276034939683465 
520	 0.284088810746118 
521	 0.290618359280207 
522	 0.297907266514627 
523	 0.305537489282499 
524	 0.313016747065235 
525	 0.319842878991955 
526	 0.327615286129724 
527	 0.335474103289784 
528	 0.342341510137856 
529	 0.34819359277867 
530	 0.35299099363481 
531	 0.35746043655111 
532	 0.362590871712661 
533	 0.367300038103981 
534	 0.372146846077871 
535	 0.376688290213356 
536	 0.378520059217459 
537	 0.380882830434478 
538	 0.383977705747748 
539	 0.386919270832926 
540	 0.388357274248571 
541	 0.39040895021597 
542	 0.392636995571394 
543	 0.392644820137498 
544	 0.393925544764237 
545	 0.395728711080047 
546	 0.397084333930436 
547	 0.398192836389268 
548	 0.398850429742913 
549	 0.399786054693839 
550	 0.401524034136787 
551	 0.400852375565606 
552	 0.399829999877589 
553	 0.399340189190301 
554	 0.398414840851875 
555	 0.39641784018718 
556	 0.394074913222383 
557	 0.391929837121213 
558	 0.388720973078051 
559	 0.385717040200641 
560	 0.382639916782524 
561	 0.378385108693846 
562	 0.374612450183601 
563	 0.370098388125563 
564	 0.36473203746115 
565	 0.36105576436512 
566	 0.35633222808766 
567	 0.350791678155394 
568	 0.345581227640906 
569	 0.341237795639176 
570	 0.33619932668772 
571	 0.330563449451953 
572	 0.325934293258847 
573	 0.32098114293706 
574	 0.3163195185901 
575	 0.312259523157253 
576	 0.307533047456908 
577	 0.30294577686363 
578	 0.298638370640413 
579	 0.294488258548444 
580	 0.290897870944018 
581	 0.287572056379439 
582	 0.284462872874442 
583	 0.281929429080658 
584	 0.279067678839716 
585	 0.27629200066964 
586	 0.273986128135033 
587	 0.270923259168636 
588	 0.268469944715411 
589	 0.266589220783402 
590	 0.264301543812631 
591	 0.262372210614337 
592	 0.261033382696027 
593	 0.259974780392382 
594	 0.258180763348451 
595	 0.256242151091031 
596	 0.254754947594508 
597	 0.253912065378205 
598	 0.251873199367408 
599	 0.250276534165404 
600	 0.249250043021129 
601	 0.247349454234875 
602	 0.245516448484789 
603	 0.243950065941361 
604	 0.242458136664305 
605	 0.240171059895845 
606	 0.238050822192866 
607	 0.235889937094859 
608	 0.233137886550286 
609	 0.231391873729714 
610	 0.228923743733002 
611	 0.225435837808777 
612	 0.222971832955883 
613	 0.221070338804627 
614	 0.218905217572632 
615	 0.215948780130136 
616	 0.213161357271559 
617	 0.210855144730409 
618	 0.208959680356668 
619	 0.207093440299882 
620	 0.205244763320192 
621	 0.203442619336311 
622	 0.201801149208312 
623	 0.200592237622542 
624	 0.199512824840169 
625	 0.1983029103952 
626	 0.196928334337221 
627	 0.196270439305259 
628	 0.196033044300679 
629	 0.195848168389027 
630	 0.195355735647787 
631	 0.194668494012724 
632	 0.193460472647826 
633	 0.191781216489776 
634	 0.190810397503022 
635	 0.189531606419335 
636	 0.187609878001809 
637	 0.185218124649967 
638	 0.183691838052161 
639	 0.181216897485053 
640	 0.177622591258407 
641	 0.175188843391934 
642	 0.172814649409384 
643	 0.169760391525462 
644	 0.165947585219252 
645	 0.16325921707803 
646	 0.160273532565028 
647	 0.157143169435368 
648	 0.154919717203266 
649	 0.153267386778566 
650	 0.151331678810767 
651	 0.149029034567 
652	 0.14747256327034 
653	 0.146039454012678 
654	 0.144895007097195 
655	 0.144094704896769 
656	 0.142516332215367 
657	 0.139814620022966 
658	 0.137124043962346 
659	 0.135811051786629 
660	 0.133881362159521 
661	 0.131222500959138 
662	 0.128343795443542 
663	 0.126289308489805 
664	 0.124201646259891 
665	 0.121729904876333 
666	 0.118961515779042 
667	 0.117251667977399 
668	 0.115460196116425 
669	 0.11361962488695 
670	 0.112789746427284 
671	 0.111416109629534 
672	 0.110344273214566 
673	 0.110022937839853 
674	 0.10881151967271 
675	 0.108883739201356 
676	 0.109169422112369 
677	 0.10800876805161 
678	 0.108092581892388 
679	 0.108732828652426 
680	 0.109525778075713 
681	 0.110596405677881 
682	 0.112605459586721 
683	 0.115069077511234 
684	 0.117632774924055 
685	 0.120805730224109 
686	 0.125353661381067 
687	 0.132043233259483 
688	 0.14050819789307 
689	 0.147933559409455 
690	 0.156040871292252 
691	 0.166054951611195 
692	 0.177682687517004 
693	 0.189529343699377 
694	 0.202473277568793 
695	 0.217199004636111 
696	 0.232846400459146 
697	 0.249188911386898 
698	 0.265833407794717 
699	 0.282377676569282 
700	 0.299792246904025 
701	 0.31732471881929 
702	 0.334585371920709 
703	 0.35185389728673 
704	 0.369751734803992 
705	 0.387168044060716 
706	 0.403744393984594 
707	 0.421573615331204 
708	 0.439756591335966 
709	 0.457652343537293 
710	 0.474841763336704 
711	 0.492865970955468 
712	 0.511001234274533 
713	 0.5290473090051 
714	 0.547645273807564 
715	 0.565708436740731 
716	 0.582358529246588 
717	 0.598145315663968 
718	 0.61554022335538 
719	 0.635708781483334 
720	 0.657866753647603 
721	 0.680060653233889 
722	 0.701253589876474 
723	 0.720734764720237 
724	 0.739520717863116 
725	 0.758297549490524 
726	 0.77779779363702 
727	 0.797591183024856 
728	 0.817590106062519 
729	 0.837699104469651 
730	 0.856615741260128 
731	 0.875311238518213 
732	 0.895223612853167 
733	 0.91456224228718 
734	 0.93196029371045 
735	 0.947558751126447 
736	 0.962419516045436 
737	 0.976993287463271 
738	 0.991005772802762 
739	 1.0043285268147 
740	 1.01689221149652 
741	 1.02877014414974 
742	 1.03991927468201 
743	 1.05012417710515 
744	 1.05911299356637 
745	 1.06717925326812 
746	 1.07460791465451 
747	 1.08158070406431 
748	 1.08757419455718 
749	 1.09260999204836 
750	 1.09703448477663 
751	 1.10159463195693 
752	 1.10522116674512 
753	 1.10840017829647 
754	 1.11156831317721 
755	 1.11334058104604 
756	 1.11503708788713 
757	 1.11646477966949 
758	 1.11679282430786 
759	 1.11807694556564 
760	 1.11894379341666 
761	 1.11832398548789 
762	 1.11818771249555 
763	 1.11783675143952 
764	 1.11743610599185 
765	 1.11740870750277 
766	 1.11864988551718 
767	 1.11791341703437 
768	 1.11664572407981 
769	 1.11681671430655 
770	 1.11658845481283 
771	 1.11557632466548 
772	 1.11439210577504 
773	 1.11420111851898 
774	 1.11270106292366 
775	 1.11139984819844 
776	 1.11088855660166 
777	 1.10926444022488 
778	 1.10754580058733 
779	 1.10622211241828 
780	 1.10535630025254 
781	 1.10402478764845 
782	 1.10286371234285 
783	 1.10179051839529 
784	 1.10037308876761 
785	 1.09875274449065 
786	 1.09654083620519 
787	 1.09404984885767 
788	 1.09228920626966 
789	 1.09010071456455 
790	 1.08836772009554 
791	 1.08746178393001 
792	 1.08590141404315 
793	 1.0853710438902 
794	 1.08487062697921 
795	 1.08304572729253 
796	 1.08051951218456 
797	 1.07941219926709 
798	 1.07900125579756 
799	 1.07719538998674 
800	 1.07557594860379 
801	 1.07392268808422 
802	 1.07225289101555 
803	 1.07098333474886 
804	 1.07026060868705 
805	 1.06934216013375 
806	 1.06804373953448 
807	 1.06776230762993 
808	 1.0656959643901 
809	 1.0629816427705 
810	 1.06110886447251 
811	 1.05771208199574 
812	 1.05374254659882 
813	 1.04955987258047 
814	 1.04524771870633 
815	 1.04122405261664 
816	 1.03853995309239 
817	 1.03727938288355 
818	 1.03642556617547 
819	 1.03645304178383 
820	 1.03728348897065 
821	 1.03796596761753 
822	 1.03628063294063 
823	 1.03421295715583 
824	 1.03297201818844 
825	 1.03293702309878 
826	 1.03282051570282 
827	 1.03259685373962 
828	 1.03160402428903 
829	 1.02937545164489 
830	 1.02737612976351 
831	 1.02696919443621 
832	 1.02746048982611 
833	 1.02692329901958 
834	 1.02667026593411 
835	 1.02656481787369 
836	 1.02654411783314 
837	 1.02676255275735 
838	 1.02603332023026 
839	 1.0253858199565 
840	 1.02516053807104 
841	 1.02342486542047 
842	 1.02324152651927 
843	 1.02317825917063 
844	 1.021669371897 
845	 1.02125256536246 
846	 1.02069430257874 
847	 1.0198515506818 
848	 1.01893305829725 
849	 1.01723282852536 
850	 1.01607164535166 
851	 1.01557374489225 
852	 1.01492424465138 
853	 1.01441538130496 
854	 1.01367517422896 
855	 1.01214926752551 
856	 1.00946712228395 
857	 1.00911607941944 
858	 1.00858015209452 
859	 1.00687167543879 
860	 1.00689163874424 
861	 1.00574282169184 
862	 1.00454761630679 
863	 1.0043493521996 
864	 1.0034503753189 
865	 1.00259984902427 
866	 1.00178592030982 
867	 1.00076209324487 
868	 0.999321216897326 
869	 0.998260720351883 
870	 0.997224440626136 
871	 0.995601687367453 
872	 0.99454030482636 
873	 0.993922618844458 
874	 0.993022148746382 
875	 0.991119927600951 
876	 0.990411615839979 
877	 0.989655543044992 
878	 0.988288498623522 
879	 0.986813217946535 
880	 0.985701259713349 
881	 0.984650661288424 
882	 0.983508955439034 
883	 0.982460749826584 
884	 0.980407717670203 
885	 0.979139901461896 
886	 0.979266345171165 
887	 0.978316574263842 
888	 0.976515491433912 
889	 0.97459488172232 
890	 0.972955117277821 
891	 0.970754260363887 
892	 0.96806920347103 
893	 0.964495223752955 
894	 0.960119667548128 
895	 0.957136298595143 
896	 0.954178298963698 
897	 0.950707133991397 
898	 0.947177752311347 
899	 0.946157434943242 
900	 0.946201672664571 
901	 0.945726010928582 
902	 0.94406526595343 
903	 0.944775929840436 
904	 0.943972657053961 
905	 0.941916434463233 
906	 0.941161782907384 
907	 0.939868551474591 
908	 0.935885508334282 
909	 0.93134837724284 
910	 0.930957109852874 
911	 0.930245032091098 
912	 0.927837728470714 
913	 0.924836859428294 
914	 0.92396611036633 
915	 0.923191924980612 
916	 0.921311249190278 
917	 0.920354293790397 
918	 0.924533073774038 
919	 0.922842644182824 
920	 0.921233772021657 
921	 0.921802575725461 
922	 0.918911095954671 
923	 0.918441228057262 
924	 0.917235438911578 
925	 0.913807601587245 
926	 0.911471178442676 
927	 0.904602127021582 
928	 0.898449824373777 
929	 0.894940173876777 
930	 0.885365744740234 
931	 0.879307334316505 
932	 0.872268007100828 
933	 0.861688726404939 
934	 0.857362012523295 
935	 0.853756448250634 
936	 0.850753382620035 
937	 0.849199314244408 
938	 0.849008262155945 
939	 0.849257385335668 
940	 0.849070169627444 
941	 0.848139475794037 
942	 0.847034661402765 
943	 0.847413747199322 
944	 0.845654344623113 
945	 0.840580683112308 
946	 0.839207727749549 
947	 0.835530102009117 
948	 0.82893971892445 
949	 0.823190211566793 
950	 0.826806465349567 
951	 0.824964285248832 
952	 0.821418016308091 
953	 0.819996877041343 
954	 0.814455659474031 
955	 0.812235142050359 
956	 0.811636452109727 
957	 0.810595592832664 
958	 0.811069311952108 
959	 0.807621028412223 
960	 0.805702412846385 
961	 0.807863275475473 
962	 0.806897443419029 
963	 0.809414529106402 
964	 0.80968138736842 
965	 0.806189589076356 
966	 0.808245396776264 
967	 0.810834227468525 
968	 0.810788289481975 
969	 0.808393659728254 
970	 0.8083328234476 
971	 0.811384486830977 
972	 0.811831541298319 
973	 0.808883600313741 
974	 0.809992396877746 
975	 0.807303806282321 
976	 0.805890673439245 
977	 0.808474864568663 
978	 0.811233090921052 
979	 0.805849450502849 
980	 0.804295471600703 
981	 0.809201178659642 
982	 0.810142596851918 
983	 0.807370298115218 
984	 0.808007726775365 
985	 0.811387897944879 
986	 0.810345682491997 
987	 0.812858152106603 
988	 0.81501098392744 
989	 0.815537510462834 
990	 0.816116366537594 
991	 0.816557065173823 
992	 0.816274428261991 
993	 0.816844612927515 
994	 0.8194738878236 
995	 0.816709403413511 
996	 0.814757000900841 
997	 0.816143393884069 
998	 0.81918658143569 
999	 0.815899590178003 
1000	 0.814562854372694 
1001	 0.825174290762443 
1002	 0.826840395393826 
1003	 0.827769294744626 
1004	 0.828980101938759 
1005	 0.829653084149442 
1006	 0.829563850287911 
1007	 0.830042118804883 
1008	 0.830831299741841 
1009	 0.831303776156424 
1010	 0.831978952898136 
1011	 0.832214267950278 
1012	 0.831900262496369 
1013	 0.831980042720624 
1014	 0.83274643974628 
1015	 0.833565797892985 
1016	 0.834199026254604 
1017	 0.834879957044639 
1018	 0.83563505001141 
1019	 0.836139270075018 
1020	 0.836883585511033 
1021	 0.838139272740014 
1022	 0.838892397660665 
1023	 0.839519627978604 
1024	 0.839812051936876 
1025	 0.839863494919177 
1026	 0.839836095275089 
1027	 0.840225195057692 
1028	 0.841036572316149 
1029	 0.841567086491185 
1030	 0.842160217717934 
1031	 0.842524071696429 
1032	 0.842100876465424 
1033	 0.842046270486765 
1034	 0.842178529261148 
1035	 0.842351533866554 
1036	 0.842293512503287 
1037	 0.842556866894239 
1038	 0.84319649883639 
1039	 0.8435589617356 
1040	 0.84342338834013 
1041	 0.843855368345175 
1042	 0.843836814583514 
1043	 0.843761439049226 
1044	 0.844557186422066 
1045	 0.845192599465814 
1046	 0.845411240709903 
1047	 0.84528714310024 
1048	 0.844905455150576 
1049	 0.844772806741516 
1050	 0.844835601884709 
1051	 0.845318612213596 
1052	 0.845600022429036 
1053	 0.845547539719993 
1054	 0.845489251916199 
1055	 0.845358424225517 
1056	 0.845318899434866 
1057	 0.845547317223878 
1058	 0.845901165628662 
1059	 0.845893410152198 
1060	 0.845911001084412 
1061	 0.845919261677985 
1062	 0.84543605305569 
1063	 0.845385775083603 
1064	 0.845743664008047 
1065	 0.84550680626341 
1066	 0.845096716843977 
1067	 0.844644638049637 
1068	 0.844121828622327 
1069	 0.843070861229824 
1070	 0.842682636204388 
1071	 0.842861673701432 
1072	 0.842427366249083 
1073	 0.842138335483605 
1074	 0.841680646496576 
1075	 0.840709342898338 
1076	 0.840126599894862 
1077	 0.839474276969249 
1078	 0.838651419967071 
1079	 0.838388518604166 
1080	 0.838224966159713 
1081	 0.837556930746585 
1082	 0.836685089427942 
1083	 0.835649147396325 
1084	 0.834541405297083 
1085	 0.833460234273312 
1086	 0.832477606378862 
1087	 0.832080709031521 
1088	 0.831609007002022 
1089	 0.830005145319872 
1090	 0.828320388198368 
1091	 0.826798364752094 
1092	 0.824972965748732 
1093	 0.823359468117785 
1094	 0.821746642638568 
1095	 0.8200029858781 
1096	 0.818264534028879 
1097	 0.81646858109543 
1098	 0.814545945361655 
1099	 0.812649213604314 
1100	 0.810578779297591 
1101	 0.808262570551591 
1102	 0.80592888217143 
1103	 0.803876396182373 
1104	 0.801903509792886 
1105	 0.799824821818425 
1106	 0.797441819940224 
1107	 0.794800276907993 
1108	 0.791925764385902 
1109	 0.788705205367569 
1110	 0.785342282969542 
1111	 0.78162450925983 
1112	 0.777249727593563 
1113	 0.772902439238829 
1114	 0.768126864986812 
1115	 0.763090729827635 
1116	 0.757810511998977 
1117	 0.751982965500623 
1118	 0.746266588910206 
1119	 0.74030021086899 
1120	 0.734238082180946 
1121	 0.729189567725875 
1122	 0.724371305566296 
1123	 0.719931055133632 
1124	 0.7161695110982 
1125	 0.712820122916452 
1126	 0.709903817583803 
1127	 0.707542184430251 
1128	 0.705127681523921 
1129	 0.703847486383153 
1130	 0.701581077413973 
1131	 0.698881231046728 
1132	 0.696450203012358 
1133	 0.694009707542096 
1134	 0.691221561261532 
1135	 0.68905469167527 
1136	 0.68642011160892 
1137	 0.683075504993382 
1138	 0.679472472681696 
1139	 0.675407970923249 
1140	 0.671136643923793 
1141	 0.666305882276116 
1142	 0.661278810335338 
1143	 0.656262489519503 
1144	 0.650454437114568 
1145	 0.645303817598853 
1146	 0.640556140671173 
1147	 0.63589268751142 
1148	 0.631071722626742 
1149	 0.627270070249864 
1150	 0.624019577061124 
1151	 0.621351718140076 
1152	 0.61942426917618 
1153	 0.618025285692253 
1154	 0.617137693863208 
1155	 0.616398061710486 
1156	 0.615589067256966 
1157	 0.615316275853134 
1158	 0.614909015635591 
1159	 0.613892395137974 
1160	 0.61342678797284 
1161	 0.613196186669672 
1162	 0.612888512221545 
1163	 0.612859340884979 
1164	 0.612603847342852 
1165	 0.612237460617061 
1166	 0.611767649560866 
1167	 0.611066539720239 
1168	 0.610506777174617 
1169	 0.609894498541286 
1170	 0.60943274994437 
1171	 0.608931201764324 
1172	 0.608561266014841 
1173	 0.60824806077328 
1174	 0.607546848810503 
1175	 0.606670679092392 
1176	 0.605465106022318 
1177	 0.604505388285461 
1178	 0.603456239775747 
1179	 0.602480174544065 
1180	 0.601721649330643 
1181	 0.6007746359424 
1182	 0.599455995237937 
1183	 0.598463643709851 
1184	 0.59759182642657 
1185	 0.596867518222821 
1186	 0.59650389956345 
1187	 0.595937592271005 
1188	 0.5954502237973 
1189	 0.594711883190729 
1190	 0.593895958975887 
1191	 0.593286000495552 
1192	 0.592953112475528 
1193	 0.592587721871618 
1194	 0.592108052501286 
1195	 0.591669259805873 
1196	 0.591174744320579 
1197	 0.59044711493232 
1198	 0.590009963362352 
1199	 0.589745413577202 
1200	 0.589445657684232 
1201	 0.589251438003077 
1202	 0.589022438899471 
1203	 0.588631933200163 
1204	 0.588567500284896 
1205	 0.588681880341213 
1206	 0.588766329472544 
1207	 0.589066508672121 
1208	 0.589379869354306 
1209	 0.589650360336717 
1210	 0.58994180537119 
1211	 0.590587297729804 
1212	 0.59099322360814 
1213	 0.591455382237828 
1214	 0.591894030714531 
1215	 0.59250841385242 
1216	 0.593047339096543 
1217	 0.593940497055044 
1218	 0.595228542359712 
1219	 0.596174729740648 
1220	 0.597153437227123 
1221	 0.598143389878512 
1222	 0.598966359714272 
1223	 0.599921433133371 
1224	 0.601169800829883 
1225	 0.602096633270987 
1226	 0.602834797562523 
1227	 0.603586116462608 
1228	 0.604231288995148 
1229	 0.604730099489718 
1230	 0.605532144389868 
1231	 0.606505632709939 
1232	 0.607352940898851 
1233	 0.608391516884291 
1234	 0.60912001608257 
1235	 0.609631486870161 
1236	 0.610207043681755 
1237	 0.610672550089645 
1238	 0.611233205872374 
1239	 0.611881925062119 
1240	 0.612394802695735 
1241	 0.612896131351273 
1242	 0.613314302182098 
1243	 0.613625473392226 
1244	 0.613919683351318 
1245	 0.614115310280687 
1246	 0.614377385101466 
1247	 0.614638955659941 
1248	 0.614887440458951 
1249	 0.615203594671518 
1250	 0.615479693231738 
1251	 0.615927512755721 
1252	 0.615897884713762 
1253	 0.61606242766567 
1254	 0.61624170849668 
1255	 0.616322619308677 
1256	 0.616333140527062 
1257	 0.616337117966932 
1258	 0.616289421454774 
1259	 0.616193196850712 
1260	 0.6160958578929 
1261	 0.615905137631286 
1262	 0.615542089170306 
1263	 0.615307029666058 
1264	 0.615048457202557 
1265	 0.614842053122304 
1266	 0.614807338256605 
1267	 0.614619748792429 
1268	 0.614391892717822 
1269	 0.614114501827515 
1270	 0.613715752283798 
1271	 0.613356800798661 
1272	 0.612902374609646 
1273	 0.61259214345694 
1274	 0.612344754541282 
1275	 0.612284945612403 
1276	 0.611815005241839 
1277	 0.611211096840836 
1278	 0.610751479767494 
1279	 0.610160362184738 
1280	 0.609487054992057 
1281	 0.608987511836021 
1282	 0.60825685959705 
1283	 0.607154087418499 
1284	 0.606242354875575 
1285	 0.605460197262063 
1286	 0.604554862873051 
1287	 0.603718602930636 
1288	 0.602593377637715 
1289	 0.601301049256926 
1290	 0.599943307073315 
1291	 0.598180839353749 
1292	 0.596682837907156 
1293	 0.595476225596886 
1294	 0.593952573956871 
1295	 0.592564284003258 
1296	 0.590715536444564 
1297	 0.588818467783048 
1298	 0.586536011946093 
1299	 0.58448425104669 
1300	 0.582493272183873 
1301	 0.580235827834211 
1302	 0.577800461935621 
1303	 0.575484993389905 
1304	 0.573130481676914 
1305	 0.570574509588236 
1306	 0.567991514893097 
1307	 0.565381471552505 
1308	 0.562576630016352 
1309	 0.559689732363028 
1310	 0.55686279598608 
1311	 0.553883050673527 
1312	 0.550620193674151 
1313	 0.547393681419317 
1314	 0.544324738931941 
1315	 0.540977165393763 
1316	 0.53716422794858 
1317	 0.533715590586655 
1318	 0.530417044533105 
1319	 0.5269616441161 
1320	 0.523600106172127 
1321	 0.520362207877013 
1322	 0.516604865720898 
1323	 0.512346573168436 
1324	 0.508270935437384 
1325	 0.503978196628322 
1326	 0.499648997248394 
1327	 0.495159338450707 
1328	 0.490728899792157 
1329	 0.486137882532253 
1330	 0.481628095815493 
1331	 0.477187430261685 
1332	 0.472824862287189 
1333	 0.468539037096022 
1334	 0.464346296514276 
1335	 0.460149041804886 
1336	 0.456355227624934 
1337	 0.452828769534022 
1338	 0.449221866941453 
1339	 0.445800834126722 
1340	 0.442285252524197 
1341	 0.437983026212073 
1342	 0.434246049378333 
1343	 0.430900108452207 
1344	 0.426962440529715 
1345	 0.422577117881836 
1346	 0.417671432195561 
1347	 0.412229840452186 
1348	 0.406558849086668 
1349	 0.400646903464386 
1350	 0.395283108310634 
1351	 0.388659758060203 
1352	 0.380433299558595 
1353	 0.372882056474557 
1354	 0.369558464108743 
1355	 0.361063687027252 
1356	 0.35473792638819 
1357	 0.345134479854823 
1358	 0.335693569745071 
1359	 0.315040422057848 
1360	 0.294001922128601 
1361	 0.270467507458685 
1362	 0.248212283494539 
1363	 0.226468507291044 
1364	 0.275992017103253 
1365	 0.280297769885218 
1366	 0.249456728398017 
1367	 0.242005652715474 
1368	 0.242293967025011 
1369	 0.23518430663472 
1370	 0.224761999709724 
1371	 0.228227388212091 
1372	 0.234292988577144 
1373	 0.236654001319137 
1374	 0.251172155758737 
1375	 0.255874622746345 
1376	 0.245230030715182 
1377	 0.229120002204622 
1378	 0.226244661610356 
1379	 0.225907263594148 
1380	 0.220768581842924 
1381	 0.223850213726393 
1382	 0.215223515677376 
1383	 0.192580980770999 
1384	 0.182376361306711 
1385	 0.178420552683856 
1386	 0.172187133502933 
1387	 0.165190074495199 
1388	 0.163822695262387 
1389	 0.16651470236464 
1390	 0.164572707462399 
1391	 0.162836517733154 
1392	 0.162084691963517 
1393	 0.160033127952401 
1394	 0.15695477595437 
1395	 0.157033595779494 
1396	 0.153824848684085 
1397	 0.144218047682675 
1398	 0.140064126966511 
1399	 0.14000445768969 
1400	 0.136266720309307 
1401	 0.131460418572302 
1402	 0.128547526742467 
1403	 0.124806981715739 
1404	 0.121504225610042 
1405	 0.120561613102594 
1406	 0.119700096974277 
1407	 0.114836426872925 
1408	 0.111562819978148 
1409	 0.108604915231024 
1410	 0.102644169264499 
1411	 0.101156217667535 
1412	 0.10096390903106 
1413	 0.100711958494981 
1414	 0.10209916474838 
1415	 0.102275250112583 
1416	 0.10176748807235 
1417	 0.101404831870099 
1418	 0.101415444342215 
1419	 0.100677248587283 
1420	 9.95035305922969E-02 
1421	 9.86360605710967E-02 
1422	 9.77021461651254E-02 
1423	 9.65483949733543E-02 
1424	 9.48692662728833E-02 
1425	 9.43942488592036E-02 
1426	 9.42934806963044E-02 
1427	 9.40521634230419E-02 
1428	 9.47316548624322E-02 
1429	 9.47205467059955E-02 
1430	 9.37443671441361E-02 
1431	 9.34933644875502E-02 
1432	 9.39420266009121E-02 
1433	 9.36524432828688E-02 
1434	 9.34052435212969E-02 
1435	 0.092852637770204 
1436	 9.10284970717328E-02 
1437	 9.04546192830982E-02 
1438	 0.090603132728899 
1439	 0.090524026434222 
1440	 9.13556033742413E-02 
1441	 9.14231353305551E-02 
1442	 9.07013667136639E-02 
1443	 9.01110191630072E-02 
1444	 9.03207854725728E-02 
1445	 9.06112322843841E-02 
1446	 0.091235886693876 
1447	 9.20173464966646E-02 
1448	 9.23906735304997E-02 
1449	 9.23392262210075E-02 
1450	 9.27191712120046E-02 
1451	 9.32097283868793E-02 
1452	 9.35521254534541E-02 
1453	 9.39460978543759E-02 
1454	 9.42822854004993E-02 
1455	 0.094663574135024 
1456	 9.47260400268364E-02 
1457	 9.45884964923481E-02 
1458	 0.094724188850072 
1459	 9.48197926771003E-02 
1460	 9.48063402174013E-02 
1461	 9.50106421760726E-02 
1462	 9.49468577887509E-02 
1463	 9.41992533323933E-02 
1464	 9.43405124034907E-02 
1465	 9.50422012743643E-02 
1466	 9.55398579933344E-02 
1467	 9.65220826845659E-02 
1468	 9.71438279946597E-02 
1469	 9.73494205537376E-02 
1470	 9.78474361620166E-02 
1471	 9.83530064834094E-02 
1472	 9.89640720897057E-02 
1473	 9.95598732274095E-02 
1474	 0.100402501726971 
1475	 0.101437151638388 
1476	 0.102371849014599 
1477	 0.103461970044876 
1478	 0.104417896664347 
1479	 0.105152975036647 
1480	 0.106096410993994 
1481	 0.107097967046468 
1482	 0.10808829797176 
1483	 0.109076079480904 
1484	 0.110171935665972 
1485	 0.111282100064268 
1486	 0.112453084243796 
1487	 0.113569304017122 
1488	 0.114926708108626 
1489	 0.116678393632006 
1490	 0.117865990858865 
1491	 0.119009748458186 
1492	 0.120090769554268 
1493	 0.12101620545958 
1494	 0.122338676089744 
1495	 0.123369413077892 
1496	 0.124583195220254 
1497	 0.125593756749104 
1498	 0.126260704614017 
1499	 0.127366857393817 
1500	 0.128776672889033 
1501	 0.129935182615424 
1502	 0.131046894986718 
1503	 0.132342801122829 
1504	 0.133653352772649 
1505	 0.134948911216786 
1506	 0.136455148743752 
1507	 0.137698168762819 
1508	 0.138728800617569 
1509	 0.139839941649392 
1510	 0.140937593254157 
1511	 0.14203798652919 
1512	 0.143037091500849 
1513	 0.144236254417074 
1514	 0.145617923187198 
1515	 0.146833421118641 
1516	 0.148058740693998 
1517	 0.149326473550907 
1518	 0.150549510802965 
1519	 0.151710328775147 
1520	 0.15298902927935 
1521	 0.154136895758359 
1522	 0.155010003985588 
1523	 0.156148943989263 
1524	 0.157491803771749 
1525	 0.158649820245293 
1526	 0.159777978343295 
1527	 0.160953320199273 
1528	 0.162036388896156 
1529	 0.163184005958774 
1530	 0.164515112604078 
1531	 0.165693889179453 
1532	 0.166707069065815 
1533	 0.167853791239544 
1534	 0.169001353749747 
1535	 0.1701969207528 
1536	 0.171617735149738 
1537	 0.172799430992281 
1538	 0.173753172852737 
1539	 0.174907564415281 
1540	 0.176179215695223 
1541	 0.177220147823438 
1542	 0.17823482036166 
1543	 0.179268395715972 
1544	 0.180036323184056 
1545	 0.180949950511061 
1546	 0.182009637792933 
1547	 0.183111627385561 
1548	 0.184275679160149 
1549	 0.185402041208855 
1550	 0.186629984373887 
1551	 0.187791603090807 
1552	 0.188892765106735 
1553	 0.189950903207818 
1554	 0.190914118461276 
1555	 0.191973309242438 
1556	 0.193123034097693 
1557	 0.194134035925885 
1558	 0.195112018516932 
1559	 0.196116103834318 
1560	 0.197019319991525 
1561	 0.197917794102854 
1562	 0.19892643438723 
1563	 0.199849284622629 
1564	 0.200695283752253 
1565	 0.201438054297758 
1566	 0.202296998046144 
1567	 0.203317976495764 
1568	 0.204300133033481 
1569	 0.205394217994473 
1570	 0.206398897099308 
1571	 0.207374483704703 
1572	 0.208337515202802 
1573	 0.209308916953761 
1574	 0.210195361104177 
1575	 0.211016024618859 
1576	 0.21182060375294 
1577	 0.212542809390219 
1578	 0.213336995462638 
1579	 0.214032379665752 
1580	 0.215064388381905 
1581	 0.21633261972701 
1582	 0.217312775397265 
1583	 0.218449342107376 
1584	 0.219259181808553 
1585	 0.219677303002986 
1586	 0.220433695283408 
1587	 0.221303783438432 
1588	 0.221994250846515 
1589	 0.222660210005093 
1590	 0.223417463789771 
1591	 0.224051546856623 
1592	 0.224872942843286 
1593	 0.226017399629261 
1594	 0.226692922582632 
1595	 0.227128427530735 
1596	 0.227814407702127 
1597	 0.228348218264671 
1598	 0.22910301922654 
1599	 0.230220871012827 
1600	 0.230952410753907 
1601	 0.231462091304491 
1602	 0.232211968433343 
1603	 0.233030807412018 
1604	 0.233621860720096 
1605	 0.234150631918373 
1606	 0.234896612779277 
1607	 0.235529989469344 
1608	 0.236243155168727 
1609	 0.237358817047635 
1610	 0.237948140067715 
1611	 0.238027651536938 
1612	 0.238692190600872 
1613	 0.239546600299788 
1614	 0.240174074510151 
1615	 0.241019384323104 
1616	 0.241597436841629 
1617	 0.241844632737197 
1618	 0.242223329857473 
1619	 0.242507227113344 
1620	 0.243191471707377 
1621	 0.244060042970405 
1622	 0.244698072238318 
1623	 0.245712215897721 
1624	 0.246191876411171 
1625	 0.246045300322694 
1626	 0.246460184365392 
1627	 0.24699172558756 
1628	 0.247520133018115 
1629	 0.248349671566057 
1630	 0.248777249375832 
1631	 0.248936491797954 
1632	 0.249292853964516 
1633	 0.249620139676381 
1634	 0.24991077619405 
1635	 0.250284338136838 
1636	 0.250627963865952 
1637	 0.250776232257711 
1638	 0.251161497094379 
1639	 0.251772252165591 
1640	 0.252224699917866 
1641	 0.252729269352935 
1642	 0.252990719396869 
1643	 0.25314164028431 
1644	 0.253190124192831 
1645	 0.252945193360467 
1646	 0.253132056383331 
1647	 0.253527611218946 
1648	 0.253505094854325 
1649	 0.253548891274887 
1650	 0.253480382203756 
1651	 0.252933717635476 
1652	 0.25294771165354 
1653	 0.253340971225388 
1654	 0.253326165468553 
1655	 0.253371084345652 
1656	 0.25314962158922 
1657	 0.252588535399664 
1658	 0.252357406482258 
1659	 0.252162460117959 
1660	 0.251909262739313 
1661	 0.251648978306088 
1662	 0.251477964854204 
1663	 0.251178197596374 
1664	 0.251207734185358 
1665	 0.251699479262977 
1666	 0.252019823669079 
1667	 0.252203088936695 
1668	 0.252110535710373 
1669	 0.251952568435607 
1670	 0.251995663897762 
1671	 0.251947432159767 
1672	 0.252139069922334 
1673	 0.252174052908144 
1674	 0.252055231944362 
1675	 0.252349962860446 
1676	 0.252522038124425 
1677	 0.252523044523283 
1678	 0.252700081257532 
1679	 0.252566296636993 
1680	 0.252239667557481 
1681	 0.252548526758791 
1682	 0.252534358501374 
1683	 0.252118833839615 
1684	 0.252409733851654 
1685	 0.252225010583365 
1686	 0.252092597343903 
1687	 0.252573624000884 
1688	 0.252169773469193 
1689	 0.251809361162331 
1690	 0.251753769391205 
1691	 0.251242889376183 
1692	 0.250293566433187 
1693	 0.249864460789969 
1694	 0.249552624467719 
1695	 0.24894016332812 
1696	 0.248653293127167 
1697	 0.248340237523335 
1698	 0.247490486162502 
1699	 0.246918385040784 
1700	 0.24685853943206 
1701	 0.246448653145584 
1702	 0.245826968011891 
1703	 0.245208010539297 
1704	 0.24428307876627 
1705	 0.243749486940699 
1706	 0.243596437102218 
1707	 0.243017726701269 
1708	 0.242432800980134 
1709	 0.241842493915194 
1710	 0.24086090062263 
1711	 0.240033144773967 
1712	 0.239477868117509 
1713	 0.23891069934859 
1714	 0.238169054398401 
1715	 0.237684493874074 
1716	 0.237576657771692 
1717	 0.236899492417692 
1718	 0.235932945051895 
1719	 0.235194710894583 
1720	 0.23429739537712 
1721	 0.233527979210348 
1722	 0.233081924605169 
1723	 0.232306885862445 
1724	 0.231184758618263 
1725	 0.230337642330162 
1726	 0.229419541332491 
1727	 0.228864835643786 
1728	 0.228705665176017 
1729	 0.228169909503895 
1730	 0.227799010136266 
1731	 0.226891882287634 
1732	 0.226037937126579 
1733	 0.225717050419599 
1734	 0.225079212569093 
1735	 0.225087299803539 
1736	 0.225435096468994 
1737	 0.224781390554657 
1738	 0.224113400204023 
1739	 0.223333188511431 
1740	 0.222002680071683 
1741	 0.221414129531468 
1742	 0.221176357435853 
1743	 0.220309154694979 
1744	 0.219522562558928 
1745	 0.218474994997151 
1746	 0.21720307277658 
1747	 0.216709769816537 
1748	 0.216474070169062 
1749	 0.216185192698405 
1750	 0.215810363288316 
1751	 0.215250016193525 
1752	 0.214209595931805 
1753	 0.213027440097633 
1754	 0.212562484611859 
1755	 0.212152832750664 
1756	 0.211779462283794 
1757	 0.211171300351399 
1758	 0.210419347334424 
1759	 0.209286567767074 
1760	 0.208227049936037 
1761	 0.207271118600235 
1762	 0.206577214368662 
1763	 0.205852541385547 
1764	 0.205027622350778 
1765	 0.20449881923147 
1766	 0.203675938062498 
1767	 0.202365625652825 
1768	 0.20170632153393 
1769	 0.201464669665973 
1770	 0.200911498831372 
1771	 0.200506917784339 
1772	 0.19983406504467 
1773	 0.198580447864665 
1774	 0.19728379232109 
1775	 0.19733942386261 
1776	 0.197212867414616 
1777	 0.196802752026847 
1778	 0.19648281330655 
1779	 0.195180208516509 
1780	 0.19367822110565 
1781	 0.192601793199083 
1782	 0.192514519771144 
1783	 0.192707373627676 
1784	 0.191834177233066 
1785	 0.1914256913296 
1786	 0.191557596427023 
1787	 0.191005214024831 
1788	 0.19025220052591 
1789	 0.19019219048832 
1790	 0.190397909689437 
1791	 0.190575839916219 
1792	 0.191618785020192 
1793	 0.192368502522231 
1794	 0.191202407456496 
1795	 0.188614825146869 
1796	 0.186839465025399 
1797	 0.186129507448771 
1798	 0.184327450525258 
1799	 0.182936560271093 
1800	 0.182791629546679 
1801	 0.185007984498798 
1802	 0.180793479367481 
1803	 0.178728533311207 
1804	 0.176809900548496 
1805	 0.175871741595899 
1806	 0.17607172374847 
1807	 0.176401961087117 
1808	 0.177716848439457 
1809	 0.180365518672483 
1810	 0.181815879881534 
1811	 0.184097118347402 
1812	 0.18458345548264 
1813	 0.183234229043946 
1814	 0.182590202539854 
1815	 0.180454183167366 
1816	 0.179067896230943 
1817	 0.1776123493484 
1818	 0.176645910385871 
1819	 0.176111200968077 
1820	 0.176257121103282 
1821	 0.176431941194708 
1822	 0.178730105394919 
1823	 0.178732235521265 
1824	 0.177250972915245 
1825	 0.175718034839783 
1826	 0.172178849650399 
1827	 0.168361553377116 
1828	 0.163515928417552 
1829	 0.155155670804294 
1830	 0.152138405676044 
1831	 0.149680997287642 
1832	 0.153370668259093 
1833	 0.171531602239801 
1834	 0.204576486048627 
1835	 0.280092970578156 
1836	 0.31959960843019 
1837	 0.321681976996368 
1838	 0.337155585546636 
1839	 0.34051754139682 
1840	 0.283349508241629 
1841	 0.279318551432802 
1842	 0.349974808344644 
1843	 0.31806148749787 
1844	 0.225923275261226 
1845	 0.195790985578226 
1846	 0.153007376010417 
1847	 0.100656058327451 
1848	 5.45611894145682E-02 
1849	 2.45478389260884E-02 
1850	 2.93070197491431E-02 
1851	 1.76017084361833E-02 
1852	 5.87629140161281E-02 
1853	 0.257982077296606 
1854	 0.277841797116374 
1855	 0.162193340999263 
1856	 0.151637511997096 
1857	 0.153755036773545 
1858	 0.104988797984254 
1859	 9.92447594011364E-02 
1860	 0.153658650834717 
1861	 0.176430175348922 
1862	 0.180577162140233 
1863	 0.180110701636319 
1864	 0.186212028929922 
1865	 0.191902028603172 
1866	 0.164038705801321 
1867	 0.161679826733777 
1868	 0.17781125141857 
1869	 0.235879855727828 
1870	 0.250276986953087 
1871	 0.228550340752804 
1872	 0.237856390839348 
1873	 0.290284598433131 
1874	 0.261594323075616 
1875	 0.209005388065338 
1876	 0.179163606068076 
1877	 0.151388432952054 
1878	 0.07723630739924 
1879	 5.08782505547798E-02 
1880	 5.41612443589062E-02 
1881	 0.051198419609731 
1882	 6.13281797446505E-02 
1883	 5.51954332199008E-02 
1884	 2.67676091098628E-02 
1885	 3.17031553492141E-02 
1886	 4.69715186848453E-02 
1887	 6.21055159190383E-02 
1888	 0.077942511241845 
1889	 0.114239827453496 
1890	 0.12031905536366 
1891	 8.54152460040858E-02 
1892	 9.13775805815344E-02 
1893	 0.123817517091836 
1894	 0.120502824851262 
1895	 0.108145568450662 
1896	 0.109557250147816 
1897	 6.23888876806848E-02 
1898	 6.65347057376632E-02 
1899	 0.174973494418793 
1900	 0.225447577741625 
1901	 0.27081812321982 
1902	 0.292824395538591 
1903	 0.325312602099877 
1904	 0.313433530711103 
1905	 0.316055659975154 
1906	 0.339362341453883 
1907	 0.370252242378578 
1908	 0.253628406540717 
1909	 0.166206487097719 
1910	 0.130466854494712 
1911	 6.72416749848986E-02 
1912	 6.16819782659775E-02 
1913	 0.101921898360277 
1914	 0.102828010904544 
1915	 9.94704016614644E-02 
1916	 9.77266799701944E-02 
1917	 9.33595883499439E-02 
1918	 8.98487912502723E-02 
1919	 6.66419039213943E-02 
1920	 5.69898355459156E-02 
1921	 6.10190878461958E-02 
1922	 4.51073405160598E-02 
1923	 3.53269196541944E-02 
1924	 3.50907111861735E-02 
1925	 3.46955589155952E-02 
1926	 2.30298864462039E-02 
1927	 2.52116627886889E-02 
1928	 4.41379701928224E-02 
1929	 4.87424807580276E-02 
1930	 5.36969488616743E-02 
1931	 5.17466764841746E-02 
1932	 4.14808796859041E-02 
1933	 3.47383903745544E-02 
1934	 3.01247669681965E-02 
1935	 2.24819610274917E-02 
1936	 2.33563863401218E-02 
1937	 2.81374274958346E-02 
1938	 3.28645050835936E-02 
1939	 4.25405571750242E-02 
1940	 4.89175804379736E-02 
1941	 0.045107873296367 
1942	 4.21952703475861E-02 
1943	 3.73139937023552E-02 
1944	 2.97975184246661E-02 
1945	 3.15161350310252E-02 
1946	 3.68086427559285E-02 
1947	 3.82220420679585E-02 
1948	 3.91377027604272E-02 
1949	 4.04093892912951E-02 
1950	 4.02296355544937E-02 
1951	 4.08034204659512E-02 
1952	 4.13421949723486E-02 
1953	 4.03045338628559E-02 
1954	 4.08045805343463E-02 
1955	 3.75261068979675E-02 
1956	 3.33001553071374E-02 
1957	 3.67223793702671E-02 
1958	 0.037488251399271 
1959	 3.64663343682897E-02 
1960	 3.74469935335722E-02 
1961	 4.09361242997678E-02 
1962	 4.02809371024642E-02 
1963	 4.00898034717239E-02 
1964	 4.15819226284822E-02 
1965	 4.10374874929393E-02 
1966	 4.07958369897579E-02 
1967	 4.13399717916347E-02 
1968	 4.10429251893696E-02 
1969	 4.10003232397697E-02 
1970	 4.13544187859982E-02 
1971	 4.15551310160426E-02 
1972	 4.13504931932137E-02 
1973	 4.19026384259436E-02 
1974	 4.24609904987021E-02 
1975	 4.15230802188281E-02 
1976	 4.13798667018377E-02 
1977	 4.08408541972742E-02 
1978	 3.98014308141006E-02 
1979	 4.01804266461348E-02 
1980	 4.10808674430294E-02 
1981	 4.22088804283113E-02 
1982	 4.30331042753386E-02 
1983	 4.42305101136049E-02 
1984	 4.51182723176095E-02 
1985	 0.046361545688695 
1986	 4.65452473635914E-02 
1987	 4.58522487160361E-02 
1988	 4.53061579599855E-02 
1989	 4.35535250293611E-02 
1990	 4.29682232984017E-02 
1991	 4.39741127243804E-02 
1992	 4.48499494819652E-02 
1993	 4.58438672660666E-02 
1994	 4.59802861950507E-02 
1995	 4.65176577522493E-02 
1996	 4.67876150504958E-02 
1997	 4.77507624464689E-02 
1998	 4.96876333078333E-02 
1999	 5.08996330749412E-02 
2000	 4.85823152668462E-02 
2001	 4.67332501406031E-02 
2002	 4.38101071651815E-02 
2003	 4.11996066942546E-02 
2004	 4.50466494178562E-02 
2005	 4.83325934036221E-02 
2006	 5.01787647959793E-02 
2007	 5.17427348946142E-02 
2008	 5.45378686905961E-02 
2009	 5.50135179730535E-02 
2010	 5.62522861084901E-02 
2011	 5.69700310396523E-02 
2012	 5.56960426372888E-02 
2013	 5.45811130994774E-02 
2014	 5.42739396205095E-02 
2015	 5.52936730485633E-02 
2016	 5.50074975385644E-02 
2017	 5.43164977564846E-02 
2018	 5.30154196134688E-02 
2019	 5.26136258121813E-02 
2020	 5.16189568118842E-02 
2021	 0.054005098168077 
2022	 5.68353157653719E-02 
2023	 5.74593537972822E-02 
2024	 5.75363654928058E-02 
2025	 5.76469257335649E-02 
2026	 5.67983688154352E-02 
2027	 5.56330995477446E-02 
2028	 0.055163073119918 
2029	 0.055154852902695 
2030	 5.50261493708469E-02 
2031	 5.54586965843822E-02 
2032	 5.65944766707249E-02 
2033	 5.88902467332918E-02 
2034	 6.07886932457627E-02 
2035	 6.21422358694945E-02 
2036	 6.31035423751735E-02 
2037	 6.25109720879141E-02 
2038	 6.11720735516743E-02 
2039	 6.10396764688574E-02 
2040	 6.21604800313563E-02 
2041	 0.06386978400977 
2042	 6.46001623396642E-02 
2043	 6.39320952313582E-02 
2044	 6.26125445205175E-02 
2045	 6.19743959398354E-02 
2046	 0.061274087654905 
2047	 6.17239721449483E-02 
2048	 6.16659394530862E-02 
2049	 6.16380010625189E-02 
2050	 6.16455474786542E-02 
2051	 6.19313252622323E-02 
2052	 6.27793647701292E-02 
2053	 6.38413425824757E-02 
2054	 6.51771212393823E-02 
2055	 6.59744769674245E-02 
2056	 6.75619700533389E-02 
2057	 6.91390350241533E-02 
2058	 6.96772779990378E-02 
2059	 6.99704174864906E-02 
2060	 0.069756450374358 
2061	 6.89838829867045E-02 
2062	 7.01049564537385E-02 
2063	 7.17798340467322E-02 
2064	 7.30196855533262E-02 
2065	 7.59831525441104E-02 
2066	 7.54854931482528E-02 
2067	 7.36135393907646E-02 
2068	 7.43234205746368E-02 
2069	 7.46865255960292E-02 
2070	 7.51758645158755E-02 
2071	 7.54195763046414E-02 
2072	 7.54408881947196E-02 
2073	 7.49643008105001E-02 
2074	 7.34760492297859E-02 
2075	 7.26025776701607E-02 
2076	 7.29570649821668E-02 
2077	 7.31824744263594E-02 
2078	 7.35636289940602E-02 
2079	 7.39948268575451E-02 
2080	 7.49773330295482E-02 
2081	 7.52595017202586E-02 
2082	 7.59847552961522E-02 
2083	 7.79004764047191E-02 
2084	 7.80544608578914E-02 
2085	 7.82974830594285E-02 
2086	 7.92462848808409E-02 
2087	 7.94423752323156E-02 
2088	 7.85623693822691E-02 
2089	 7.88009120594843E-02 
2090	 8.01769418395773E-02 
2091	 8.05983528734971E-02 
2092	 8.09208063275176E-02 
2093	 8.12967553104727E-02 
2094	 8.11065851449459E-02 
2095	 8.14154179842274E-02 
2096	 8.17682176027063E-02 
2097	 0.082354848177306 
2098	 8.28616945339062E-02 
2099	 8.23700763510338E-02 
2100	 8.17112528091543E-02 
2101	 8.23152966007771E-02 
2102	 8.30566839625992E-02 
2103	 8.42352471784682E-02 
2104	 8.51682062342329E-02 
2105	 8.70028033376551E-02 
2106	 8.80476116892332E-02 
2107	 8.82542691128712E-02 
2108	 8.82598215629064E-02 
2109	 8.82713582837406E-02 
2110	 8.80962955470118E-02 
2111	 8.74469141327111E-02 
2112	 8.84555904092445E-02 
2113	 8.94772394683143E-02 
2114	 8.92664896743912E-02 
2115	 9.04330108717769E-02 
2116	 9.12043865613757E-02 
2117	 9.10581427252689E-02 
2118	 8.99288483310264E-02 
2119	 8.93106329046523E-02 
2120	 8.82584255856162E-02 
2121	 8.72600601726808E-02 
2122	 8.64069960989451E-02 
2123	 8.75150727090928E-02 
2124	 8.84788182477943E-02 
2125	 8.92236534157774E-02 
2126	 9.05751421719929E-02 
2127	 0.090335069545584 
2128	 9.20070317949101E-02 
2129	 9.29313401343366E-02 
2130	 9.26370001464347E-02 
2131	 9.49924980858172E-02 
2132	 9.56259968287565E-02 
2133	 9.46804552365374E-02 
2134	 9.42158973371975E-02 
2135	 9.41336284319302E-02 
2136	 9.28402666342225E-02 
2137	 9.19148818794793E-02 
2138	 9.24717108659535E-02 
2139	 9.40015685768931E-02 
2140	 9.50498348787705E-02 
2141	 9.53330422120714E-02 
2142	 9.65919741991929E-02 
2143	 9.75076905394091E-02 
2144	 9.68469765878196E-02 
2145	 9.60680773720533E-02 
2146	 9.53362553917321E-02 
2147	 9.55044772994578E-02 
2148	 9.66037412957615E-02 
2149	 9.77674723287062E-02 
2150	 9.92686626347471E-02 
2151	 9.96018743283551E-02 
2152	 9.77532786249113E-02 
2153	 9.73585445957537E-02 
2154	 0.097475721056726 
2155	 9.70188156079914E-02 
2156	 9.67348781188803E-02 
2157	 9.65081707515539E-02 
2158	 9.65769099697689E-02 
2159	 9.68354859620972E-02 
2160	 9.64669274215913E-02 
2161	 9.79189182364908E-02 
2162	 9.91196051712641E-02 
2163	 9.87213669980607E-02 
2164	 0.098892025582904 
2165	 0.099462945614496 
2166	 9.98789764335495E-02 
2167	 0.100264488369708 
2168	 0.100908862324707 
2169	 0.102222783598854 
2170	 0.102655052053438 
2171	 0.102417155189279 
2172	 0.103116924861919 
2173	 0.103730404729721 
2174	 0.10459797189104 
2175	 0.105639953461692 
2176	 0.106244928892654 
2177	 0.105460035828759 
2178	 0.104509623456541 
2179	 0.105108199366486 
2180	 0.105858419959371 
2181	 0.107471486470925 
2182	 0.108176234330517 
2183	 0.107159307115268 
2184	 0.106806457086684 
2185	 0.106867762016162 
2186	 0.106988735120097 
2187	 0.107145495707728 
2188	 0.107991694295649 
2189	 0.107845057606899 
2190	 0.106851817950274 
2191	 0.106412317443726 
2192	 0.106401708711252 
2193	 0.107037475712447 
2194	 0.108452365104738 
2195	 0.10989242587218 
2196	 0.110777324678936 
2197	 0.109733931424914 
2198	 0.108744196641775 
2199	 0.108177763914433 
2200	 0.107062251371902 
2201	 0.106960596250531 
2202	 0.106562451056135 
2203	 0.106826701678875 
2204	 0.107816845088606 
2205	 0.108455895211798 
2206	 0.109099244688844 
2207	 0.109238690351388 
2208	 0.109955359923609 
2209	 0.111432646580969 
2210	 0.111640945144465 
2211	 0.111602436016925 
2212	 0.111823007630938 
2213	 0.110208531590415 
2214	 0.110379288674545 
2215	 0.111632662168962 
2216	 0.11186019623134 
2217	 0.113052294900117 
2218	 0.112985066243526 
2219	 0.112473480395735 
2220	 0.112988497577307 
2221	 0.112896620109248 
2222	 0.112185686484419 
2223	 0.111481356913719 
2224	 0.110894252266931 
2225	 0.109219437194783 
2226	 0.108494370759534 
2227	 0.110167142624596 
2228	 0.111737534412909 
2229	 0.112559356337914 
2230	 0.113880908472683 
2231	 0.114848630298219 
2232	 0.11409448004538 
2233	 0.114117847667699 
2234	 0.114766359771522 
2235	 0.116032923043295 
2236	 0.115222403448889 
2237	 0.113245530339204 
2238	 0.113363676801728 
2239	 0.112053629848665 
2240	 0.110984017484125 
2241	 0.111607679593539 
2242	 0.110927244486521 
2243	 0.110212180576014 
2244	 0.109052850177004 
2245	 0.109679518876045 
2246	 0.109770126550794 
2247	 0.108914106964234 
2248	 0.109357154200934 
2249	 0.109486608088464 
2250	 0.109385808765834 
2251	 0.108557437934503 
2252	 0.107585863907389 
2253	 0.104158335370751 
2254	 0.101344128478738 
2255	 0.102183367958661 
2256	 0.10235102276199 
2257	 0.103409003322479 
2258	 0.105447320804155 
2259	 0.106289732836493 
2260	 0.102693466352566 
2261	 0.101280287578453 
2262	 0.103441789078988 
2263	 0.102250065283284 
2264	 0.102880566866494 
2265	 0.102978834463261 
2266	 9.91434934152732E-02 
2267	 9.98298164256058E-02 
2268	 0.100765015737486 
2269	 9.95252616234393E-02 
2270	 9.83573566748337E-02 
2271	 9.64128650650583E-02 
2272	 9.60427469037482E-02 
2273	 9.77590980001313E-02 
2274	 9.91939016013107E-02 
2275	 9.95232498385451E-02 
2276	 9.98839714418672E-02 
2277	 9.82885695916404E-02 
2278	 9.70580056910091E-02 
2279	 9.69695447991655E-02 
2280	 9.57991465087626E-02 
2281	 0.095832744203103 
2282	 9.54031580583469E-02 
2283	 9.49858206232836E-02 
2284	 9.45366013717173E-02 
2285	 9.31443188156187E-02 
2286	 9.24049328693486E-02 
2287	 9.24862335004916E-02 
2288	 9.18868139940338E-02 
2289	 9.02689753013904E-02 
2290	 9.02001026507394E-02 
2291	 9.14753224449596E-02 
2292	 9.16394600333575E-02 
2293	 9.30719355453163E-02 
2294	 9.36874831850755E-02 
2295	 9.03395131281269E-02 
2296	 8.80065471976756E-02 
2297	 8.74111170830394E-02 
2298	 8.80316853200807E-02 
2299	 9.20988706096636E-02 
2300	 9.62291569238065E-02 
2301	 9.90314830359229E-02 
2302	 0.100258238125428 
2303	 9.77188636535073E-02 
2304	 9.51396833334509E-02 
2305	 9.34880627255506E-02 
2306	 8.80532043299816E-02 
2307	 8.13954184227068E-02 
2308	 7.80828634008913E-02 
2309	 7.67568613578243E-02 
2310	 7.93739727107813E-02 
2311	 8.45316491962427E-02 
2312	 8.81142259269742E-02 
2313	 8.96434268049318E-02 
2314	 9.01498402534791E-02 
2315	 8.95523817922362E-02 
2316	 8.84341569086595E-02 
2317	 8.78225842284483E-02 
2318	 8.68137009586902E-02 
2319	 8.71862101305496E-02 
2320	 8.71105217121853E-02 
2321	 8.67917960469096E-02 
2322	 8.49382969865135E-02 
2323	 8.52694732917843E-02 
2324	 8.67485327370532E-02 
2325	 8.77113112929509E-02 
2326	 0.086530060707303 
2327	 0.084023486940598 
2328	 7.98228201399068E-02 
2329	 7.85413703447838E-02 
2330	 7.96387001435959E-02 
2331	 8.04699428242098E-02 
2332	 7.87963317514217E-02 
2333	 7.73125564812432E-02 
2334	 0.079274517201366 
2335	 8.04748024571393E-02 
2336	 8.41223551688091E-02 
2337	 8.75350040087074E-02 
2338	 8.34921779648278E-02 
2339	 7.52233740797702E-02 
2340	 7.05561451411559E-02 
2341	 6.55281544823645E-02 
2342	 6.30485719395464E-02 
2343	 7.18903890365835E-02 
2344	 7.46668738271123E-02 
2345	 7.26569411761075E-02 
2346	 0.076966839889062 
2347	 7.48621197574394E-02 
2348	 7.08963790837569E-02 
2349	 7.18314629309887E-02 
2350	 6.78479354065512E-02 
2351	 5.99414350356274E-02 
2352	 0.060249752259931 
2353	 6.94027108909268E-02 
2354	 0.077640521136072 
2355	 8.72884258786641E-02 
2356	 9.24663121372442E-02 
2357	 8.69821824469531E-02 
2358	 8.11943209563709E-02 
2359	 7.88965823396769E-02 
2360	 8.06408634544729E-02 
2361	 8.01242285701688E-02 
2362	 7.31870307171133E-02 
2363	 6.46752965271637E-02 
2364	 5.73503753336745E-02 
2365	 5.65104629772226E-02 
2366	 5.97845609975219E-02 
2367	 5.98455488055073E-02 
2368	 5.90578713739611E-02 
2369	 5.61366096435435E-02 
2370	 5.60460662899331E-02 
2371	 6.28197329791723E-02 
2372	 0.063997246161963 
2373	 6.17204952353134E-02 
2374	 6.43558236099853E-02 
2375	 6.52997732388414E-02 
2376	 6.59607457890275E-02 
2377	 0.072836767164202 
2378	 7.27739937065504E-02 
2379	 6.70644007879972E-02 
2380	 6.34734469822621E-02 
2381	 6.13829301402389E-02 
2382	 5.65087461106427E-02 
2383	 4.18820502632434E-02 
2384	 4.20441230076076E-02 
2385	 5.16437524040244E-02 
2386	 5.36418263847522E-02 
2387	 6.37348979670353E-02 
2388	 7.01142715945282E-02 
2389	 6.53531976100747E-02 
2390	 6.58901911794338E-02 
2391	 7.43957614059509E-02 
2392	 7.48263932281118E-02 
2393	 7.07537362520071E-02 
2394	 6.61896410535108E-02 
2395	 5.50515629504508E-02 
2396	 5.05921518926275E-02 
2397	 4.84958334857708E-02 
2398	 0.049048628405508 
2399	 5.97434978075073E-02 
2400	 5.96509804663352E-02 
2401	 5.28631098597749E-02 
2402	 4.73245531540975E-02 
2403	 4.99792879370307E-02 
2404	 4.66568859043488E-02 
2405	 5.25718940878126E-02 
2406	 6.11624358163997E-02 
2407	 5.65001395437022E-02 
2408	 5.13585733910144E-02 
2409	 4.59795960974909E-02 
2410	 5.20187028308899E-02 
2411	 0.061888253906974 
2412	 6.93659662903746E-02 
2413	 0.084196768599396 
2414	 8.24977670915249E-02 
2415	 6.14068766674622E-02 
2416	 6.15908173575095E-02 
2417	 6.46886545805819E-02 
2418	 5.17141306536532E-02 
2419	 0.060686453790016 
2420	 6.14091007077996E-02 
2421	 4.86435539927176E-02 
2422	 5.36008080726424E-02 
2423	 5.18937570746342E-02 
2424	 3.66692944761591E-02 
2425	 3.27050767445249E-02 
2426	 0.036641598873277 
2427	 2.83679637451969E-02 
2428	 2.85946639139335E-02 
2429	 0.036210265175545 
2430	 2.85015894111337E-02 
2431	 2.99966316981869E-02 
2432	 4.25065941201364E-02 
2433	 5.31192809664113E-02 
2434	 5.72937591771853E-02 
2435	 0.059018136606829 
2436	 5.77305832116217E-02 
2437	 3.95561036096369E-02 
2438	 0.040336826594991 
2439	 5.33425094384378E-02 
2440	 6.02816292333238E-02 
2441	 8.54323454762865E-02 
2442	 9.34644382127217E-02 
2443	 0.08690143243516 
2444	 8.51136728347899E-02 
2445	 6.74673018347078E-02 
2446	 0.068017841574482 
2447	 7.83852857420242E-02 
2448	 8.38090647394846E-02 
2449	 0.110194479357014 
2450	 0.101730363161949 
2451	 0.058840319188589 
2452	 5.44369600883109E-02 
2453	 5.58940636851482E-02 
2454	 0.060888864980817 
2455	 0.100856631764025 
2456	 0.10198422427725 
2457	 6.90240968270849E-02 
2458	 5.72429634848981E-02 
2459	 4.60142223059741E-02 
2460	 3.91550051444379E-02 
2461	 3.11294279899907E-02 
2462	 2.49845684224195E-02 
2463	 3.06411837112026E-02 
2464	 1.55814188620609E-02 
2465	-1.95822046923823E-02 
2466	-1.10874289796791E-02 
2467	 1.37148469992997E-02 
2468	 1.86184479377407E-02 
2469	 5.29051968408024E-02 
2470	 8.09793287813664E-02 
2471	 6.87197901944566E-02 
2472	 9.23847514308251E-02 
2473	 0.159203227647161 
2474	 0.183713130124186 
2475	 0.20462329937704 
2476	 0.191765883283738 
2477	 0.132377616387325 
2478	 9.94994816759987E-02 
2479	 3.71493888590638E-02 
2480	 1.34471246848017E-02 
2481	 5.36434373783407E-02 
2482	 4.09953008298606E-02 
2483	-5.13821578511797E-02 
2484	-0.03591674863538 
2485	 6.07301611141168E-02 
2486	 8.45857760975444E-02 
2487	 0.197122169870381 
2488	 0.139232321730301 
2489	 6.16268498588894E-02 
2490	 7.44037855619926E-02 
2491	-3.04178065778842E-03 
2492	-1.64593948056411E-02 
2493	-4.04653933870735E-02 
2494	-0.171003211269384 
2495	-0.208780305000545 
2496	-4.84827754278964E-02 
2497	 0.200170912270527 
2498	 0.324628782281522 
2499	 0.604720285113232 
2500	 0.586423701874994 
