Wavelength	ref00088.asd
350	 0.134216098772467 
351	 0.13456848097903 
352	 0.134314909020113 
353	 0.135817901196784 
354	 0.135719703095025 
355	 0.135314296877032 
356	 0.135912315863879 
357	 0.13728796060281 
358	 0.137059295503267 
359	 0.13685580805113 
360	 0.138505858320003 
361	 0.139043876749325 
362	 0.13947850121593 
363	 0.140104123793422 
364	 0.140556424735565 
365	 0.139577533390003 
366	 0.13965385895188 
367	 0.14111516490754 
368	 0.140770007211499 
369	 0.141140918135849 
370	 0.141528768693799 
371	 0.141260497445616 
372	 0.142153808395051 
373	 0.142715059220026 
374	 0.14261261926126 
375	 0.142288246125282 
376	 0.142895846615148 
377	 0.143325667392686 
378	 0.143357486611483 
379	 0.144047318548718 
380	 0.144426395889688 
381	 0.144681216733831 
382	 0.145169177939333 
383	 0.146105985750758 
384	 0.146461285230064 
385	 0.146558088222102 
386	 0.147132206929324 
387	 0.147178305860722 
388	 0.147753726327797 
389	 0.148649347036008 
390	 0.148349900206577 
391	 0.148982615123094 
392	 0.149768391155523 
393	 0.150060769106524 
394	 0.150715939314463 
395	 0.151579612173782 
396	 0.152033609187956 
397	 0.151794312697891 
398	 0.15311811845821 
399	 0.153841182034094 
400	 0.153737353003558 
401	 0.154260146444526 
402	 0.154445253538052 
403	 0.154509639789938 
404	 0.154765689096568 
405	 0.155429560007188 
406	 0.155838363043553 
407	 0.156269945270292 
408	 0.157112118947548 
409	 0.157513983732484 
410	 0.158082608290181 
411	 0.158805266436391 
412	 0.159121874681595 
413	 0.159531501252037 
414	 0.160069785502472 
415	 0.160646804923083 
416	 0.161062781127902 
417	 0.161664368966763 
418	 0.162268295412319 
419	 0.16264163018237 
420	 0.16327731677166 
421	 0.163899257970665 
422	 0.164428211432908 
423	 0.164990050001841 
424	 0.165582757961632 
425	 0.166158092087942 
426	 0.166671124628977 
427	 0.167098612786625 
428	 0.167459040923776 
429	 0.167981621716512 
430	 0.168799323095834 
431	 0.169212841865411 
432	 0.16969818658826 
433	 0.170326087412142 
434	 0.170785117671341 
435	 0.171277819278836 
436	 0.171901980296579 
437	 0.17258155831843 
438	 0.172905738497119 
439	 0.173261869832578 
440	 0.173756558906842 
441	 0.174337191602102 
442	 0.174679756574256 
443	 0.175130902176251 
444	 0.175747111909689 
445	 0.176279793119928 
446	 0.176636884923949 
447	 0.177013820358201 
448	 0.177510333848285 
449	 0.17785512037334 
450	 0.178216025799277 
451	 0.178576711086769 
452	 0.178877009526517 
453	 0.179291721015059 
454	 0.179724448490738 
455	 0.180151424907499 
456	 0.18065629800976 
457	 0.181058392043557 
458	 0.181487143231354 
459	 0.182023038820504 
460	 0.182383756065133 
461	 0.182730487850949 
462	 0.18309074886496 
463	 0.183425397549242 
464	 0.18378382796353 
465	 0.184222822153172 
466	 0.184696389041212 
467	 0.185007146859668 
468	 0.185368311250573 
469	 0.185718733337304 
470	 0.18600123479935 
471	 0.186479051851242 
472	 0.186939318231486 
473	 0.187353961339375 
474	 0.187815194088788 
475	 0.188104180209361 
476	 0.188502038596208 
477	 0.189062280665035 
478	 0.189270332310792 
479	 0.189632878403259 
480	 0.190108035176036 
481	 0.190492874333781 
482	 0.190754250559439 
483	 0.191197458277397 
484	 0.19179683315043 
485	 0.192193120302503 
486	 0.192548461222818 
487	 0.192958183404278 
488	 0.193436188204895 
489	 0.19381209972488 
490	 0.194251079697334 
491	 0.194684096661931 
492	 0.194989510003491 
493	 0.195361392129933 
494	 0.195781179288755 
495	 0.196239847498327 
496	 0.196758713243681 
497	 0.197044740345647 
498	 0.19733031127331 
499	 0.197808694010704 
500	 0.198067482960777 
501	 0.198486758910167 
502	 0.199090104241331 
503	 0.199662922358252 
504	 0.200078581884485 
505	 0.200496980862251 
506	 0.200971708508875 
507	 0.201319456974589 
508	 0.201663350123027 
509	 0.202056670138363 
510	 0.202502950935132 
511	 0.202881951083188 
512	 0.203316798678536 
513	 0.203780739184104 
514	 0.204124977733163 
515	 0.20449041903935 
516	 0.204937705752852 
517	 0.205463507965822 
518	 0.205968272768879 
519	 0.206390321601296 
520	 0.206827430296634 
521	 0.207389179595086 
522	 0.20782485659282 
523	 0.208268775233834 
524	 0.208728767060992 
525	 0.209044104723016 
526	 0.209553966569763 
527	 0.210124426456456 
528	 0.210595150204927 
529	 0.21108939243027 
530	 0.211504227065783 
531	 0.211858906711095 
532	 0.212250630745713 
533	 0.212801615650763 
534	 0.213285099095346 
535	 0.213638911222988 
536	 0.214140635414063 
537	 0.214610073858754 
538	 0.215044017633504 
539	 0.215495912133895 
540	 0.216023290027162 
541	 0.216611512197948 
542	 0.217170284340833 
543	 0.217566536950855 
544	 0.217979556291029 
545	 0.218472407162799 
546	 0.219013608933319 
547	 0.219394024679589 
548	 0.219842713699912 
549	 0.220360015807686 
550	 0.220842415558147 
551	 0.221182835372663 
552	 0.221584252639436 
553	 0.222070660407119 
554	 0.22242717723469 
555	 0.222832688054804 
556	 0.223276793131431 
557	 0.223717691047328 
558	 0.224167104681879 
559	 0.224586272261037 
560	 0.225010515488692 
561	 0.225511215249799 
562	 0.225974995640144 
563	 0.22642855367461 
564	 0.226897295872242 
565	 0.22737610019832 
566	 0.227695256196073 
567	 0.228073005269649 
568	 0.22871625335298 
569	 0.229131974122733 
570	 0.229420989099062 
571	 0.229707661119111 
572	 0.230098803891245 
573	 0.230360944668751 
574	 0.230675156067991 
575	 0.231138743594795 
576	 0.231425907804512 
577	 0.23176238972859 
578	 0.232132301031994 
579	 0.232431166638903 
580	 0.232802705310649 
581	 0.23303219040281 
582	 0.233132987339538 
583	 0.233452418114471 
584	 0.233734002202061 
585	 0.234015947054928 
586	 0.234362065932985 
587	 0.234642965797144 
588	 0.234986696227858 
589	 0.235409401243238 
590	 0.235814263194478 
591	 0.235981174315946 
592	 0.236108587847395 
593	 0.236326083525515 
594	 0.236522270656558 
595	 0.23668677184771 
596	 0.236788570503222 
597	 0.236826863499017 
598	 0.236944828479433 
599	 0.237084026958655 
600	 0.237225404090446 
601	 0.237399158393727 
602	 0.237645682281621 
603	 0.237899195463814 
604	 0.238094143795469 
605	 0.238210963790572 
606	 0.238412837003336 
607	 0.238647474187726 
608	 0.238776266434726 
609	 0.238913336870359 
610	 0.239152332734757 
611	 0.239454800728112 
612	 0.239608166220937 
613	 0.239816846820474 
614	 0.240035074674834 
615	 0.240202316629617 
616	 0.240481472702375 
617	 0.240625936237182 
618	 0.240708812188175 
619	 0.240999041955903 
620	 0.241223998283089 
621	 0.241367314167805 
622	 0.241492714113334 
623	 0.241753968700468 
624	 0.24201178941898 
625	 0.242206971693763 
626	 0.242345327440663 
627	 0.242600358383649 
628	 0.242881473049027 
629	 0.24310423039255 
630	 0.243212765669515 
631	 0.243418414839394 
632	 0.243602335168206 
633	 0.24369175343242 
634	 0.24390850428311 
635	 0.244100930928023 
636	 0.244233809034224 
637	 0.244348444612205 
638	 0.244642991898653 
639	 0.244833972243508 
640	 0.244874898895505 
641	 0.24506341277865 
642	 0.245379170793294 
643	 0.245659987593718 
644	 0.245808566026412 
645	 0.246050929516984 
646	 0.246376445490494 
647	 0.246689236037692 
648	 0.246861213528201 
649	 0.247041150997676 
650	 0.247165533080075 
651	 0.247231709152063 
652	 0.24737379570052 
653	 0.247624165720142 
654	 0.247800946286707 
655	 0.247783943859346 
656	 0.24803791537653 
657	 0.248173600632113 
658	 0.248193419525243 
659	 0.248414187795403 
660	 0.248597526983563 
661	 0.248749704504276 
662	 0.248890954131389 
663	 0.24901254306269 
664	 0.249223459108839 
665	 0.249404501766598 
666	 0.249450788109223 
667	 0.249751366012 
668	 0.249970114130692 
669	 0.250080066642122 
670	 0.250345839803247 
671	 0.250431613493739 
672	 0.250545937546947 
673	 0.250818769433599 
674	 0.250974197369341 
675	 0.251148484930821 
676	 0.251340793343698 
677	 0.25150404417395 
678	 0.25161865941121 
679	 0.251817547387038 
680	 0.2520412617985 
681	 0.252045618319283 
682	 0.252304016178029 
683	 0.252605706386736 
684	 0.252747671027694 
685	 0.252912392439296 
686	 0.253075404039588 
687	 0.253287461669333 
688	 0.253584677222708 
689	 0.253807773948213 
690	 0.254048264230511 
691	 0.254359869191863 
692	 0.254714706603635 
693	 0.255206321822228 
694	 0.255622646083943 
695	 0.255792148089427 
696	 0.255833087459946 
697	 0.255790405130989 
698	 0.255903853850695 
699	 0.256391765867069 
700	 0.256736506308838 
701	 0.256994649676743 
702	 0.257136276461298 
703	 0.256991266728397 
704	 0.257097428675574 
705	 0.257325384193068 
706	 0.257494150309722 
707	 0.257712598003741 
708	 0.257854230417505 
709	 0.25804063439322 
710	 0.258431280056248 
711	 0.258621159807995 
712	 0.258762385095361 
713	 0.258970908452915 
714	 0.259267815930407 
715	 0.259798845227291 
716	 0.260751319757918 
717	 0.262132342481458 
718	 0.263345359334406 
719	 0.263997566464161 
720	 0.263947945457689 
721	 0.263456271058781 
722	 0.263122608472049 
723	 0.263385767290214 
724	 0.264162737328632 
725	 0.264769334677778 
726	 0.265242184576104 
727	 0.265447218681108 
728	 0.265422135904292 
729	 0.265607779753001 
730	 0.265856450310053 
731	 0.265969200137016 
732	 0.265793643558958 
733	 0.265486372654956 
734	 0.265422847790718 
735	 0.265667356669901 
736	 0.265989226461392 
737	 0.266054611469567 
738	 0.266117972530813 
739	 0.266339540782589 
740	 0.266439881979845 
741	 0.266600670867827 
742	 0.266772139484807 
743	 0.266883027029188 
744	 0.267122655119046 
745	 0.267402196713858 
746	 0.267660166940589 
747	 0.267874051704276 
748	 0.268133338092191 
749	 0.268353280782621 
750	 0.268542466598611 
751	 0.2689079060629 
752	 0.269095034101212 
753	 0.269297992160684 
754	 0.269693155219252 
755	 0.269822043704231 
756	 0.269971719825342 
757	 0.270196258947269 
758	 0.270413826309116 
759	 0.270596723412918 
760	 0.271188620309591 
761	 0.272256879756097 
762	 0.272428369700623 
763	 0.272618212168238 
764	 0.272918468362676 
765	 0.273120479411854 
766	 0.272835198935903 
767	 0.272764003327791 
768	 0.272946138329976 
769	 0.273210394760032 
770	 0.273329101637544 
771	 0.273399883400722 
772	 0.273572521204415 
773	 0.273982814161768 
774	 0.274200617322087 
775	 0.27437601976653 
776	 0.274624925993831 
777	 0.274847705458346 
778	 0.275102498336352 
779	 0.275317547658293 
780	 0.275440952387785 
781	 0.275607936720052 
782	 0.275819204176824 
783	 0.276063964615545 
784	 0.276333181399244 
785	 0.276692326722303 
786	 0.277052664533794 
787	 0.277369909606292 
788	 0.277666644298748 
789	 0.27809060215968 
790	 0.278416687393472 
791	 0.278523185160382 
792	 0.278637653481404 
793	 0.278895017803556 
794	 0.279162379993678 
795	 0.279325156726855 
796	 0.279765740138027 
797	 0.280056799128982 
798	 0.280216016261848 
799	 0.280507597322093 
800	 0.280813312220666 
801	 0.281041727630922 
802	 0.281208970314548 
803	 0.281451455584352 
804	 0.281809202231254 
805	 0.282047717285014 
806	 0.282091682601333 
807	 0.282285442842327 
808	 0.282689864477212 
809	 0.283144174852322 
810	 0.283517423379772 
811	 0.284139135591948 
812	 0.284841509545819 
813	 0.28565881870362 
814	 0.286685010974326 
815	 0.287566160230872 
816	 0.288160624763691 
817	 0.288454817531179 
818	 0.288561318124841 
819	 0.288367954247383 
820	 0.288248781948346 
821	 0.288421042535616 
822	 0.288726299703616 
823	 0.289235650562083 
824	 0.289512103611173 
825	 0.289282899875504 
826	 0.289073733651863 
827	 0.289298328826746 
828	 0.289771206593883 
829	 0.290076647553185 
830	 0.29028397207253 
831	 0.290403864178753 
832	 0.29052304471693 
833	 0.290738221352928 
834	 0.290761568133138 
835	 0.290845033330088 
836	 0.291013019232438 
837	 0.290969214531709 
838	 0.290915946320367 
839	 0.291077867937647 
840	 0.291470994959027 
841	 0.291720035737242 
842	 0.291715056180754 
843	 0.291826600776665 
844	 0.292302705013948 
845	 0.29251110167876 
846	 0.292559394500718 
847	 0.292666890208873 
848	 0.293030091115258 
849	 0.293427361434642 
850	 0.293687604459715 
851	 0.293870092316356 
852	 0.294174262003546 
853	 0.294388092451665 
854	 0.294625838752876 
855	 0.294930597119421 
856	 0.295217336836021 
857	 0.29538159663813 
858	 0.295531854022266 
859	 0.295757982326824 
860	 0.296053956635947 
861	 0.29649545985714 
862	 0.296840788577344 
863	 0.296941922466645 
864	 0.297058701712087 
865	 0.297414667520867 
866	 0.297918740148955 
867	 0.29833432272989 
868	 0.298433191406587 
869	 0.298538458943056 
870	 0.298790010264537 
871	 0.299182834557599 
872	 0.299572827385184 
873	 0.299796623431107 
874	 0.299943035642777 
875	 0.300256675630893 
876	 0.300731788625931 
877	 0.300801165697213 
878	 0.300672809761716 
879	 0.301243737033689 
880	 0.301608673411325 
881	 0.30192091836364 
882	 0.302244769164849 
883	 0.302338896309261 
884	 0.302549301175273 
885	 0.302895895632673 
886	 0.303275200507012 
887	 0.303500124728899 
888	 0.303917041448043 
889	 0.304299678263569 
890	 0.304519310097645 
891	 0.305054452709348 
892	 0.305845233902861 
893	 0.306511497942133 
894	 0.306917165294878 
895	 0.308249657438808 
896	 0.309123586405301 
897	 0.309535027535834 
898	 0.31006724521483 
899	 0.310743829076116 
900	 0.311369928755734 
901	 0.311687409281498 
902	 0.311580721256468 
903	 0.311621927090749 
904	 0.311587002666336 
905	 0.311661623477453 
906	 0.31220788338585 
907	 0.312871267019981 
908	 0.313584820440105 
909	 0.314215055352245 
910	 0.314588810898377 
911	 0.314754021774765 
912	 0.315130307805162 
913	 0.315615022346408 
914	 0.315703594240052 
915	 0.316528292871535 
916	 0.316704838893629 
917	 0.316098533408054 
918	 0.316196411592411 
919	 0.316174732364786 
920	 0.316096834650159 
921	 0.316097645110775 
922	 0.316236999962419 
923	 0.316465015393125 
924	 0.316981422615316 
925	 0.317835263169986 
926	 0.318786957752893 
927	 0.319828790859536 
928	 0.321450138089054 
929	 0.323489984829567 
930	 0.324378129815273 
931	 0.327132381756475 
932	 0.330001130319115 
933	 0.331112257764797 
934	 0.331887660237937 
935	 0.333070814522714 
936	 0.333859973284441 
937	 0.333612874536528 
938	 0.332905164151271 
939	 0.333133564748588 
940	 0.332687439704636 
941	 0.331018926041202 
942	 0.330723149460395 
943	 0.332296176798315 
944	 0.33345690865631 
945	 0.332964222486499 
946	 0.333457792982281 
947	 0.334820620955902 
948	 0.335052643139403 
949	 0.333769672184498 
950	 0.334787785132836 
951	 0.33551057242515 
952	 0.335866246185833 
953	 0.336293901318743 
954	 0.336976155758475 
955	 0.33642657749093 
956	 0.335515083767462 
957	 0.335331393998003 
958	 0.336101487602983 
959	 0.335151358631722 
960	 0.334590214168117 
961	 0.335383685586016 
962	 0.334452117673014 
963	 0.334203375275779 
964	 0.334632477169059 
965	 0.334684709584506 
966	 0.332723908459707 
967	 0.332058455356553 
968	 0.332537991727444 
969	 0.332833053212225 
970	 0.331336263498247 
971	 0.331899186489014 
972	 0.332314682132167 
973	 0.331729344227791 
974	 0.332760517167701 
975	 0.332983173389576 
976	 0.333096956792383 
977	 0.333562502813473 
978	 0.333792316334682 
979	 0.333612794888482 
980	 0.332726037582699 
981	 0.331847308394813 
982	 0.332366875691853 
983	 0.332027790029188 
984	 0.332129263358864 
985	 0.332784670494178 
986	 0.332812134224971 
987	 0.333400365992733 
988	 0.332312474392363 
989	 0.331218273118017 
990	 0.333749300359567 
991	 0.335047802743772 
992	 0.334881994760492 
993	 0.334373688918545 
994	 0.334616182241426 
995	 0.332834208321522 
996	 0.333655856248318 
997	 0.335036831964988 
998	 0.3335395471867 
999	 0.335492435381304 
1000	 0.335204329838611 
1001	 0.336431557745131 
1002	 0.336479534842273 
1003	 0.33660470951401 
1004	 0.336743238936935 
1005	 0.336998221337086 
1006	 0.337414052898481 
1007	 0.337628170708288 
1008	 0.337804185795444 
1009	 0.337959321216578 
1010	 0.337905277296733 
1011	 0.338047910867377 
1012	 0.338374189630397 
1013	 0.338745836089588 
1014	 0.339124457572047 
1015	 0.339357381827006 
1016	 0.339415412102084 
1017	 0.339537361731712 
1018	 0.339791450234452 
1019	 0.340148148683065 
1020	 0.34042553380202 
1021	 0.34083963618877 
1022	 0.341138573737651 
1023	 0.341354916266286 
1024	 0.34149760363489 
1025	 0.341663463231622 
1026	 0.341750262734355 
1027	 0.341887083420517 
1028	 0.342035915545472 
1029	 0.342181663518331 
1030	 0.342466380345348 
1031	 0.34270457860393 
1032	 0.342793844475243 
1033	 0.343064597232191 
1034	 0.343517330556099 
1035	 0.343838729645707 
1036	 0.344225915131532 
1037	 0.344538347410537 
1038	 0.344859773615341 
1039	 0.344855633541098 
1040	 0.344843158964464 
1041	 0.344968892461911 
1042	 0.345203675184448 
1043	 0.345541865800491 
1044	 0.345745391338788 
1045	 0.345943039246993 
1046	 0.346051045017578 
1047	 0.346023419009561 
1048	 0.346245458125334 
1049	 0.34650866739834 
1050	 0.346815764216279 
1051	 0.347175941352225 
1052	 0.347612838727103 
1053	 0.347863899149108 
1054	 0.348104245438993 
1055	 0.348319875620638 
1056	 0.348462445876097 
1057	 0.348648643597013 
1058	 0.348939735002793 
1059	 0.349111850167712 
1060	 0.349227768048728 
1061	 0.349473726516967 
1062	 0.349580407947305 
1063	 0.34978805157265 
1064	 0.350097884889544 
1065	 0.350343077723348 
1066	 0.350562016097862 
1067	 0.350874041638096 
1068	 0.351117014239444 
1069	 0.351288266435303 
1070	 0.351406648358021 
1071	 0.351585291563351 
1072	 0.351918361844355 
1073	 0.352228557654861 
1074	 0.352484131917692 
1075	 0.35268186696694 
1076	 0.352817961256306 
1077	 0.352910403436488 
1078	 0.353082171827008 
1079	 0.353376093768334 
1080	 0.353615490811103 
1081	 0.353883164184095 
1082	 0.354153254914666 
1083	 0.354469019714504 
1084	 0.354862233493603 
1085	 0.35538086368915 
1086	 0.355831046608643 
1087	 0.35623553468812 
1088	 0.356531672865795 
1089	 0.356791018956086 
1090	 0.357253912160499 
1091	 0.357742007270058 
1092	 0.358278982912621 
1093	 0.358739969029768 
1094	 0.359041341895673 
1095	 0.359538618711429 
1096	 0.36005786938258 
1097	 0.360627272229478 
1098	 0.361243574043228 
1099	 0.361967906428206 
1100	 0.362620303026073 
1101	 0.363240462278702 
1102	 0.363899072157962 
1103	 0.364620659451579 
1104	 0.365213161840291 
1105	 0.365855165897482 
1106	 0.366732542461708 
1107	 0.36756886747102 
1108	 0.368437160268181 
1109	 0.36939355284128 
1110	 0.370327864336891 
1111	 0.371441166485254 
1112	 0.37271204460814 
1113	 0.374089368791866 
1114	 0.375790672439187 
1115	 0.377537532064687 
1116	 0.379413261736497 
1117	 0.381397366675341 
1118	 0.383636605121474 
1119	 0.38552573007221 
1120	 0.387275795292566 
1121	 0.389053500509426 
1122	 0.390535391762998 
1123	 0.391888111126872 
1124	 0.393061132981711 
1125	 0.394065110853392 
1126	 0.394694384860099 
1127	 0.394942941181262 
1128	 0.395026604954161 
1129	 0.394650394309416 
1130	 0.394404485052153 
1131	 0.394025434674095 
1132	 0.393749783435406 
1133	 0.393415968157496 
1134	 0.393316611586584 
1135	 0.393231060646082 
1136	 0.393095946760022 
1137	 0.393143729209195 
1138	 0.393144483907098 
1139	 0.393289471258733 
1140	 0.393568595231021 
1141	 0.393880565175243 
1142	 0.394449660113355 
1143	 0.395025871524961 
1144	 0.395787352165636 
1145	 0.396288510320415 
1146	 0.396954893257333 
1147	 0.397160241355154 
1148	 0.397019230184748 
1149	 0.396887872258728 
1150	 0.396643843162844 
1151	 0.396196361624457 
1152	 0.395647725298207 
1153	 0.394987067613121 
1154	 0.394202489771062 
1155	 0.393388551862685 
1156	 0.392710147212339 
1157	 0.392121672539862 
1158	 0.391638012511185 
1159	 0.391190617739912 
1160	 0.39071890749 
1161	 0.390266339757023 
1162	 0.389847604356677 
1163	 0.389341825658996 
1164	 0.389016460773608 
1165	 0.38873538926228 
1166	 0.388566294597946 
1167	 0.388527594819778 
1168	 0.388504507882232 
1169	 0.388536879785813 
1170	 0.388653980633277 
1171	 0.388749841774744 
1172	 0.388824529953842 
1173	 0.388921784969902 
1174	 0.388996813104125 
1175	 0.389100476228758 
1176	 0.389268975582075 
1177	 0.389446079189973 
1178	 0.389662134499272 
1179	 0.389885091032217 
1180	 0.390149642144507 
1181	 0.39034762345815 
1182	 0.390553527578799 
1183	 0.390739881028461 
1184	 0.390865967914428 
1185	 0.391029282314157 
1186	 0.391211045496986 
1187	 0.391364270325725 
1188	 0.391523802679267 
1189	 0.391635357535243 
1190	 0.391802943304782 
1191	 0.391886604103607 
1192	 0.391897022820989 
1193	 0.392053036056295 
1194	 0.392193123248807 
1195	 0.392320889437987 
1196	 0.392501631027428 
1197	 0.392745959992309 
1198	 0.392968946502731 
1199	 0.393223441780327 
1200	 0.393420117427142 
1201	 0.393620467935069 
1202	 0.393806540294733 
1203	 0.393923737311016 
1204	 0.394082734461139 
1205	 0.394279505495903 
1206	 0.394440959778854 
1207	 0.394599692598381 
1208	 0.394731013005725 
1209	 0.394846055285815 
1210	 0.394926021061984 
1211	 0.394982031204539 
1212	 0.395052784449645 
1213	 0.395194328674781 
1214	 0.395402675472681 
1215	 0.395532898562316 
1216	 0.395673387897413 
1217	 0.395821600342785 
1218	 0.395935129907493 
1219	 0.396054469122242 
1220	 0.396207332123515 
1221	 0.396342228315491 
1222	 0.3964472331267 
1223	 0.396549911327038 
1224	 0.396652430241047 
1225	 0.396779610240035 
1226	 0.396937242685929 
1227	 0.397032576706106 
1228	 0.397114056889128 
1229	 0.397162879400505 
1230	 0.397330474425369 
1231	 0.397408044149329 
1232	 0.397531065215707 
1233	 0.397737455845454 
1234	 0.397907550699566 
1235	 0.398016008330023 
1236	 0.398192703681443 
1237	 0.398437293628749 
1238	 0.398647333459863 
1239	 0.398863762504711 
1240	 0.3990405075504 
1241	 0.399176367393523 
1242	 0.399376964182485 
1243	 0.399599990658652 
1244	 0.399793976645201 
1245	 0.400060220319937 
1246	 0.400243307412294 
1247	 0.400282191951552 
1248	 0.400425368452336 
1249	 0.400610036673483 
1250	 0.400782912831467 
1251	 0.400985288389242 
1252	 0.401237957118568 
1253	 0.401424185096389 
1254	 0.401567949435575 
1255	 0.401731175328708 
1256	 0.40188021176817 
1257	 0.402053151775211 
1258	 0.402210286306291 
1259	 0.402431177617136 
1260	 0.402701436318726 
1261	 0.402962086514477 
1262	 0.403306574950002 
1263	 0.403556795183519 
1264	 0.403702651189456 
1265	 0.403953355062534 
1266	 0.40421892143286 
1267	 0.404472565822045 
1268	 0.404818994336518 
1269	 0.405092349399616 
1270	 0.405232228487822 
1271	 0.405465157879722 
1272	 0.40572498003458 
1273	 0.406019722201609 
1274	 0.406256620815254 
1275	 0.406505885644895 
1276	 0.40676808648246 
1277	 0.406995610315619 
1278	 0.407231638360359 
1279	 0.407513552053286 
1280	 0.407768975666166 
1281	 0.407951885655887 
1282	 0.40822602187189 
1283	 0.408580198810754 
1284	 0.408878144880033 
1285	 0.409167330187509 
1286	 0.409479257328485 
1287	 0.409766574310326 
1288	 0.410090245843134 
1289	 0.410472074968052 
1290	 0.410826381929412 
1291	 0.41117529165318 
1292	 0.411530629461029 
1293	 0.411845003889794 
1294	 0.412229327689707 
1295	 0.412640345588065 
1296	 0.413105402393007 
1297	 0.413581415208996 
1298	 0.414158131752406 
1299	 0.41458646604923 
1300	 0.414932509296105 
1301	 0.415386118957661 
1302	 0.415812937656331 
1303	 0.416284731121481 
1304	 0.416886405237304 
1305	 0.417377436517379 
1306	 0.417773752847457 
1307	 0.41825742456479 
1308	 0.418733368030136 
1309	 0.41927701711065 
1310	 0.419926036204733 
1311	 0.420507338007791 
1312	 0.421124050081945 
1313	 0.421685258908173 
1314	 0.42218284123978 
1315	 0.422686739074389 
1316	 0.423111142563062 
1317	 0.423619594121266 
1318	 0.424216819498758 
1319	 0.424743603224032 
1320	 0.425184608516695 
1321	 0.425807686628044 
1322	 0.426403009574837 
1323	 0.426930073288778 
1324	 0.427640088345113 
1325	 0.428510394016606 
1326	 0.429387698020668 
1327	 0.430452197547073 
1328	 0.431293735553655 
1329	 0.432101612425691 
1330	 0.432899849018157 
1331	 0.43352747509497 
1332	 0.434245331479751 
1333	 0.435076323263568 
1334	 0.435760789786383 
1335	 0.436318288789034 
1336	 0.436915098114055 
1337	 0.437360752174429 
1338	 0.438023246794904 
1339	 0.438790002875231 
1340	 0.439694150109056 
1341	 0.440947662584052 
1342	 0.442207509710836 
1343	 0.443780592163767 
1344	 0.445431983586609 
1345	 0.4473853499509 
1346	 0.449664744447806 
1347	 0.452296708403496 
1348	 0.455161070737523 
1349	 0.458406532402153 
1350	 0.462311602175333 
1351	 0.466793793216833 
1352	 0.472066514786959 
1353	 0.478286460076156 
1354	 0.485169399363154 
1355	 0.493532458088241 
1356	 0.499326180597868 
1357	 0.509993506103064 
1358	 0.515959344005152 
1359	 0.529785871672632 
1360	 0.540353216388829 
1361	 0.561067748728718 
1362	 0.573986497597361 
1363	 0.59547266297184 
1364	 0.60367866581307 
1365	 0.608343959941186 
1366	 0.583975984375717 
1367	 0.585089621600768 
1368	 0.594893238485278 
1369	 0.59673988905303 
1370	 0.604713596666085 
1371	 0.607553109165595 
1372	 0.597508709526949 
1373	 0.598435854087669 
1374	 0.603492651277348 
1375	 0.616015569045233 
1376	 0.611478888957641 
1377	 0.609328984403866 
1378	 0.608343798795077 
1379	 0.598788135558801 
1380	 0.596578137158505 
1381	 0.605943321897805 
1382	 0.602544964753696 
1383	 0.589121243072628 
1384	 0.588039773133138 
1385	 0.590385878314455 
1386	 0.590300259264088 
1387	 0.595212492298322 
1388	 0.59458826441982 
1389	 0.591691407282313 
1390	 0.586343917989563 
1391	 0.577675106800348 
1392	 0.573716176446198 
1393	 0.569869917320462 
1394	 0.565452010662398 
1395	 0.562951274786237 
1396	 0.560750514593475 
1397	 0.55758484064908 
1398	 0.554406074454358 
1399	 0.552527137259084 
1400	 0.550328645032585 
1401	 0.547527666584553 
1402	 0.544282517144106 
1403	 0.54233261935479 
1404	 0.539196329252344 
1405	 0.535452794170918 
1406	 0.530755485626285 
1407	 0.528019498246096 
1408	 0.52482213463525 
1409	 0.521271208725674 
1410	 0.517681104898262 
1411	 0.514423946705444 
1412	 0.511145431133483 
1413	 0.507714435737275 
1414	 0.504342058160386 
1415	 0.501961140852107 
1416	 0.499760634257814 
1417	 0.49728589706576 
1418	 0.49564504714008 
1419	 0.493058818943307 
1420	 0.489344152179249 
1421	 0.487102556436286 
1422	 0.485184805964969 
1423	 0.483579215705567 
1424	 0.482658662343402 
1425	 0.481323997474423 
1426	 0.479673263603279 
1427	 0.47849748925225 
1428	 0.477223613197117 
1429	 0.476388248755924 
1430	 0.47594331033621 
1431	 0.47552118824004 
1432	 0.475285232418959 
1433	 0.475039768774924 
1434	 0.47483707671533 
1435	 0.474771556870244 
1436	 0.47498766290545 
1437	 0.474901539587917 
1438	 0.474917807236938 
1439	 0.474592696454909 
1440	 0.474042258956923 
1441	 0.473317598548553 
1442	 0.472356747205749 
1443	 0.471387623999841 
1444	 0.470523425385071 
1445	 0.469333695656426 
1446	 0.468146768760975 
1447	 0.467082087389113 
1448	 0.465799348713961 
1449	 0.464370055437784 
1450	 0.463044176113264 
1451	 0.461583084395402 
1452	 0.460580368718411 
1453	 0.459758241517884 
1454	 0.458924521424986 
1455	 0.458171457000424 
1456	 0.457686450534369 
1457	 0.45708431103682 
1458	 0.456918641584716 
1459	 0.457195030589512 
1460	 0.457357284412701 
1461	 0.457599563410291 
1462	 0.458007683674316 
1463	 0.458495652113483 
1464	 0.459210068620345 
1465	 0.460423545352277 
1466	 0.461242008265532 
1467	 0.462168972278406 
1468	 0.462768698663955 
1469	 0.462859748287106 
1470	 0.463147347490643 
1471	 0.463560318927404 
1472	 0.463542238156859 
1473	 0.463338502167808 
1474	 0.463024769168456 
1475	 0.462145122945809 
1476	 0.461708565487664 
1477	 0.461666878794428 
1478	 0.46127301859382 
1479	 0.460855689340671 
1480	 0.460398793321595 
1481	 0.459727697349981 
1482	 0.45908627286743 
1483	 0.45853187506869 
1484	 0.457926429042637 
1485	 0.45731971652119 
1486	 0.45659321811534 
1487	 0.455857782236807 
1488	 0.455029310129406 
1489	 0.45412260179465 
1490	 0.453302842571813 
1491	 0.452661214169314 
1492	 0.452141324272705 
1493	 0.451616294706085 
1494	 0.451042484428342 
1495	 0.450575562167201 
1496	 0.450033275142921 
1497	 0.449750515282842 
1498	 0.449681390378565 
1499	 0.449445024323636 
1500	 0.449180388057334 
1501	 0.449108029962264 
1502	 0.449083799233404 
1503	 0.449005178905581 
1504	 0.44908149130788 
1505	 0.449047348146494 
1506	 0.448869456990332 
1507	 0.448751058179568 
1508	 0.448656994132027 
1509	 0.448642347582688 
1510	 0.448644142195647 
1511	 0.44860028068874 
1512	 0.44862282449739 
1513	 0.4486377172007 
1514	 0.448559166645951 
1515	 0.448559329496889 
1516	 0.448686368847269 
1517	 0.448725653843193 
1518	 0.448709063216291 
1519	 0.448701718059323 
1520	 0.448648874576603 
1521	 0.448679937315649 
1522	 0.448747285595073 
1523	 0.448820095681417 
1524	 0.449007704902338 
1525	 0.449065575068351 
1526	 0.448986243985744 
1527	 0.449036468544469 
1528	 0.449057379653222 
1529	 0.44917896400196 
1530	 0.449472525651352 
1531	 0.44967410028893 
1532	 0.449890437277184 
1533	 0.450061120000169 
1534	 0.450221999908404 
1535	 0.450311534976389 
1536	 0.450248371653082 
1537	 0.450350619232277 
1538	 0.450508856447963 
1539	 0.450640583576311 
1540	 0.450909200917128 
1541	 0.45108791681809 
1542	 0.451113717625793 
1543	 0.451244714908474 
1544	 0.451462140180448 
1545	 0.451615060326101 
1546	 0.451740121144746 
1547	 0.451920456684352 
1548	 0.452128202157653 
1549	 0.45228022734658 
1550	 0.452443037630389 
1551	 0.452616069577031 
1552	 0.45270055239014 
1553	 0.452846148363921 
1554	 0.453090160052774 
1555	 0.453297111195791 
1556	 0.453520265571852 
1557	 0.45370185186056 
1558	 0.453864136577008 
1559	 0.45399404595181 
1560	 0.454000723038125 
1561	 0.454121322070889 
1562	 0.454350291163129 
1563	 0.454494383721365 
1564	 0.454606743069739 
1565	 0.454804709647269 
1566	 0.45492145475411 
1567	 0.45510501074786 
1568	 0.455346586555441 
1569	 0.455738018524116 
1570	 0.455969621822063 
1571	 0.456155901228996 
1572	 0.456362080197759 
1573	 0.456495916995996 
1574	 0.456767531349042 
1575	 0.45715882442298 
1576	 0.457334739169454 
1577	 0.457468004345716 
1578	 0.457631907722039 
1579	 0.457633191325466 
1580	 0.457848626302484 
1581	 0.458264326250191 
1582	 0.458450720121877 
1583	 0.458590494745407 
1584	 0.458724058427025 
1585	 0.458721615808605 
1586	 0.45890808575926 
1587	 0.459177592890302 
1588	 0.459451696411013 
1589	 0.459837796872787 
1590	 0.460075970797351 
1591	 0.460298013564151 
1592	 0.460431945022293 
1593	 0.460426435533892 
1594	 0.460560285954902 
1595	 0.460707283392207 
1596	 0.46085147868636 
1597	 0.461054512302748 
1598	 0.461230545374856 
1599	 0.461379668364632 
1600	 0.46152252269615 
1601	 0.461695357172962 
1602	 0.461816343624657 
1603	 0.461839076968965 
1604	 0.462022749730217 
1605	 0.462300537624154 
1606	 0.46247176578135 
1607	 0.462688896027371 
1608	 0.462830230925692 
1609	 0.462858491644167 
1610	 0.462949959141601 
1611	 0.463061119104757 
1612	 0.463179974620143 
1613	 0.463287454118468 
1614	 0.463394588118215 
1615	 0.463533231321591 
1616	 0.463641614779069 
1617	 0.463730030157113 
1618	 0.46381554242432 
1619	 0.463877813610607 
1620	 0.463981787425015 
1621	 0.464092257974523 
1622	 0.464196668151202 
1623	 0.464346717596303 
1624	 0.46444200745289 
1625	 0.464481150842651 
1626	 0.464581726230113 
1627	 0.464683272629825 
1628	 0.464828044735284 
1629	 0.464998153101247 
1630	 0.465221067488311 
1631	 0.465538150434527 
1632	 0.465706912513012 
1633	 0.465888499084621 
1634	 0.465961699067574 
1635	 0.465850771144561 
1636	 0.465925632171288 
1637	 0.466024282644917 
1638	 0.466177977829003 
1639	 0.466462219296366 
1640	 0.466582511548592 
1641	 0.466647372250265 
1642	 0.46673759299592 
1643	 0.466735351393532 
1644	 0.466866896648141 
1645	 0.467095493285901 
1646	 0.467277710011562 
1647	 0.467472658424352 
1648	 0.467687109922312 
1649	 0.467915740636375 
1650	 0.468085850820073 
1651	 0.468273668319041 
1652	 0.468420346200797 
1653	 0.468467086300671 
1654	 0.468665542646664 
1655	 0.468925460155085 
1656	 0.469142519557979 
1657	 0.46945149712372 
1658	 0.469523488041121 
1659	 0.469633098331539 
1660	 0.469751131439807 
1661	 0.469758099627271 
1662	 0.469911678163042 
1663	 0.47013500817361 
1664	 0.470155902467061 
1665	 0.470264708329105 
1666	 0.470393246204106 
1667	 0.470402793478302 
1668	 0.47052881054406 
1669	 0.470490625748545 
1670	 0.470413014192435 
1671	 0.470316720612104 
1672	 0.47015518290613 
1673	 0.470278383698907 
1674	 0.470384373919089 
1675	 0.470412987503435 
1676	 0.47055207207133 
1677	 0.470552051294487 
1678	 0.470544704803375 
1679	 0.470550416623698 
1680	 0.4703915530367 
1681	 0.470271606763524 
1682	 0.470122865593347 
1683	 0.470054741827367 
1684	 0.470146981608749 
1685	 0.470300684090733 
1686	 0.470627841980112 
1687	 0.470755974227639 
1688	 0.470795376387543 
1689	 0.470889362602027 
1690	 0.470683203054509 
1691	 0.470669218860318 
1692	 0.470787087239689 
1693	 0.470856682772371 
1694	 0.471054763931558 
1695	 0.471092936271793 
1696	 0.470966094390282 
1697	 0.470921274441658 
1698	 0.470768852600606 
1699	 0.470743510667524 
1700	 0.470872058365328 
1701	 0.470976823184072 
1702	 0.471207653663015 
1703	 0.471298592202368 
1704	 0.471290386938649 
1705	 0.471276985178815 
1706	 0.471149208543072 
1707	 0.471065103819718 
1708	 0.471054826617924 
1709	 0.470983618154018 
1710	 0.470827629453514 
1711	 0.470791949264803 
1712	 0.47085674184429 
1713	 0.470753451113986 
1714	 0.470570181723311 
1715	 0.470437115774818 
1716	 0.470213578352198 
1717	 0.470104083203114 
1718	 0.470186943705327 
1719	 0.470095234523032 
1720	 0.469884391917133 
1721	 0.469717478738726 
1722	 0.469534846450775 
1723	 0.469288359912945 
1724	 0.468993028923112 
1725	 0.468836565772751 
1726	 0.468676646720523 
1727	 0.46852752104183 
1728	 0.468499364491869 
1729	 0.46843536574111 
1730	 0.46818871433325 
1731	 0.468333199767428 
1732	 0.468581840720307 
1733	 0.468806195640914 
1734	 0.469284409031129 
1735	 0.469691681996134 
1736	 0.470014461347223 
1737	 0.470254767686052 
1738	 0.470557376737594 
1739	 0.470910246879379 
1740	 0.471160093737441 
1741	 0.471449702640752 
1742	 0.471685496726693 
1743	 0.472076297428118 
1744	 0.472331006310143 
1745	 0.472437649471233 
1746	 0.472780061956057 
1747	 0.472691407843459 
1748	 0.47249012557818 
1749	 0.472898273680405 
1750	 0.473198819896547 
1751	 0.473216909067157 
1752	 0.473364211873182 
1753	 0.473294197258432 
1754	 0.473061423374639 
1755	 0.473311642348848 
1756	 0.473889098751388 
1757	 0.474390805088625 
1758	 0.474758478133644 
1759	 0.474830400643797 
1760	 0.47519799162044 
1761	 0.475666361364745 
1762	 0.476149972389882 
1763	 0.4769650037607 
1764	 0.477627614527455 
1765	 0.478132548009739 
1766	 0.478742719489681 
1767	 0.47938262368921 
1768	 0.480048087189635 
1769	 0.480817641343391 
1770	 0.481556423172073 
1771	 0.482268980068961 
1772	 0.483002393384859 
1773	 0.483720049428775 
1774	 0.484538952740688 
1775	 0.485332373139682 
1776	 0.485951950801579 
1777	 0.486775003700901 
1778	 0.487615193145317 
1779	 0.48841543088807 
1780	 0.489487258251516 
1781	 0.490292746352758 
1782	 0.490809913211 
1783	 0.491626916845097 
1784	 0.492483801360428 
1785	 0.493263378317125 
1786	 0.493883854588445 
1787	 0.494260036168178 
1788	 0.49473451973968 
1789	 0.495520162897354 
1790	 0.49673565390795 
1791	 0.49819132107765 
1792	 0.499216235599825 
1793	 0.499838487029095 
1794	 0.501138326255836 
1795	 0.503025604200616 
1796	 0.504778014243336 
1797	 0.506911971422367 
1798	 0.509373986535591 
1799	 0.511200595966366 
1800	 0.514262684849911 
1801	 0.511612434218879 
1802	 0.515210777852667 
1803	 0.51790419036053 
1804	 0.518948401352742 
1805	 0.522226342845455 
1806	 0.528649376446912 
1807	 0.532402398948687 
1808	 0.535075904033504 
1809	 0.538961662628709 
1810	 0.542071255556872 
1811	 0.542145195133427 
1812	 0.544454755551757 
1813	 0.549101864735835 
1814	 0.552102577045766 
1815	 0.552081470649417 
1816	 0.555601590262267 
1817	 0.562664240289731 
1818	 0.567830961852124 
1819	 0.573280490190126 
1820	 0.58260061674773 
1821	 0.585845278684035 
1822	 0.581568962406055 
1823	 0.582194245392507 
1824	 0.577372332356542 
1825	 0.580058880496655 
1826	 0.597851802741194 
1827	 0.606343134198281 
1828	 0.613601376173338 
1829	 0.623074359131071 
1830	 0.634550580882592 
1831	 0.6278332228196 
1832	 0.640262261845351 
1833	 0.695555952923335 
1834	 0.731035166435952 
1835	 0.741056946041643 
1836	 0.766365948675329 
1837	 0.760495550209491 
1838	 0.746322641302574 
1839	 0.722275284574529 
1840	 0.696777907164783 
1841	 0.673027942302992 
1842	 0.634232533070333 
1843	 0.612498842181242 
1844	 0.592193338549229 
1845	 0.592040655441674 
1846	 0.602086868074319 
1847	 0.612839681711804 
1848	 0.632024021545601 
1849	 0.676315721306265 
1850	 0.708501650190841 
1851	 0.743031267910646 
1852	 0.764478970606359 
1853	 0.794100177961711 
1854	 0.809271742419889 
1855	 0.81236155152187 
1856	 0.796065479611682 
1857	 0.744899148295817 
1858	 0.740919227653923 
1859	 0.728160326339373 
1860	 0.70369387756899 
1861	 0.686684149008523 
1862	 0.676016589391278 
1863	 0.672938279167897 
1864	 0.659407334177123 
1865	 0.666823689726404 
1866	 0.720949248279707 
1867	 0.746694371171047 
1868	 0.75372970790223 
1869	 0.761473392059292 
1870	 0.751476907399507 
1871	 0.716134233054253 
1872	 0.685229707419406 
1873	 0.634937585546343 
1874	 0.624767436686324 
1875	 0.623308904116283 
1876	 0.623491430479019 
1877	 0.627591352201766 
1878	 0.651590770244385 
1879	 0.676775775250713 
1880	 0.686949483245213 
1881	 0.68314966326546 
1882	 0.676447505601537 
1883	 0.670106650802209 
1884	 0.643827215126851 
1885	 0.636831716844449 
1886	 0.645884956212429 
1887	 0.643312393132784 
1888	 0.636248113119578 
1889	 0.63902917206863 
1890	 0.641304358872403 
1891	 0.644451517183619 
1892	 0.645735430643662 
1893	 0.654341672447177 
1894	 0.653265311141304 
1895	 0.639312490380375 
1896	 0.633689395724615 
1897	 0.626949753626294 
1898	 0.614658890920461 
1899	 0.632541470135435 
1900	 0.648350914828834 
1901	 0.657104210036919 
1902	 0.671982832783956 
1903	 0.685528583621064 
1904	 0.676326171406799 
1905	 0.688454177282306 
1906	 0.727534658434545 
1907	 0.7503445267637 
1908	 0.725550892011398 
1909	 0.693781849278643 
1910	 0.642031575012978 
1911	 0.605442529727767 
1912	 0.59499124332081 
1913	 0.601247398315441 
1914	 0.593100665608857 
1915	 0.59265287428682 
1916	 0.585283899494447 
1917	 0.574354637407306 
1918	 0.561422039895133 
1919	 0.548801787098674 
1920	 0.542907617756769 
1921	 0.542191589500081 
1922	 0.545223977874004 
1923	 0.545400911759935 
1924	 0.548651538237008 
1925	 0.549492691598257 
1926	 0.549639529615871 
1927	 0.546222669059388 
1928	 0.54128987060818 
1929	 0.538404598417193 
1930	 0.534287373750984 
1931	 0.527676187226835 
1932	 0.523759184810589 
1933	 0.520638668442096 
1934	 0.515774944374686 
1935	 0.508896542222351 
1936	 0.504737489266797 
1937	 0.500736062294686 
1938	 0.497488362791206 
1939	 0.495474461473791 
1940	 0.492911555218471 
1941	 0.490775411453002 
1942	 0.490652398444212 
1943	 0.487909358964451 
1944	 0.485210776706721 
1945	 0.482728193221057 
1946	 0.4789028460762 
1947	 0.476476031371806 
1948	 0.47515250681826 
1949	 0.473689318146915 
1950	 0.47214042984629 
1951	 0.470798819603075 
1952	 0.471204431920132 
1953	 0.471496599261113 
1954	 0.469906962122006 
1955	 0.468889817217706 
1956	 0.467417196829077 
1957	 0.46490338738296 
1958	 0.463003718825644 
1959	 0.46239711436108 
1960	 0.460684984700711 
1961	 0.458646604741725 
1962	 0.456378771373617 
1963	 0.454031545140276 
1964	 0.451449934941279 
1965	 0.450259937421997 
1966	 0.450004939030557 
1967	 0.44916518121938 
1968	 0.448910968571943 
1969	 0.448499759637518 
1970	 0.447346490845542 
1971	 0.44678591964648 
1972	 0.446683619346725 
1973	 0.446532987274856 
1974	 0.446396105883067 
1975	 0.4467745351396 
1976	 0.446453953922208 
1977	 0.445952604711469 
1978	 0.446064737390164 
1979	 0.446008138877306 
1980	 0.445902297882037 
1981	 0.44603527856772 
1982	 0.44567486634769 
1983	 0.444794655834865 
1984	 0.443705820487638 
1985	 0.442959627571205 
1986	 0.442131627570015 
1987	 0.441890758061305 
1988	 0.441856168826632 
1989	 0.441487416380943 
1990	 0.441862926862098 
1991	 0.441906243314364 
1992	 0.441039025456137 
1993	 0.440494489190472 
1994	 0.440095645177254 
1995	 0.439856828344799 
1996	 0.439648474030662 
1997	 0.44003618205073 
1998	 0.44086293589234 
1999	 0.441628817213723 
2000	 0.442191984150358 
2001	 0.4433227583117 
2002	 0.445226646050744 
2003	 0.446867077931876 
2004	 0.448872002907257 
2005	 0.451884423707742 
2006	 0.45423250396728 
2007	 0.455889247105019 
2008	 0.457728105106898 
2009	 0.46008585812405 
2010	 0.46184711605571 
2011	 0.464336131675814 
2012	 0.466381134011719 
2013	 0.467405896441567 
2014	 0.468528432290279 
2015	 0.469359771507586 
2016	 0.470335398101691 
2017	 0.471361843417869 
2018	 0.472235967901863 
2019	 0.47303961978718 
2020	 0.473583968894646 
2021	 0.474121675969668 
2022	 0.474928773803103 
2023	 0.475519843047117 
2024	 0.476369126323201 
2025	 0.477032368313177 
2026	 0.477611467749512 
2027	 0.478323409339379 
2028	 0.478814876329808 
2029	 0.479503620009432 
2030	 0.479576407471675 
2031	 0.479407026621307 
2032	 0.479553823334309 
2033	 0.479638718491602 
2034	 0.479533275022463 
2035	 0.480212385212083 
2036	 0.481200178740521 
2037	 0.48180962039639 
2038	 0.482582287133572 
2039	 0.483146475391441 
2040	 0.48357999500437 
2041	 0.484182439959775 
2042	 0.484647729077382 
2043	 0.485121123317106 
2044	 0.485660648195218 
2045	 0.486213832722775 
2046	 0.486792384263623 
2047	 0.487359106848696 
2048	 0.48804072509557 
2049	 0.488534555276665 
2050	 0.488747880465281 
2051	 0.489463334336179 
2052	 0.489726094388776 
2053	 0.48946875679304 
2054	 0.490148116017737 
2055	 0.490334000290797 
2056	 0.490030523444194 
2057	 0.491082885641794 
2058	 0.491822644126799 
2059	 0.492041678501427 
2060	 0.49184827805589 
2061	 0.492374832395521 
2062	 0.491948737148758 
2063	 0.491658214855831 
2064	 0.492600817312357 
2065	 0.493051427711436 
2066	 0.493854621852083 
2067	 0.494237313207552 
2068	 0.49388653040154 
2069	 0.494199544646517 
2070	 0.49428583942869 
2071	 0.494743743090929 
2072	 0.495095188290627 
2073	 0.495635923015706 
2074	 0.495490354938023 
2075	 0.495667118244585 
2076	 0.495674781895726 
2077	 0.495290757197484 
2078	 0.495425549744791 
2079	 0.495765582388517 
2080	 0.496200448535295 
2081	 0.496941235015015 
2082	 0.497658425782155 
2083	 0.497833154254254 
2084	 0.49764634116532 
2085	 0.497779718498242 
2086	 0.497731394623476 
2087	 0.497627973844425 
2088	 0.497487870085055 
2089	 0.497643702966483 
2090	 0.497686868184611 
2091	 0.498031653985211 
2092	 0.498577959594577 
2093	 0.498763877716464 
2094	 0.498994595840042 
2095	 0.499376772569946 
2096	 0.499704046605236 
2097	 0.500114499623044 
2098	 0.500451819584742 
2099	 0.500576602721602 
2100	 0.500595981022935 
2101	 0.500665560344704 
2102	 0.50065926758868 
2103	 0.50065151839715 
2104	 0.500317667348995 
2105	 0.500010128191194 
2106	 0.499685135348996 
2107	 0.499585572296635 
2108	 0.499689744446883 
2109	 0.499794948596858 
2110	 0.50008490417141 
2111	 0.49993561140811 
2112	 0.499637422679865 
2113	 0.499691242066285 
2114	 0.499666387498883 
2115	 0.49951466219331 
2116	 0.499651566108581 
2117	 0.499757839543166 
2118	 0.499691328184484 
2119	 0.499837725400442 
2120	 0.500297713500322 
2121	 0.500359024071811 
2122	 0.500789758162661 
2123	 0.500677027811108 
2124	 0.500092112549332 
2125	 0.499775632883412 
2126	 0.499008467255944 
2127	 0.498524499323668 
2128	 0.498804551338431 
2129	 0.498803963716295 
2130	 0.498386628894078 
2131	 0.497929368591191 
2132	 0.497398973359212 
2133	 0.496868125727064 
2134	 0.496377825137028 
2135	 0.496125690126983 
2136	 0.495740621404481 
2137	 0.495172655772531 
2138	 0.494646485455511 
2139	 0.493720070151498 
2140	 0.492729135174687 
2141	 0.491368146779174 
2142	 0.489735253362316 
2143	 0.488850290393893 
2144	 0.487422315055552 
2145	 0.485960924770386 
2146	 0.485365936722245 
2147	 0.48441986530626 
2148	 0.483714473344167 
2149	 0.48345655070187 
2150	 0.482647991099767 
2151	 0.481854935581974 
2152	 0.480849915977941 
2153	 0.480215643305804 
2154	 0.479594346501514 
2155	 0.479208624693866 
2156	 0.479151024342644 
2157	 0.478958404098274 
2158	 0.478954758578885 
2159	 0.478960866410058 
2160	 0.478715145810126 
2161	 0.478663788359593 
2162	 0.478870777733962 
2163	 0.479477172401791 
2164	 0.480010582635326 
2165	 0.480850683025985 
2166	 0.481751024535702 
2167	 0.482278374957418 
2168	 0.483056596255436 
2169	 0.484171020421367 
2170	 0.484883716157452 
2171	 0.485511701319941 
2172	 0.486154856684269 
2173	 0.486108720694699 
2174	 0.486627553197545 
2175	 0.487260301255314 
2176	 0.487211332926915 
2177	 0.487473850279224 
2178	 0.487957714026312 
2179	 0.488172735146492 
2180	 0.488883409882129 
2181	 0.490172636980136 
2182	 0.490588342462806 
2183	 0.49042947290094 
2184	 0.49024672806233 
2185	 0.489800733748513 
2186	 0.489304295664751 
2187	 0.488956804135549 
2188	 0.488947833839901 
2189	 0.488824092403853 
2190	 0.488545139257465 
2191	 0.488605728756355 
2192	 0.488351405125705 
2193	 0.487443511974483 
2194	 0.487333728854217 
2195	 0.486822603838632 
2196	 0.486618643950585 
2197	 0.487197409325919 
2198	 0.486216622240203 
2199	 0.48501853728933 
2200	 0.484550236093147 
2201	 0.483466268575014 
2202	 0.482371884104509 
2203	 0.482182986502744 
2204	 0.481884854322168 
2205	 0.480872839882475 
2206	 0.480407768319636 
2207	 0.480209384836763 
2208	 0.479391293915077 
2209	 0.477690028013515 
2210	 0.476836677745574 
2211	 0.476196998521536 
2212	 0.475563764130066 
2213	 0.474782090247056 
2214	 0.473926313293447 
2215	 0.473441398697704 
2216	 0.472522248531678 
2217	 0.471723872346178 
2218	 0.47179020584094 
2219	 0.471285479237033 
2220	 0.47077159458105 
2221	 0.470417774272902 
2222	 0.469666947953655 
2223	 0.469656025286149 
2224	 0.469255992993561 
2225	 0.468563446050626 
2226	 0.467650106307603 
2227	 0.465712560677035 
2228	 0.46426243949611 
2229	 0.462820221935605 
2230	 0.461395410023264 
2231	 0.459944865944544 
2232	 0.458445114462827 
2233	 0.457077709808458 
2234	 0.455607318529736 
2235	 0.454429322969601 
2236	 0.453476034009727 
2237	 0.452306442118502 
2238	 0.450401565709474 
2239	 0.448428474557261 
2240	 0.446616812418465 
2241	 0.444875365193423 
2242	 0.443420793006406 
2243	 0.44187871784105 
2244	 0.440215879471688 
2245	 0.438785015069591 
2246	 0.436959198423725 
2247	 0.435022733346818 
2248	 0.433303941207205 
2249	 0.431527464501325 
2250	 0.430198558738444 
2251	 0.429092644042262 
2252	 0.427048511864233 
2253	 0.424638911180913 
2254	 0.421952136651874 
2255	 0.41860009828501 
2256	 0.415925296309834 
2257	 0.413715601706118 
2258	 0.411776541919991 
2259	 0.409933535968017 
2260	 0.408507286191547 
2261	 0.406363805854803 
2262	 0.403840436922644 
2263	 0.401410047129081 
2264	 0.39871229435741 
2265	 0.39596210685737 
2266	 0.394075425027311 
2267	 0.391968268709017 
2268	 0.38858009474118 
2269	 0.38614328486079 
2270	 0.383266633851018 
2271	 0.379181928008585 
2272	 0.376699066508765 
2273	 0.373971877051832 
2274	 0.37051954147953 
2275	 0.368306432507005 
2276	 0.365173252091844 
2277	 0.361089754368546 
2278	 0.358476962638494 
2279	 0.35547222466089 
2280	 0.352350083340843 
2281	 0.350383878159605 
2282	 0.347469018982047 
2283	 0.344245876593494 
2284	 0.341532109254789 
2285	 0.338781334389147 
2286	 0.33597979417118 
2287	 0.33334581906102 
2288	 0.330475507923666 
2289	 0.327674209786344 
2290	 0.324826883747334 
2291	 0.321527603126216 
2292	 0.319332108478989 
2293	 0.317632057988668 
2294	 0.316184423662154 
2295	 0.316646158565733 
2296	 0.316382181990135 
2297	 0.314836394393623 
2298	 0.313078321716418 
2299	 0.309678784778359 
2300	 0.306999968791197 
2301	 0.305289707008215 
2302	 0.303392566963674 
2303	 0.302429665250445 
2304	 0.301619559711379 
2305	 0.300884266099252 
2306	 0.299672321582848 
2307	 0.29836336186891 
2308	 0.297171522440368 
2309	 0.294927167544998 
2310	 0.293297014588358 
2311	 0.292442462033649 
2312	 0.291134177006342 
2313	 0.290318454519831 
2314	 0.289469232419454 
2315	 0.288337292507706 
2316	 0.286592321469634 
2317	 0.285278449791767 
2318	 0.28484000885972 
2319	 0.281594900613868 
2320	 0.2789172160606 
2321	 0.277155921120517 
2322	 0.27522077424821 
2323	 0.272696556469118 
2324	 0.271363284525319 
2325	 0.269033766649681 
2326	 0.265038576493707 
2327	 0.262184711896945 
2328	 0.259406555730481 
2329	 0.257649350131693 
2330	 0.256903428794021 
2331	 0.254301339329017 
2332	 0.253075900484325 
2333	 0.252436329383811 
2334	 0.249299193701428 
2335	 0.246451582111059 
2336	 0.244018822871375 
2337	 0.242028746173192 
2338	 0.241608042753136 
2339	 0.24201792667586 
2340	 0.241840929534466 
2341	 0.240702500220294 
2342	 0.24051574392431 
2343	 0.241576385434676 
2344	 0.244105544464207 
2345	 0.248147614162763 
2346	 0.251459921696038 
2347	 0.254652531268746 
2348	 0.257708408696514 
2349	 0.26173699934704 
2350	 0.267752734179163 
2351	 0.273939494291786 
2352	 0.280433602350506 
2353	 0.285281935728394 
2354	 0.289802113127097 
2355	 0.295205100143808 
2356	 0.300943213157009 
2357	 0.30828276087928 
2358	 0.315691188652627 
2359	 0.322636006861681 
2360	 0.329574879772543 
2361	 0.337480454856403 
2362	 0.34480725487724 
2363	 0.350521376728783 
2364	 0.358048004912928 
2365	 0.365680420237636 
2366	 0.371486532658894 
2367	 0.379664811557181 
2368	 0.387191070080804 
2369	 0.391270886888545 
2370	 0.397156029461577 
2371	 0.403449078661191 
2372	 0.409334408757778 
2373	 0.416553673611509 
2374	 0.420761356058009 
2375	 0.422498374603612 
2376	 0.424949458440879 
2377	 0.42512409481593 
2378	 0.426840261590731 
2379	 0.429839201500031 
2380	 0.432762061702735 
2381	 0.435019134888509 
2382	 0.437478154112182 
2383	 0.442515755077271 
2384	 0.443891834667528 
2385	 0.441850961225694 
2386	 0.442786766342893 
2387	 0.443976312473055 
2388	 0.443380383757526 
2389	 0.444133336435698 
2390	 0.444213812328209 
2391	 0.441285785983172 
2392	 0.43908548232246 
2393	 0.438117721069637 
2394	 0.436050231885012 
2395	 0.431719492546854 
2396	 0.430915927815035 
2397	 0.431696214252784 
2398	 0.432447513130847 
2399	 0.436531660715508 
2400	 0.43717862254864 
2401	 0.436823667224033 
2402	 0.43383884930772 
2403	 0.430036674118665 
2404	 0.429842885777827 
2405	 0.432462858309293 
2406	 0.438678919514989 
2407	 0.444261942012129 
2408	 0.446527463273835 
2409	 0.449917158415068 
2410	 0.449949024933087 
2411	 0.446451567488562 
2412	 0.445925689963882 
2413	 0.442847913100599 
2414	 0.438927693998033 
2415	 0.443173127114435 
2416	 0.444127614091797 
2417	 0.4338835514714 
2418	 0.427921368072945 
2419	 0.423600982553113 
2420	 0.418162473734771 
2421	 0.421887871902293 
2422	 0.420966669232803 
2423	 0.415380517571352 
2424	 0.410757998100588 
2425	 0.40320827433998 
2426	 0.397856520920518 
2427	 0.395013224302181 
2428	 0.392041781557921 
2429	 0.389644376438923 
2430	 0.392609845353749 
2431	 0.395869815372194 
2432	 0.397954399383162 
2433	 0.39861669294737 
2434	 0.399148609834072 
2435	 0.401224240421825 
2436	 0.397956062518398 
2437	 0.388972404130621 
2438	 0.384716361515898 
2439	 0.376978353760753 
2440	 0.375046970730101 
2441	 0.381878948161523 
2442	 0.384196085120392 
2443	 0.387225871215005 
2444	 0.386772094648911 
2445	 0.385334859192464 
2446	 0.383127967683372 
2447	 0.371905155568419 
2448	 0.369724140580579 
2449	 0.380376160445479 
2450	 0.375400737568558 
2451	 0.364652767467218 
2452	 0.360388883057815 
2453	 0.342794438548737 
2454	 0.337007291645893 
2455	 0.348575610283995 
2456	 0.348573141407799 
2457	 0.347683233140893 
2458	 0.342322126202541 
2459	 0.326801947806488 
2460	 0.321188547339161 
2461	 0.316058837733661 
2462	 0.315775072577661 
2463	 0.329031703022403 
2464	 0.328747073836677 
2465	 0.321789998081537 
2466	 0.316682407516574 
2467	 0.30311083813889 
2468	 0.297232793857957 
2469	 0.296785269525299 
2470	 0.294386505194269 
2471	 0.292295164687172 
2472	 0.291141751678249 
2473	 0.293067094135457 
2474	 0.293475065922414 
2475	 0.296713881408778 
2476	 0.29665062113185 
2477	 0.292103156851145 
2478	 0.290145954689556 
2479	 0.289588772999258 
2480	 0.277668779869626 
2481	 0.257439442412485 
2482	 0.241578629599358 
2483	 0.204777291150194 
2484	 0.204530992878101 
2485	 0.246880513426645 
2486	 0.278706143279963 
2487	 0.306255195396555 
2488	 0.345416808159853 
2489	 0.341253902144896 
2490	 0.30996285009401 
2491	 0.324826032311838 
2492	 0.292068687898607 
2493	 0.265998430053683 
2494	 0.277348765252582 
2495	 0.243787996286668 
2496	 0.232621133009306 
2497	 0.219492670365061 
2498	 0.221816581116691 
2499	 0.256114553883539 
2500	 0.25275321425835 
