Wavelength	ref00138.asd
350	 2.2504502124214 
351	 2.22047896433244 
352	 2.28099650793354 
353	 2.23599839239253 
354	 2.24691661948697 
355	 2.26218772245082 
356	 2.23281478856907 
357	 2.18783784408198 
358	 2.20488772139041 
359	 2.21983983801688 
360	 2.15984881358995 
361	 2.10707312791298 
362	 2.10366784209159 
363	 2.12767985649637 
364	 2.11842529128211 
365	 2.08870005769493 
366	 2.06915554537697 
367	 2.0705642838905 
368	 2.07506559960173 
369	 2.05064496146031 
370	 2.03403032379751 
371	 2.04459455481031 
372	 2.00086249328377 
373	 1.9601249097999 
374	 1.94781931266164 
375	 1.96348513688909 
376	 1.94415218610101 
377	 1.91166647055055 
378	 1.88916385756808 
379	 1.89008334209025 
380	 1.87623869359044 
381	 1.85778432448191 
382	 1.84694311743471 
383	 1.83261972552891 
384	 1.82319224328516 
385	 1.81364345150331 
386	 1.79528412998241 
387	 1.77594163681521 
388	 1.74868735994591 
389	 1.72333091879999 
390	 1.72163597131038 
391	 1.69995550903706 
392	 1.68890164613553 
393	 1.69916268689584 
394	 1.67226750383296 
395	 1.644284406133 
396	 1.62839010049139 
397	 1.62332816617091 
398	 1.59998206949877 
399	 1.58417683815306 
400	 1.57456469377572 
401	 1.5500929721007 
402	 1.54093823623368 
403	 1.53171191968257 
404	 1.51359167750314 
405	 1.50211955111892 
406	 1.48935983047942 
407	 1.47517893522977 
408	 1.46141644903523 
409	 1.44770666263727 
410	 1.43343293218051 
411	 1.41870575739711 
412	 1.4046203449457 
413	 1.39492630046715 
414	 1.38728686970872 
415	 1.37766255503771 
416	 1.35967340172712 
417	 1.34752664028175 
418	 1.33901644382963 
419	 1.32747552628464 
420	 1.31292389854292 
421	 1.30247730467889 
422	 1.29562727705949 
423	 1.28561583651564 
424	 1.27509064154569 
425	 1.26409826203698 
426	 1.25417153934425 
427	 1.25132344803524 
428	 1.24494501431047 
429	 1.23502781080889 
430	 1.22519827822286 
431	 1.21695797507748 
432	 1.20485827471903 
433	 1.19181976437894 
434	 1.18683998424975 
435	 1.17849799599315 
436	 1.17257261761396 
437	 1.17044472582111 
438	 1.15873671869021 
439	 1.14968115270799 
440	 1.14218282499737 
441	 1.13240675851688 
442	 1.1265292953864 
443	 1.12009425254221 
444	 1.11231876703037 
445	 1.10606224581918 
446	 1.09949410583358 
447	 1.09308248201177 
448	 1.08709621324707 
449	 1.08071834972009 
450	 1.07292306440384 
451	 1.06590300978142 
452	 1.06203202518137 
453	 1.0559104321798 
454	 1.0500303868882 
455	 1.04526568702633 
456	 1.04003856355441 
457	 1.03449136571135 
458	 1.02834036013668 
459	 1.02165064444599 
460	 1.01557510523169 
461	 1.01020786030939 
462	 1.00527011269954 
463	 1.00035983390384 
464	 0.996228835741601 
465	 0.991761251513145 
466	 0.987014776711126 
467	 0.984036629197964 
468	 0.978282078585616 
469	 0.972641878027955 
470	 0.969950418511569 
471	 0.9647945679331 
472	 0.959300284651164 
473	 0.954674179818528 
474	 0.951130599456776 
475	 0.946592690880353 
476	 0.942382936260114 
477	 0.938893523735128 
478	 0.933916239125498 
479	 0.929619368136549 
480	 0.926377235979303 
481	 0.923704771933972 
482	 0.920090182147652 
483	 0.916808011393302 
484	 0.914468853965352 
485	 0.91275315957686 
486	 0.908190927578485 
487	 0.902426682011158 
488	 0.897632172917608 
489	 0.89449002343473 
490	 0.890651410138731 
491	 0.886286129582881 
492	 0.882529695310194 
493	 0.87945738685202 
494	 0.876306745080234 
495	 0.872566012046099 
496	 0.868131675711408 
497	 0.865545117249979 
498	 0.862998101565093 
499	 0.858848410229354 
500	 0.855675366700243 
501	 0.851776541955241 
502	 0.846710086622881 
503	 0.841070774067006 
504	 0.837509725480931 
505	 0.833017257243459 
506	 0.827340649614139 
507	 0.82572503152445 
508	 0.822169275536776 
509	 0.817397602612724 
510	 0.81372668580779 
511	 0.811174994279721 
512	 0.807248635693039 
513	 0.802304882851301 
514	 0.79895882873055 
515	 0.795422218964729 
516	 0.792082847247224 
517	 0.789048917681589 
518	 0.785000655315103 
519	 0.779869787358028 
520	 0.775289545175761 
521	 0.772670622466745 
522	 0.768382852882341 
523	 0.764373057954535 
524	 0.761467680741374 
525	 0.758961277728753 
526	 0.755834475421648 
527	 0.752611920503044 
528	 0.750204057132243 
529	 0.749781142637352 
530	 0.747902207846548 
531	 0.744880300570102 
532	 0.742968422366276 
533	 0.741359501443735 
534	 0.740464410283376 
535	 0.740061955078185 
536	 0.738777512539005 
537	 0.736954961974681 
538	 0.735585799357106 
539	 0.735456905512576 
540	 0.735504223667742 
541	 0.735665960369535 
542	 0.735454781208131 
543	 0.734242909203051 
544	 0.735077284843523 
545	 0.736684810929304 
546	 0.737848644867526 
547	 0.739083002187378 
548	 0.741091626647745 
549	 0.743850266840734 
550	 0.746875111227715 
551	 0.749202297534679 
552	 0.751541738386015 
553	 0.754348974164378 
554	 0.757600427149584 
555	 0.760856314985012 
556	 0.765165974723673 
557	 0.771124026936866 
558	 0.776443688843412 
559	 0.782587595720736 
560	 0.789596516635165 
561	 0.796737100539408 
562	 0.805053105471914 
563	 0.813787620937419 
564	 0.822932545903035 
565	 0.834221849424522 
566	 0.846070965452616 
567	 0.857861564005856 
568	 0.869605808776585 
569	 0.882593110743251 
570	 0.896022095457084 
571	 0.909488416633793 
572	 0.923120694786359 
573	 0.937330825768133 
574	 0.95116527043913 
575	 0.964305961537461 
576	 0.978455727223176 
577	 0.992065343077048 
578	 1.00562615507607 
579	 1.02043356817828 
580	 1.03575606684549 
581	 1.05084833476571 
582	 1.06561645427814 
583	 1.08085142870236 
584	 1.09588860145013 
585	 1.11023595412491 
586	 1.12371230028474 
587	 1.13719426740181 
588	 1.15108172719069 
589	 1.16506507109781 
590	 1.1782062072509 
591	 1.19178243348497 
592	 1.20554341498273 
593	 1.21903829398025 
594	 1.23084111416387 
595	 1.24336731404054 
596	 1.25559039142217 
597	 1.26577932942393 
598	 1.27473620217535 
599	 1.28275122323663 
600	 1.29041035409491 
601	 1.2984775878124 
602	 1.30528414195695 
603	 1.31171542634464 
604	 1.31850147221461 
605	 1.32470506612896 
606	 1.3301729731366 
607	 1.33516573932362 
608	 1.34010278435939 
609	 1.34468572142957 
610	 1.34836189232692 
611	 1.35132060432237 
612	 1.35478124283672 
613	 1.35835279283022 
614	 1.3614554459265 
615	 1.36375473575534 
616	 1.36613267011007 
617	 1.36841655447538 
618	 1.36999907666542 
619	 1.37025723621298 
620	 1.37111776580598 
621	 1.37174485835261 
622	 1.37169411536366 
623	 1.37203016849902 
624	 1.37210567685372 
625	 1.37124956340868 
626	 1.36935602771733 
627	 1.36909328410663 
628	 1.36803213677633 
629	 1.366027916817 
630	 1.36526293306554 
631	 1.36471403532858 
632	 1.36328534134737 
633	 1.36095348452225 
634	 1.36032748365106 
635	 1.36056783459618 
636	 1.36055161615106 
637	 1.35944123562389 
638	 1.35969697403929 
639	 1.36028159409369 
640	 1.36044948567788 
641	 1.36019759947828 
642	 1.36115287567496 
643	 1.3619106446673 
644	 1.36129895093213 
645	 1.36141447213853 
646	 1.36164925379372 
647	 1.36153564609225 
648	 1.36093154445814 
649	 1.36187652493797 
650	 1.36331643941832 
651	 1.36420464773809 
652	 1.36423520722635 
653	 1.36375966776787 
654	 1.36368016011343 
655	 1.36480607959398 
656	 1.36684287473606 
657	 1.36842793896175 
658	 1.36946502610078 
659	 1.37117411326427 
660	 1.37388028903311 
661	 1.37661379114333 
662	 1.37892800540458 
663	 1.38192805144812 
664	 1.38493703255874 
665	 1.38776319693281 
666	 1.39047412634206 
667	 1.39348484000417 
668	 1.39635322918984 
669	 1.39888679745442 
670	 1.40120925150991 
671	 1.40343292200385 
672	 1.40530226166985 
673	 1.40664749711885 
674	 1.40765663837135 
675	 1.40896763002075 
676	 1.40993816730071 
677	 1.40982903316195 
678	 1.41056266071514 
679	 1.41115651407284 
680	 1.41076737453734 
681	 1.40900537960271 
682	 1.40811290010555 
683	 1.4061736451681 
684	 1.40183742327721 
685	 1.39717160335779 
686	 1.39267502907686 
687	 1.38691330965461 
688	 1.37879764166347 
689	 1.37322953585499 
690	 1.36596617862874 
691	 1.3560118740525 
692	 1.34667141450149 
693	 1.33561291927229 
694	 1.32464457667215 
695	 1.3157615675104 
696	 1.30934529235693 
697	 1.30339143401077 
698	 1.29616552650046 
699	 1.28683358951805 
700	 1.27849074091273 
701	 1.27133552278061 
702	 1.26481291486722 
703	 1.25783815280751 
704	 1.2518232537014 
705	 1.24583256631601 
706	 1.23916335515063 
707	 1.23301822825991 
708	 1.22835740472815 
709	 1.22385583419086 
710	 1.21769420413857 
711	 1.21228794213361 
712	 1.20702942832131 
713	 1.20155042418589 
714	 1.19596788207712 
715	 1.18895359546419 
716	 1.18014702143163 
717	 1.16980365869041 
718	 1.15987609806154 
719	 1.15280302289149 
720	 1.14959268003447 
721	 1.14903060945341 
722	 1.1475700614956 
723	 1.14301471831843 
724	 1.13583307669812 
725	 1.129826986954 
726	 1.12582437937357 
727	 1.1225138865003 
728	 1.11891759432812 
729	 1.11646094220002 
730	 1.11390529472852 
731	 1.11165084799217 
732	 1.11054574961548 
733	 1.11068512996383 
734	 1.10972421091978 
735	 1.10733473407444 
736	 1.10507107489101 
737	 1.10334616579011 
738	 1.10160678197663 
739	 1.09961362673399 
740	 1.09827334787928 
741	 1.09706244374806 
742	 1.09557516708588 
743	 1.09366166646051 
744	 1.0920950653306 
745	 1.08978204728401 
746	 1.08738517681771 
747	 1.08656887592927 
748	 1.08428015090838 
749	 1.08140398347926 
750	 1.07898038561637 
751	 1.07738935846123 
752	 1.0749622128889 
753	 1.07268510296098 
754	 1.07130466254942 
755	 1.06796970722914 
756	 1.0648792796069 
757	 1.06211669943439 
758	 1.05871049152445 
759	 1.05707000112005 
760	 1.05455567659386 
761	 1.04924589328743 
762	 1.04498795270254 
763	 1.04292620881909 
764	 1.04093491347923 
765	 1.03837178964335 
766	 1.0378525517651 
767	 1.03455791602115 
768	 1.03062727602006 
769	 1.02887601265712 
770	 1.02600364547651 
771	 1.02240186830617 
772	 1.0190631675278 
773	 1.01702316757627 
774	 1.01308358285492 
775	 1.00940050113782 
776	 1.00703101906329 
777	 1.00384470455109 
778	 1.00010651946877 
779	 0.99650950674414 
780	 0.993621669116336 
781	 0.990922839976672 
782	 0.98836092095091 
783	 0.985567690502104 
784	 0.982097770610285 
785	 0.978066641844395 
786	 0.974095807098135 
787	 0.970485713242114 
788	 0.967154871115691 
789	 0.963772951742589 
790	 0.960940968371831 
791	 0.958739741759 
792	 0.955822279015112 
793	 0.953620088409557 
794	 0.951375494312237 
795	 0.948115400992126 
796	 0.944790587119317 
797	 0.941825226685122 
798	 0.93916545011075 
799	 0.936511462395216 
800	 0.934049996984832 
801	 0.93134710344473 
802	 0.928357719741232 
803	 0.925527719823346 
804	 0.92410972765173 
805	 0.922172467987315 
806	 0.918862329405443 
807	 0.916786879383911 
808	 0.913937658743005 
809	 0.910816165898442 
810	 0.908115187489824 
811	 0.904120109218124 
812	 0.900121620673955 
813	 0.895754756347293 
814	 0.890163245416928 
815	 0.886279113932504 
816	 0.882945906484132 
817	 0.880165690327183 
818	 0.879290564281038 
819	 0.877912189097655 
820	 0.876782410235634 
821	 0.875899112591357 
822	 0.873101827977604 
823	 0.870949430815403 
824	 0.868717436922554 
825	 0.865963654881512 
826	 0.865599032482804 
827	 0.864760170439769 
828	 0.862867539941148 
829	 0.860405644674386 
830	 0.857426670438083 
831	 0.856137464903603 
832	 0.856018140450264 
833	 0.85470172673858 
834	 0.852977090493886 
835	 0.851608857874732 
836	 0.850730995044133 
837	 0.849717377891945 
838	 0.848299364897268 
839	 0.847061728046309 
840	 0.8459548070351 
841	 0.843280746659789 
842	 0.842102901015711 
843	 0.841001987739182 
844	 0.838533700603197 
845	 0.837759985428646 
846	 0.836063716583268 
847	 0.834055730150642 
848	 0.833281422063391 
849	 0.832086584339187 
850	 0.830057683082774 
851	 0.828227691345223 
852	 0.828146922526781 
853	 0.826759207167514 
854	 0.825647449664658 
855	 0.824687495359629 
856	 0.821666999848295 
857	 0.820114199031684 
858	 0.818903488062427 
859	 0.81748485341139 
860	 0.817444855931442 
861	 0.815640246066068 
862	 0.814023131592889 
863	 0.814140059695214 
864	 0.813251644179256 
865	 0.811956695559055 
866	 0.811277228902306 
867	 0.811498673897018 
868	 0.809458718278658 
869	 0.807393854911412 
870	 0.806559292609652 
871	 0.806927097663954 
872	 0.805243927429729 
873	 0.804808330371783 
874	 0.804807609616685 
875	 0.802197428851561 
876	 0.801939575691555 
877	 0.80181384952985 
878	 0.800664707250777 
879	 0.799240140667049 
880	 0.799050114337917 
881	 0.798442262228838 
882	 0.796960338440435 
883	 0.796326198479601 
884	 0.795619135744504 
885	 0.795231680134313 
886	 0.794980215972571 
887	 0.793258728311359 
888	 0.793396664915181 
889	 0.793144075200453 
890	 0.790919562949781 
891	 0.790561698320806 
892	 0.788634694239595 
893	 0.786350304546576 
894	 0.785344965930467 
895	 0.783147653526659 
896	 0.781849075299773 
897	 0.780954460402938 
898	 0.779474233948186 
899	 0.77968704113671 
900	 0.779563380914117 
901	 0.778414338895671 
902	 0.777047308964784 
903	 0.77914921013493 
904	 0.77929757191176 
905	 0.777821279157642 
906	 0.778277475470398 
907	 0.778109996883117 
908	 0.776733009771387 
909	 0.775328935207479 
910	 0.77587341496947 
911	 0.775350256456467 
912	 0.774824467045809 
913	 0.774711084796957 
914	 0.774575024304462 
915	 0.776742523029436 
916	 0.776570575805651 
917	 0.774725565884083 
918	 0.777778704496526 
919	 0.778649356999292 
920	 0.778989473119488 
921	 0.779854485775542 
922	 0.779932959660309 
923	 0.780526264126368 
924	 0.78065918954733 
925	 0.779979138720071 
926	 0.77955716770298 
927	 0.774497147375571 
928	 0.770850251050323 
929	 0.771632505429958 
930	 0.769354656179315 
931	 0.767781750198098 
932	 0.767049609796719 
933	 0.765545541980481 
934	 0.760214427734785 
935	 0.759736626185396 
936	 0.75902341180929 
937	 0.755945973746084 
938	 0.760607816052827 
939	 0.762332087197588 
940	 0.763992646379655 
941	 0.767452042867677 
942	 0.766747277974643 
943	 0.769908923114194 
944	 0.774048435093405 
945	 0.774942081599306 
946	 0.771856084820873 
947	 0.773094169095137 
948	 0.773329750821088 
949	 0.769933992671196 
950	 0.773159080757691 
951	 0.776735127150735 
952	 0.778522721871526 
953	 0.778770446073279 
954	 0.780220962958796 
955	 0.784747678062541 
956	 0.788507387616561 
957	 0.789893834917548 
958	 0.794468318232159 
959	 0.792966334498449 
960	 0.792831050265656 
961	 0.798485416844214 
962	 0.801752931920824 
963	 0.809695572844966 
964	 0.812649967505956 
965	 0.807973762053291 
966	 0.809939664244572 
967	 0.81588404975262 
968	 0.819482661920831 
969	 0.81861433727152 
970	 0.818827340089481 
971	 0.81931933658603 
972	 0.819253166772921 
973	 0.819725591809943 
974	 0.82413658371022 
975	 0.826761710135271 
976	 0.825479407322944 
977	 0.82371590466146 
978	 0.829244884638289 
979	 0.830319186072304 
980	 0.831938172037805 
981	 0.834104553908863 
982	 0.830007642890654 
983	 0.82834360347168 
984	 0.830426716442845 
985	 0.834474236882547 
986	 0.837201717835528 
987	 0.840238578337101 
988	 0.83890095691907 
989	 0.835644251754784 
990	 0.837694181878304 
991	 0.844180025792299 
992	 0.8444996030805 
993	 0.842242289802285 
994	 0.846997745631207 
995	 0.847506659339685 
996	 0.843479192765893 
997	 0.842908217021455 
998	 0.850692592600137 
999	 0.844467737572778 
1000	 0.839444714783758 
1001	 0.858784783646944 
1002	 0.859482572199991 
1003	 0.859914419275002 
1004	 0.860806687571123 
1005	 0.861101185087498 
1006	 0.860953439803895 
1007	 0.86091849609415 
1008	 0.860888588951712 
1009	 0.860422937386684 
1010	 0.85962898779338 
1011	 0.859170624122788 
1012	 0.858234637571144 
1013	 0.857482154273241 
1014	 0.857449452376468 
1015	 0.857450654839842 
1016	 0.857226335091011 
1017	 0.856896951152236 
1018	 0.856820049215097 
1019	 0.85699224794511 
1020	 0.856798859344006 
1021	 0.856645044035429 
1022	 0.8563488399148 
1023	 0.855934148554309 
1024	 0.854827022207278 
1025	 0.854359490723301 
1026	 0.854281673023072 
1027	 0.853926938176058 
1028	 0.853960000999098 
1029	 0.853516776361069 
1030	 0.852881557136126 
1031	 0.852238988099446 
1032	 0.851131501796492 
1033	 0.850467594818624 
1034	 0.849810934437758 
1035	 0.849479891795589 
1036	 0.849860471069168 
1037	 0.849520170344003 
1038	 0.848980567357157 
1039	 0.848549980081026 
1040	 0.847292988735086 
1041	 0.846183228661705 
1042	 0.845763815846261 
1043	 0.845037348721 
1044	 0.844558663835768 
1045	 0.844038390510687 
1046	 0.843225111265185 
1047	 0.842378234471786 
1048	 0.84162310269252 
1049	 0.841477272920424 
1050	 0.841378517140221 
1051	 0.84174218805402 
1052	 0.841434039498386 
1053	 0.840743171921317 
1054	 0.840408214742727 
1055	 0.839760210732175 
1056	 0.839641640794595 
1057	 0.840151205124825 
1058	 0.840149663294331 
1059	 0.839895078051618 
1060	 0.839381556125672 
1061	 0.839265488043463 
1062	 0.839483282075285 
1063	 0.839427176166784 
1064	 0.839652437286174 
1065	 0.839509800619129 
1066	 0.839152042989782 
1067	 0.838235298666146 
1068	 0.837773910781383 
1069	 0.837284860049157 
1070	 0.837126355195476 
1071	 0.837499113465704 
1072	 0.837429457060367 
1073	 0.837507190439259 
1074	 0.83773212233887 
1075	 0.837499118553065 
1076	 0.836943470555686 
1077	 0.836488056961706 
1078	 0.836035974654302 
1079	 0.835756746756158 
1080	 0.836041056749823 
1081	 0.835955839050247 
1082	 0.83589745231162 
1083	 0.835455304708592 
1084	 0.83494618387925 
1085	 0.834541217864275 
1086	 0.834348517644149 
1087	 0.834185849854698 
1088	 0.833923482329603 
1089	 0.833105720929117 
1090	 0.831964812281391 
1091	 0.83101619939445 
1092	 0.830234433754643 
1093	 0.829400942578245 
1094	 0.828622476188849 
1095	 0.827977569554645 
1096	 0.827111415885128 
1097	 0.826100971171757 
1098	 0.824969017609703 
1099	 0.823805623857584 
1100	 0.822236665167444 
1101	 0.820676594241289 
1102	 0.819361458731667 
1103	 0.818533372396334 
1104	 0.817993336336158 
1105	 0.81693607617832 
1106	 0.815487822542427 
1107	 0.813865288127178 
1108	 0.811530376197738 
1109	 0.809294070465821 
1110	 0.807231352400224 
1111	 0.804545828896641 
1112	 0.800971410127169 
1113	 0.797847131309864 
1114	 0.794328922182503 
1115	 0.790804462655651 
1116	 0.787460688874257 
1117	 0.78373036938057 
1118	 0.779815023066044 
1119	 0.775814881386735 
1120	 0.771913971497588 
1121	 0.769270454084727 
1122	 0.766995037868712 
1123	 0.764963086154901 
1124	 0.763964519801951 
1125	 0.763206547226508 
1126	 0.763204781642191 
1127	 0.764180253937515 
1128	 0.764992270776672 
1129	 0.765939968287571 
1130	 0.767589426878055 
1131	 0.769850633161847 
1132	 0.77187547626039 
1133	 0.77438089860869 
1134	 0.776541041172592 
1135	 0.778467132300942 
1136	 0.779384686884058 
1137	 0.781125452412573 
1138	 0.783092276634812 
1139	 0.784217917994647 
1140	 0.785267217830893 
1141	 0.785329308768366 
1142	 0.785152282870407 
1143	 0.785430133877357 
1144	 0.785397620147069 
1145	 0.78629762396687 
1146	 0.788037160306958 
1147	 0.789224666538063 
1148	 0.79024039826389 
1149	 0.79205568933485 
1150	 0.793839036520488 
1151	 0.796027435723855 
1152	 0.798885931146115 
1153	 0.801779566858439 
1154	 0.804183057397343 
1155	 0.806405565727721 
1156	 0.808637321583699 
1157	 0.81083689395592 
1158	 0.813347161207835 
1159	 0.815455533462604 
1160	 0.817415634043375 
1161	 0.819680872511321 
1162	 0.821109584620675 
1163	 0.821991998578867 
1164	 0.822904877143261 
1165	 0.823424049488671 
1166	 0.82390983986168 
1167	 0.824382699782139 
1168	 0.824798803328173 
1169	 0.825113026393759 
1170	 0.825378539934225 
1171	 0.825560362708949 
1172	 0.825468706583125 
1173	 0.825492909143136 
1174	 0.825465413411798 
1175	 0.825092958662783 
1176	 0.824763134813354 
1177	 0.824207922601826 
1178	 0.823084578751058 
1179	 0.822478445744466 
1180	 0.822074682402517 
1181	 0.821606503668812 
1182	 0.821283543947251 
1183	 0.820939094381799 
1184	 0.820437814035743 
1185	 0.820194321074227 
1186	 0.820169509048052 
1187	 0.82004993093054 
1188	 0.820021714787356 
1189	 0.820033743810942 
1190	 0.819821696067071 
1191	 0.819848394837711 
1192	 0.819733010283651 
1193	 0.819257011932201 
1194	 0.818953422290508 
1195	 0.818540031498664 
1196	 0.818176086621103 
1197	 0.817796346604753 
1198	 0.817636267937409 
1199	 0.817672439728721 
1200	 0.817414024916177 
1201	 0.817279611243128 
1202	 0.81693020032739 
1203	 0.815998147850898 
1204	 0.815569288535327 
1205	 0.815403994790512 
1206	 0.815186568997959 
1207	 0.815309862495356 
1208	 0.815169424407289 
1209	 0.81489717786785 
1210	 0.814486196222188 
1211	 0.814164936137553 
1212	 0.813780595728982 
1213	 0.813515764345187 
1214	 0.81329150612903 
1215	 0.813240585244393 
1216	 0.813345204795712 
1217	 0.813339456628091 
1218	 0.813612883160935 
1219	 0.813402889540231 
1220	 0.812798298967462 
1221	 0.812406838319902 
1222	 0.811834540076342 
1223	 0.81142412318157 
1224	 0.811328868998842 
1225	 0.810935955757216 
1226	 0.810354756138346 
1227	 0.809828574632508 
1228	 0.809250441326634 
1229	 0.808528202135778 
1230	 0.807982790986865 
1231	 0.807597893803059 
1232	 0.807262326289531 
1233	 0.807127780760955 
1234	 0.806679709236628 
1235	 0.80622775318507 
1236	 0.805632368011206 
1237	 0.804593039106488 
1238	 0.804094998148474 
1239	 0.803995293727327 
1240	 0.803469417940742 
1241	 0.802977073711426 
1242	 0.802411356908524 
1243	 0.801393724905653 
1244	 0.800724182238154 
1245	 0.800444856381951 
1246	 0.799902331356923 
1247	 0.79923130338028 
1248	 0.798633171764625 
1249	 0.797991940424575 
1250	 0.797303756972737 
1251	 0.796456712368055 
1252	 0.795979793398973 
1253	 0.795394776548313 
1254	 0.794843005960417 
1255	 0.794084530098227 
1256	 0.793365114294183 
1257	 0.792472328549226 
1258	 0.791194676441684 
1259	 0.790216654504116 
1260	 0.789279603505018 
1261	 0.788464371008997 
1262	 0.787800358813303 
1263	 0.787076966987753 
1264	 0.78649522068326 
1265	 0.785809249184232 
1266	 0.784798871022039 
1267	 0.784274811651513 
1268	 0.784175009387833 
1269	 0.783805897593639 
1270	 0.783665153102997 
1271	 0.783408086670429 
1272	 0.782692102345764 
1273	 0.782356196707289 
1274	 0.781991628867462 
1275	 0.781732889267626 
1276	 0.781531501822382 
1277	 0.781319808600679 
1278	 0.781320073748623 
1279	 0.781571977437849 
1280	 0.781627391789425 
1281	 0.781740953911914 
1282	 0.781799311992797 
1283	 0.781833735450639 
1284	 0.781715277913986 
1285	 0.781368534172246 
1286	 0.781345610171129 
1287	 0.781428808480366 
1288	 0.781373590558388 
1289	 0.781557850942042 
1290	 0.781558333654167 
1291	 0.781087945848054 
1292	 0.780981578824624 
1293	 0.781275418781666 
1294	 0.781269509981098 
1295	 0.781329205180775 
1296	 0.781251498230921 
1297	 0.78089743747247 
1298	 0.78011216890891 
1299	 0.779705342297701 
1300	 0.779244459747946 
1301	 0.778926068184493 
1302	 0.778801065531285 
1303	 0.778607032669719 
1304	 0.778492381908064 
1305	 0.778201733763912 
1306	 0.777838281120761 
1307	 0.777514137084843 
1308	 0.777068610623112 
1309	 0.776687965556302 
1310	 0.776386339628766 
1311	 0.776058594950291 
1312	 0.775677162221388 
1313	 0.775338858210469 
1314	 0.774966247233273 
1315	 0.774753696478271 
1316	 0.774697069910715 
1317	 0.774542047132992 
1318	 0.774622355222366 
1319	 0.774445137274473 
1320	 0.773965011724382 
1321	 0.773588751643239 
1322	 0.773082373715352 
1323	 0.772490197720726 
1324	 0.771669819084233 
1325	 0.770663450641483 
1326	 0.769704262701606 
1327	 0.768444768502457 
1328	 0.767451007595865 
1329	 0.766470825146285 
1330	 0.765832466018382 
1331	 0.765561493298435 
1332	 0.764974375973679 
1333	 0.764448164159606 
1334	 0.764045386113458 
1335	 0.763597071716026 
1336	 0.763088604715885 
1337	 0.763076781443053 
1338	 0.762419640613326 
1339	 0.761066321711751 
1340	 0.759791937524815 
1341	 0.758378560480469 
1342	 0.756486940280269 
1343	 0.753974022731438 
1344	 0.751180378661353 
1345	 0.747317646976258 
1346	 0.742544681895755 
1347	 0.737822923730464 
1348	 0.732092054337737 
1349	 0.725966397231546 
1350	 0.718771614931969 
1351	 0.710738270823191 
1352	 0.701301075006022 
1353	 0.690865058664707 
1354	 0.68019823764532 
1355	 0.667819101802589 
1356	 0.661645657308621 
1357	 0.648179080531509 
1358	 0.642162128314729 
1359	 0.626979203811778 
1360	 0.611148959439416 
1361	 0.591314248941924 
1362	 0.588899020578524 
1363	 0.580893174872504 
1364	 0.610578970970084 
1365	 0.603063645167945 
1366	 0.564304704400693 
1367	 0.557056563093535 
1368	 0.548735278342287 
1369	 0.546143118928211 
1370	 0.559416701013676 
1371	 0.569375503065297 
1372	 0.577782062139008 
1373	 0.57999258998219 
1374	 0.579517784786743 
1375	 0.586226714544416 
1376	 0.585944820379349 
1377	 0.582952092110911 
1378	 0.577514392120707 
1379	 0.569941731090203 
1380	 0.565728744129137 
1381	 0.552952032682571 
1382	 0.5591586426414 
1383	 0.582847042143511 
1384	 0.588025043190029 
1385	 0.591284768319415 
1386	 0.595745897194843 
1387	 0.59068818806346 
1388	 0.593943331359192 
1389	 0.604294606711159 
1390	 0.610778042936398 
1391	 0.614481282190186 
1392	 0.620379571316601 
1393	 0.629059199998606 
1394	 0.635807073149266 
1395	 0.641862646345887 
1396	 0.648424274872216 
1397	 0.653113571397875 
1398	 0.660199671857516 
1399	 0.669604353382526 
1400	 0.677963011247576 
1401	 0.686756435189268 
1402	 0.695117186044605 
1403	 0.701688932172652 
1404	 0.70926894454572 
1405	 0.717747490149814 
1406	 0.724275049745502 
1407	 0.731151427898846 
1408	 0.739185406221222 
1409	 0.74794749059465 
1410	 0.755379024347399 
1411	 0.762690760150751 
1412	 0.7693435915496 
1413	 0.777744084478442 
1414	 0.786657979039686 
1415	 0.793331376258026 
1416	 0.799814145023325 
1417	 0.806262342479379 
1418	 0.811153279886433 
1419	 0.8173048594693 
1420	 0.824784466598797 
1421	 0.831144387951161 
1422	 0.8375318534165 
1423	 0.842328803457358 
1424	 0.846752870563501 
1425	 0.850751901292049 
1426	 0.853781515476038 
1427	 0.8568212006975 
1428	 0.859962067737256 
1429	 0.862972834717378 
1430	 0.866524828606693 
1431	 0.86850648869586 
1432	 0.869549431149165 
1433	 0.87101340010929 
1434	 0.870935415538316 
1435	 0.872116851297338 
1436	 0.875257614401333 
1437	 0.876770016668848 
1438	 0.876965136715912 
1439	 0.878379931680164 
1440	 0.879273047061357 
1441	 0.880901306815504 
1442	 0.883942246728302 
1443	 0.886507850922024 
1444	 0.888325033915252 
1445	 0.890761575708691 
1446	 0.893963824750569 
1447	 0.897353491283732 
1448	 0.900571982263876 
1449	 0.904390432494471 
1450	 0.907393787559596 
1451	 0.909782266529179 
1452	 0.912271727555687 
1453	 0.914876631008823 
1454	 0.916951723483061 
1455	 0.919077881533009 
1456	 0.920243922034592 
1457	 0.921232553922263 
1458	 0.921330874533583 
1459	 0.920670482387946 
1460	 0.919736503349288 
1461	 0.91775889988297 
1462	 0.916407688006057 
1463	 0.915039276813032 
1464	 0.913281484058538 
1465	 0.911585091788272 
1466	 0.909540522501199 
1467	 0.906236986357429 
1468	 0.90438550561269 
1469	 0.90315623089331 
1470	 0.902296687183181 
1471	 0.902752209639757 
1472	 0.90255475559753 
1473	 0.902176563195159 
1474	 0.902174390584677 
1475	 0.902099944166625 
1476	 0.902326148337922 
1477	 0.903288656665918 
1478	 0.903608498953252 
1479	 0.90343407187176 
1480	 0.903769082397581 
1481	 0.904111702678885 
1482	 0.904444382880463 
1483	 0.904973120272799 
1484	 0.905669727274967 
1485	 0.906316509458071 
1486	 0.907026148328019 
1487	 0.908050125392586 
1488	 0.909002324945748 
1489	 0.909561863113454 
1490	 0.909949070957784 
1491	 0.91105748248811 
1492	 0.911902144189557 
1493	 0.912400049798292 
1494	 0.912818190987042 
1495	 0.912822688399728 
1496	 0.91208688172109 
1497	 0.911933074082632 
1498	 0.911974569797618 
1499	 0.911763796213392 
1500	 0.911582591280883 
1501	 0.911185790397166 
1502	 0.910619256717675 
1503	 0.90993894017398 
1504	 0.90922804491298 
1505	 0.908214601710658 
1506	 0.906917381168177 
1507	 0.905757282399148 
1508	 0.904420034629312 
1509	 0.903212411344509 
1510	 0.902094316562781 
1511	 0.900988083552147 
1512	 0.899862002763275 
1513	 0.898773815856599 
1514	 0.897701469945383 
1515	 0.896712965740607 
1516	 0.895905108361744 
1517	 0.894790965829243 
1518	 0.893553750361359 
1519	 0.892392314522692 
1520	 0.890911197599708 
1521	 0.889798260288801 
1522	 0.889043631067342 
1523	 0.888075416241818 
1524	 0.887177757035629 
1525	 0.886167253010897 
1526	 0.885019844928708 
1527	 0.88390567495594 
1528	 0.882565872382613 
1529	 0.881604096311185 
1530	 0.881034568702082 
1531	 0.880064158567966 
1532	 0.879251195380359 
1533	 0.878143851380974 
1534	 0.876372084768135 
1535	 0.875070328482055 
1536	 0.874062313661152 
1537	 0.872815023923751 
1538	 0.871460906430312 
1539	 0.870349651288648 
1540	 0.869316612394719 
1541	 0.868148314290253 
1542	 0.867159213823009 
1543	 0.866075062960788 
1544	 0.864664730461291 
1545	 0.863458770540477 
1546	 0.862422650876353 
1547	 0.861372204819103 
1548	 0.860378643671132 
1549	 0.859337938569485 
1550	 0.858293930255685 
1551	 0.857270857801397 
1552	 0.85625423037996 
1553	 0.855188556959578 
1554	 0.854041438924549 
1555	 0.85300965525422 
1556	 0.85210800024287 
1557	 0.851041237492765 
1558	 0.849863315813299 
1559	 0.848848057162252 
1560	 0.847773507792575 
1561	 0.846728476431708 
1562	 0.845993526369602 
1563	 0.84505131649991 
1564	 0.843746701080342 
1565	 0.842727250102227 
1566	 0.841876632598026 
1567	 0.84073816519205 
1568	 0.839727462495627 
1569	 0.838736513259792 
1570	 0.838090125278691 
1571	 0.837623219171346 
1572	 0.836777086376236 
1573	 0.836103740783526 
1574	 0.835300555481528 
1575	 0.834090755287065 
1576	 0.833107694931025 
1577	 0.832469332274218 
1578	 0.831426023743862 
1579	 0.829923381985351 
1580	 0.829106325821098 
1581	 0.82861697708985 
1582	 0.827767536889764 
1583	 0.827035743131359 
1584	 0.826304597095776 
1585	 0.825404972640616 
1586	 0.824409826679562 
1587	 0.8235888063261 
1588	 0.822522889654304 
1589	 0.820977595643086 
1590	 0.81993215329522 
1591	 0.819125049089631 
1592	 0.818249487367224 
1593	 0.817561150114749 
1594	 0.816535693628053 
1595	 0.815355110646003 
1596	 0.814283318215919 
1597	 0.812970159240031 
1598	 0.812024955379062 
1599	 0.811391749005846 
1600	 0.810501588620566 
1601	 0.809685393223588 
1602	 0.808645416631822 
1603	 0.807239584347407 
1604	 0.806409588189319 
1605	 0.805821251046821 
1606	 0.805036152505728 
1607	 0.804604346547518 
1608	 0.803680263732241 
1609	 0.802282203925753 
1610	 0.801240486186395 
1611	 0.800136857417773 
1612	 0.799357703190749 
1613	 0.798937243836509 
1614	 0.798073923091943 
1615	 0.797198610233408 
1616	 0.796276851055802 
1617	 0.795050156470855 
1618	 0.794037973372987 
1619	 0.79309072542438 
1620	 0.792424550046677 
1621	 0.791879744792683 
1622	 0.791285985798222 
1623	 0.79112218487047 
1624	 0.790310163968292 
1625	 0.78897923214153 
1626	 0.788074509142392 
1627	 0.787178172861227 
1628	 0.786166401015764 
1629	 0.785203699433407 
1630	 0.784401547856079 
1631	 0.783515917656112 
1632	 0.782548535374431 
1633	 0.781753681463373 
1634	 0.780973036173836 
1635	 0.779936918366791 
1636	 0.779192039352157 
1637	 0.778736274567 
1638	 0.778241520963737 
1639	 0.777731719017163 
1640	 0.777281323584044 
1641	 0.777101977474344 
1642	 0.77661500719535 
1643	 0.775943711332246 
1644	 0.775367427287356 
1645	 0.774688786366897 
1646	 0.774191573406016 
1647	 0.773898826378934 
1648	 0.773192569077003 
1649	 0.772203727602704 
1650	 0.771832511689524 
1651	 0.771643999434951 
1652	 0.771001885515081 
1653	 0.770670371857006 
1654	 0.769981847889434 
1655	 0.768583156219726 
1656	 0.767673795535368 
1657	 0.767176969443982 
1658	 0.765972187371025 
1659	 0.764828797772084 
1660	 0.7639048691617 
1661	 0.762954519440344 
1662	 0.76211972944943 
1663	 0.761264762574588 
1664	 0.759837619020766 
1665	 0.758639187582536 
1666	 0.757650721886734 
1667	 0.756557449282073 
1668	 0.755881399035364 
1669	 0.755336249109012 
1670	 0.754642161832183 
1671	 0.753422916066529 
1672	 0.751978281716116 
1673	 0.75072902164793 
1674	 0.749488923321775 
1675	 0.74876859711302 
1676	 0.748361155606144 
1677	 0.747931402009848 
1678	 0.74730193282799 
1679	 0.746303276588602 
1680	 0.745512869418673 
1681	 0.744678165208586 
1682	 0.744082202544908 
1683	 0.744232601848386 
1684	 0.744482246506916 
1685	 0.744491928441251 
1686	 0.74446138136488 
1687	 0.743997554461389 
1688	 0.742957601453442 
1689	 0.742409633855112 
1690	 0.742028147220899 
1691	 0.741709520968531 
1692	 0.741852380152786 
1693	 0.74177097652774 
1694	 0.741501216773224 
1695	 0.741312336318837 
1696	 0.741162795206955 
1697	 0.740898908128184 
1698	 0.740507801733975 
1699	 0.740368757825117 
1700	 0.740248882126155 
1701	 0.740350820692917 
1702	 0.740974808523328 
1703	 0.74107216120033 
1704	 0.740649840815073 
1705	 0.740787382547594 
1706	 0.740973066141079 
1707	 0.741280896677612 
1708	 0.742279016725207 
1709	 0.742900429087002 
1710	 0.743228479090174 
1711	 0.743434424931131 
1712	 0.743643845156542 
1713	 0.743618121589494 
1714	 0.743131915863906 
1715	 0.743193083449272 
1716	 0.743396501722115 
1717	 0.743535214487836 
1718	 0.743723979508303 
1719	 0.744214792248146 
1720	 0.745097779193963 
1721	 0.745553137463279 
1722	 0.746061702210913 
1723	 0.746517768224047 
1724	 0.746476506197027 
1725	 0.746717895348511 
1726	 0.747427304766905 
1727	 0.747745452614396 
1728	 0.747683223653583 
1729	 0.747859648084017 
1730	 0.748130392246549 
1731	 0.748395943636972 
1732	 0.74875227640848 
1733	 0.749132916369965 
1734	 0.74854418269546 
1735	 0.747651177851843 
1736	 0.74719394178141 
1737	 0.746909609546904 
1738	 0.747485404140773 
1739	 0.748095709640716 
1740	 0.747619896503515 
1741	 0.747043174254593 
1742	 0.747060748714294 
1743	 0.747294514153594 
1744	 0.747860988374726 
1745	 0.748461229585342 
1746	 0.748040086459932 
1747	 0.747522131891498 
1748	 0.748041689897704 
1749	 0.748764294492924 
1750	 0.749508996109998 
1751	 0.750067854026203 
1752	 0.749867426234447 
1753	 0.749375538881818 
1754	 0.749091488863222 
1755	 0.749546522013933 
1756	 0.749938700577522 
1757	 0.74973416936197 
1758	 0.749933607597631 
1759	 0.750072319962775 
1760	 0.750204050912679 
1761	 0.750808079462649 
1762	 0.751099049457054 
1763	 0.751013546153493 
1764	 0.75082388506585 
1765	 0.75064514287804 
1766	 0.7505113143148 
1767	 0.749811987958544 
1768	 0.74991965099427 
1769	 0.750679951780836 
1770	 0.750896668621914 
1771	 0.751692553635319 
1772	 0.751028933499906 
1773	 0.749227955911206 
1774	 0.748442764213471 
1775	 0.747340887382305 
1776	 0.74724636372532 
1777	 0.74636553083293 
1778	 0.744897100903457 
1779	 0.744683580646299 
1780	 0.744261483693209 
1781	 0.74364592409536 
1782	 0.743275073088382 
1783	 0.741917370179595 
1784	 0.741474170358415 
1785	 0.742027851148261 
1786	 0.741261307220054 
1787	 0.739502985323233 
1788	 0.736689076284953 
1789	 0.733898444350676 
1790	 0.732437478531534 
1791	 0.730408550605857 
1792	 0.728010479318253 
1793	 0.725735569363243 
1794	 0.722286556461251 
1795	 0.718905523646108 
1796	 0.715738549640531 
1797	 0.712399878366973 
1798	 0.708819777542201 
1799	 0.706732373943885 
1800	 0.706092073805818 
1801	 0.694075083970461 
1802	 0.696442970019863 
1803	 0.694376263227329 
1804	 0.688252430681164 
1805	 0.684665448746477 
1806	 0.681383713234353 
1807	 0.677268362621244 
1808	 0.673836373608869 
1809	 0.670015516356423 
1810	 0.664787209173641 
1811	 0.656031521560875 
1812	 0.650534147187419 
1813	 0.645252001527177 
1814	 0.641675099030882 
1815	 0.642195207717504 
1816	 0.640067319098431 
1817	 0.636545915800582 
1818	 0.636127902873271 
1819	 0.637134463617501 
1820	 0.641437181917683 
1821	 0.639199275776259 
1822	 0.637475916450155 
1823	 0.633472400778752 
1824	 0.614591806791791 
1825	 0.606839473927441 
1826	 0.608079417448171 
1827	 0.607102328036009 
1828	 0.608811276557411 
1829	 0.617965340930031 
1830	 0.62820873726649 
1831	 0.649670266659443 
1832	 0.665362347734226 
1833	 0.69347202235713 
1834	 0.711179914515406 
1835	 0.671370572283411 
1836	 0.66940530750591 
1837	 0.691335771667838 
1838	 0.693526179102948 
1839	 0.695047440309128 
1840	 0.748915024915206 
1841	 0.699281105734417 
1842	 0.547075556562372 
1843	 0.504574585955242 
1844	 0.437947870216276 
1845	 0.449160386626678 
1846	 0.572958236941729 
1847	 0.632283131053412 
1848	 0.687976125372274 
1849	 0.784803350856593 
1850	 0.810076457210648 
1851	 0.784340660631913 
1852	 0.76481226322286 
1853	 0.719595809907632 
1854	 0.678099027001244 
1855	 0.622757729903804 
1856	 0.584731063377395 
1857	 0.571036545564695 
1858	 0.519313457172762 
1859	 0.501794689756354 
1860	 0.487859847627171 
1861	 0.496903161187353 
1862	 0.527794570403855 
1863	 0.544538054845868 
1864	 0.570444718257935 
1865	 0.597635641540006 
1866	 0.648865834601669 
1867	 0.667562144832238 
1868	 0.657852124145345 
1869	 0.70672346170912 
1870	 0.703440675982545 
1871	 0.641456076262263 
1872	 0.632988995192251 
1873	 0.64405731422855 
1874	 0.622963824080689 
1875	 0.590633079765843 
1876	 0.588626423219373 
1877	 0.569207357811535 
1878	 0.599474221425816 
1879	 0.628995609519444 
1880	 0.63771137528876 
1881	 0.644396833990738 
1882	 0.644781454236654 
1883	 0.642501125110566 
1884	 0.635308822102137 
1885	 0.634708773518151 
1886	 0.638816832101476 
1887	 0.625939119948598 
1888	 0.626141433481721 
1889	 0.633872959839788 
1890	 0.652245740894544 
1891	 0.694918088503891 
1892	 0.711807459725316 
1893	 0.732714258096653 
1894	 0.744386443992989 
1895	 0.714839904190902 
1896	 0.716940379017199 
1897	 0.735958313325921 
1898	 0.78630590847836 
1899	 0.817435123444305 
1900	 0.818543425461689 
1901	 0.816274196075596 
1902	 0.733307257465801 
1903	 0.743701937420371 
1904	 0.819887669354849 
1905	 0.84963405983727 
1906	 0.931556491924256 
1907	 0.946446198308922 
1908	 0.879100461651619 
1909	 0.889240659240038 
1910	 0.877917484975556 
1911	 0.868941603644088 
1912	 0.877315670613235 
1913	 0.896652427293683 
1914	 0.885398713292378 
1915	 0.867929638194761 
1916	 0.872463493368932 
1917	 0.862803794191411 
1918	 0.876613757024458 
1919	 0.910280239535126 
1920	 0.925923791178768 
1921	 0.930819373337179 
1922	 0.934464123399834 
1923	 0.940619763091067 
1924	 0.939511005623923 
1925	 0.947338846525107 
1926	 0.97389986329014 
1927	 0.977455216682331 
1928	 0.968761628945784 
1929	 0.971282313353701 
1930	 0.967198830302772 
1931	 0.94649767671423 
1932	 0.953915196071789 
1933	 0.970756262435537 
1934	 0.971957977599262 
1935	 0.96812545919035 
1936	 0.974144502155355 
1937	 0.978058856792012 
1938	 0.978726586417477 
1939	 0.983856989026832 
1940	 0.986820779852261 
1941	 0.985334251683221 
1942	 0.988867409484495 
1943	 1.00018857186202 
1944	 1.01019012926565 
1945	 1.01534562796402 
1946	 1.01252356840934 
1947	 1.01484696607671 
1948	 1.02052973446142 
1949	 1.02188206778929 
1950	 1.02260538278292 
1951	 1.0239878675639 
1952	 1.02074434908422 
1953	 1.00992870508466 
1954	 1.00894791133362 
1955	 1.01246298364804 
1956	 1.0130608121082 
1957	 1.0142992312903 
1958	 1.01397089634312 
1959	 1.00834760781398 
1960	 1.00906448994357 
1961	 1.01236301067447 
1962	 1.01553915829395 
1963	 1.01903979363838 
1964	 1.02118618250632 
1965	 1.02214020072498 
1966	 1.01933497536076 
1967	 1.01507344646616 
1968	 1.01375261282957 
1969	 1.01343612986991 
1970	 1.01476039202736 
1971	 1.01447887023229 
1972	 1.01520998336109 
1973	 1.0137422530389 
1974	 1.01281773513109 
1975	 1.01025844530969 
1976	 1.00887690020693 
1977	 1.00979196281021 
1978	 1.00746819549945 
1979	 1.00537563941785 
1980	 1.00384396916587 
1981	 1.0018993977744 
1982	 1.00053212375243 
1983	 1.00033621783708 
1984	 0.997649543517605 
1985	 0.995163724367111 
1986	 0.993999144466603 
1987	 0.990685058426261 
1988	 0.988188441097847 
1989	 0.986719442109488 
1990	 0.98333811064234 
1991	 0.979338953037117 
1992	 0.977793564770019 
1993	 0.976985072804464 
1994	 0.976241342965125 
1995	 0.975586434738678 
1996	 0.976375534750009 
1997	 0.975369224248677 
1998	 0.973464613861397 
1999	 0.970628956814221 
2000	 0.966579821691172 
2001	 0.963447905601073 
2002	 0.960781839835096 
2003	 0.960583813003977 
2004	 0.960145695299157 
2005	 0.957881068559357 
2006	 0.956128441171576 
2007	 0.954340328208755 
2008	 0.950598686568146 
2009	 0.949266456294169 
2010	 0.951740161980651 
2011	 0.95088461265634 
2012	 0.947038259123194 
2013	 0.945768513154324 
2014	 0.945084410502915 
2015	 0.944828384217375 
2016	 0.946543508523027 
2017	 0.946214623937816 
2018	 0.941679389273437 
2019	 0.938626780307078 
2020	 0.934678886284392 
2021	 0.932787157421291 
2022	 0.932677546328693 
2023	 0.934803696356031 
2024	 0.936535329100322 
2025	 0.938637144271467 
2026	 0.940207163974613 
2027	 0.939687418611072 
2028	 0.93985066194541 
2029	 0.940962362264574 
2030	 0.942286999151489 
2031	 0.944960321891587 
2032	 0.945851478609314 
2033	 0.946513628848081 
2034	 0.945381923437509 
2035	 0.945601542923256 
2036	 0.945827087814666 
2037	 0.947116119523805 
2038	 0.949325281077739 
2039	 0.949426799523069 
2040	 0.947684509180271 
2041	 0.946414206322238 
2042	 0.946682404731696 
2043	 0.94712824719814 
2044	 0.948129481730793 
2045	 0.948426159696351 
2046	 0.948393612604791 
2047	 0.947819066714516 
2048	 0.949253657934676 
2049	 0.951213656122989 
2050	 0.953016689826707 
2051	 0.954569145376923 
2052	 0.953750738355049 
2053	 0.952864304715326 
2054	 0.952907480835217 
2055	 0.952179185136843 
2056	 0.953508342397121 
2057	 0.952766444425188 
2058	 0.951274627303259 
2059	 0.950947652064404 
2060	 0.951563337830642 
2061	 0.95077452552134 
2062	 0.95197151815289 
2063	 0.952814335695643 
2064	 0.953822221150515 
2065	 0.954563720510571 
2066	 0.953111149929016 
2067	 0.951538494553994 
2068	 0.949116649254341 
2069	 0.947019310374426 
2070	 0.945780213083754 
2071	 0.946398437692714 
2072	 0.947264585454298 
2073	 0.949580472096561 
2074	 0.95044193187 
2075	 0.950731173598057 
2076	 0.949924570393923 
2077	 0.94886845644823 
2078	 0.949258170038473 
2079	 0.950355068637234 
2080	 0.951906695770715 
2081	 0.953277162706051 
2082	 0.952018699067129 
2083	 0.948773941744352 
2084	 0.945674804068012 
2085	 0.942749124777869 
2086	 0.942111790189434 
2087	 0.941471989018157 
2088	 0.942430399249075 
2089	 0.94284140381871 
2090	 0.942125158588848 
2091	 0.939889594385165 
2092	 0.939326992040619 
2093	 0.938081827189122 
2094	 0.936588940997783 
2095	 0.937104796148335 
2096	 0.935751642055885 
2097	 0.934489606905611 
2098	 0.934796910980147 
2099	 0.933897198645565 
2100	 0.933392905382036 
2101	 0.933944383553885 
2102	 0.933074069601008 
2103	 0.931404796018611 
2104	 0.929245264477622 
2105	 0.92812477538651 
2106	 0.926556982447992 
2107	 0.926532125841942 
2108	 0.928324161737255 
2109	 0.928416954022236 
2110	 0.927501685848439 
2111	 0.925866367897933 
2112	 0.921825695385717 
2113	 0.917736406692326 
2114	 0.914934687068385 
2115	 0.911281033736473 
2116	 0.910454017328741 
2117	 0.90939072746169 
2118	 0.908166056998651 
2119	 0.907365811695775 
2120	 0.908073817045812 
2121	 0.906877132202417 
2122	 0.905776184308043 
2123	 0.905354399416844 
2124	 0.902058844473457 
2125	 0.89978367261577 
2126	 0.898202366058795 
2127	 0.89723093608477 
2128	 0.897915925890099 
2129	 0.897023416914907 
2130	 0.893787778173229 
2131	 0.891649871203861 
2132	 0.890262955664862 
2133	 0.88833566458824 
2134	 0.886556274354296 
2135	 0.886138628424507 
2136	 0.883516485274542 
2137	 0.879222231760259 
2138	 0.876597229744576 
2139	 0.874279319570718 
2140	 0.873118102859593 
2141	 0.872949770458474 
2142	 0.872143564381782 
2143	 0.871782468518323 
2144	 0.870641881409428 
2145	 0.869233735879378 
2146	 0.869389019447162 
2147	 0.870674643599769 
2148	 0.871070545563711 
2149	 0.870461297962033 
2150	 0.870406070313792 
2151	 0.870323659330538 
2152	 0.869830326960454 
2153	 0.86933469845776 
2154	 0.870290953943912 
2155	 0.867876998597315 
2156	 0.863355826618439 
2157	 0.86015921840737 
2158	 0.857356360016572 
2159	 0.855676370328932 
2160	 0.857113627797132 
2161	 0.856149848272971 
2162	 0.854248534940447 
2163	 0.854159775121778 
2164	 0.852388023667356 
2165	 0.851161044464401 
2166	 0.8496053230422 
2167	 0.848141012017511 
2168	 0.848358354443687 
2169	 0.850342339254204 
2170	 0.850680166904753 
2171	 0.851514888664633 
2172	 0.852790016158109 
2173	 0.851511920471424 
2174	 0.850663231192367 
2175	 0.851860401236421 
2176	 0.851961719337854 
2177	 0.850658248104914 
2178	 0.84984861252533 
2179	 0.847741893424587 
2180	 0.844215901991213 
2181	 0.84196580729623 
2182	 0.840418601096053 
2183	 0.839427705193921 
2184	 0.83754764320024 
2185	 0.835173949175652 
2186	 0.833664039428946 
2187	 0.833250600214928 
2188	 0.834503345732721 
2189	 0.83464897176353 
2190	 0.835600056700309 
2191	 0.835319776261112 
2192	 0.833668500613133 
2193	 0.831707505205346 
2194	 0.832059023223482 
2195	 0.833785436810458 
2196	 0.834700481553606 
2197	 0.833958970471319 
2198	 0.833335523855882 
2199	 0.832982303412034 
2200	 0.832394102947718 
2201	 0.832087607107813 
2202	 0.831370266634276 
2203	 0.828667345147424 
2204	 0.826715561330562 
2205	 0.827256847851681 
2206	 0.825868590033962 
2207	 0.824721809025432 
2208	 0.82513810820027 
2209	 0.826042707924805 
2210	 0.825722881732908 
2211	 0.82612402595838 
2212	 0.828498681428409 
2213	 0.8253684139463 
2214	 0.821732730877335 
2215	 0.822037986342532 
2216	 0.819177714994254 
2217	 0.816476052890291 
2218	 0.817560833413417 
2219	 0.817028674093919 
2220	 0.816266627597785 
2221	 0.818738766373844 
2222	 0.819185814338689 
2223	 0.817555470134976 
2224	 0.817139324461679 
2225	 0.816389152589175 
2226	 0.817464597652104 
2227	 0.817686280840752 
2228	 0.816675370142028 
2229	 0.816561909036756 
2230	 0.815547230251711 
2231	 0.814595653820291 
2232	 0.814618018160516 
2233	 0.813681990031718 
2234	 0.811708859228568 
2235	 0.810606533140869 
2236	 0.808908329995847 
2237	 0.809633818779704 
2238	 0.811563397919146 
2239	 0.809616269544236 
2240	 0.806880168891344 
2241	 0.805802208590763 
2242	 0.804799942055434 
2243	 0.804939400054406 
2244	 0.805166245763838 
2245	 0.80555316026586 
2246	 0.805212365400891 
2247	 0.803537623902466 
2248	 0.805470366595614 
2249	 0.805845343578006 
2250	 0.803946479121923 
2251	 0.803756565121274 
2252	 0.802943999163613 
2253	 0.802055787655621 
2254	 0.802707756720689 
2255	 0.803385343596979 
2256	 0.801904063115265 
2257	 0.798550906051885 
2258	 0.797255070744228 
2259	 0.794911138089997 
2260	 0.789706456531579 
2261	 0.787172133192064 
2262	 0.784357805941839 
2263	 0.780835331207197 
2264	 0.779317297272358 
2265	 0.779651902369226 
2266	 0.780312395131605 
2267	 0.780077655137248 
2268	 0.780469355623781 
2269	 0.780665986765292 
2270	 0.778303889370957 
2271	 0.77769878471772 
2272	 0.779387837569597 
2273	 0.779192498329946 
2274	 0.779431841910373 
2275	 0.779079525081024 
2276	 0.775871064558488 
2277	 0.774510114675383 
2278	 0.772786209813864 
2279	 0.771108633834442 
2280	 0.770143289123148 
2281	 0.765300254543285 
2282	 0.764659816914118 
2283	 0.764830805069516 
2284	 0.759283450950566 
2285	 0.757607611180112 
2286	 0.758212715568243 
2287	 0.759894657513484 
2288	 0.758884537320668 
2289	 0.760306517157324 
2290	 0.762184995073171 
2291	 0.757449637119675 
2292	 0.752399493169916 
2293	 0.753977999904508 
2294	 0.755073471669945 
2295	 0.754096696732364 
2296	 0.755180946678911 
2297	 0.754611484286939 
2298	 0.751875958533304 
2299	 0.753224486189145 
2300	 0.755361865701059 
2301	 0.754493758273113 
2302	 0.755844759620742 
2303	 0.759794203125805 
2304	 0.762018564317511 
2305	 0.762554375893434 
2306	 0.763304541670447 
2307	 0.764648451346021 
2308	 0.768636434945106 
2309	 0.777104871063691 
2310	 0.78468571391987 
2311	 0.788328383881264 
2312	 0.787866611597833 
2313	 0.787094760767275 
2314	 0.78862967313452 
2315	 0.784754396084545 
2316	 0.784114654561409 
2317	 0.788318850859278 
2318	 0.788707848903239 
2319	 0.791547248969722 
2320	 0.795624499461094 
2321	 0.797326345594307 
2322	 0.794966372538553 
2323	 0.794635256140112 
2324	 0.795112887727779 
2325	 0.793348026681519 
2326	 0.795409434431334 
2327	 0.796810677439435 
2328	 0.79954818818967 
2329	 0.803813326049001 
2330	 0.799243139151447 
2331	 0.794271388484717 
2332	 0.791322327215426 
2333	 0.782856203246971 
2334	 0.781218074578091 
2335	 0.788591111819964 
2336	 0.790772519351212 
2337	 0.79417970701676 
2338	 0.798900948051126 
2339	 0.791919991984191 
2340	 0.783964118191927 
2341	 0.784072423252256 
2342	 0.780358244645872 
2343	 0.778497753510197 
2344	 0.781817337186372 
2345	 0.777299067527486 
2346	 0.777725370222577 
2347	 0.781537544129738 
2348	 0.780460129610813 
2349	 0.785617289775695 
2350	 0.79382260168378 
2351	 0.795721665959622 
2352	 0.797791803076465 
2353	 0.806650133912632 
2354	 0.804630148190245 
2355	 0.806475650730548 
2356	 0.816754042139755 
2357	 0.816038314964674 
2358	 0.819217084916731 
2359	 0.817848127612246 
2360	 0.807108893505291 
2361	 0.805815814547117 
2362	 0.803708715705988 
2363	 0.798770697451878 
2364	 0.803169124297534 
2365	 0.806916300975548 
2366	 0.808621721586892 
2367	 0.822256415617433 
2368	 0.837756498692368 
2369	 0.838944647719838 
2370	 0.843160294208906 
2371	 0.844361791966227 
2372	 0.840862181182691 
2373	 0.83026942628472 
2374	 0.82767595875629 
2375	 0.824672749902583 
2376	 0.822848737846122 
2377	 0.821319645278446 
2378	 0.82256025198765 
2379	 0.827390936200793 
2380	 0.826849779564699 
2381	 0.828786873285657 
2382	 0.833635732223442 
2383	 0.83678382106441 
2384	 0.836863664664074 
2385	 0.838170375316707 
2386	 0.834637014182101 
2387	 0.818364493023514 
2388	 0.818620649999424 
2389	 0.830908574282935 
2390	 0.837290910602609 
2391	 0.849235126460333 
2392	 0.854195634852167 
2393	 0.851455884023878 
2394	 0.852469267733561 
2395	 0.856442207580333 
2396	 0.857835612447894 
2397	 0.860729262222199 
2398	 0.857965099458926 
2399	 0.843011402408781 
2400	 0.838244493571608 
2401	 0.836398298439845 
2402	 0.834081914613533 
2403	 0.841143393522024 
2404	 0.854348213529649 
2405	 0.857758656254428 
2406	 0.860016654242126 
2407	 0.852491467721791 
2408	 0.848078920795731 
2409	 0.849453147683381 
2410	 0.84245924081321 
2411	 0.84465628789665 
2412	 0.837375631163881 
2413	 0.836536798413664 
2414	 0.846762611936307 
2415	 0.848444297171428 
2416	 0.877062790360054 
2417	 0.89012717660662 
2418	 0.884352881782376 
2419	 0.887715506336641 
2420	 0.888853811553168 
2421	 0.903299865412663 
2422	 0.917701331951541 
2423	 0.935135682988011 
2424	 0.938909779889495 
2425	 0.912652568636804 
2426	 0.902788938284006 
2427	 0.895300363386573 
2428	 0.87591007139251 
2429	 0.888376606161798 
2430	 0.907645649885926 
2431	 0.929076459912526 
2432	 0.958231246974964 
2433	 0.949875748371072 
2434	 0.949262899274164 
2435	 0.942072363922187 
2436	 0.931601244092925 
2437	 0.914871942212424 
2438	 0.91399882258976 
2439	 0.915763792027343 
2440	 0.91241054649181 
2441	 0.927157616872505 
2442	 0.930001152823343 
2443	 0.916686697543991 
2444	 0.911328720652692 
2445	 0.894549594357572 
2446	 0.898180024118005 
2447	 0.926391711261286 
2448	 0.932367432009286 
2449	 0.963468581591757 
2450	 0.97235764515605 
2451	 0.91423628453545 
2452	 0.908439524741582 
2453	 0.93770567438481 
2454	 0.94462304501223 
2455	 0.970404985593909 
2456	 0.97319975075197 
2457	 0.953906391336882 
2458	 0.928003094880993 
2459	 0.878429871525217 
2460	 0.875856166672329 
2461	 0.877461075636805 
2462	 0.887883257315197 
2463	 0.948323291770115 
2464	 0.967595795080742 
2465	 0.963907520352537 
2466	 0.969352604028934 
2467	 0.96738379998317 
2468	 0.978446042184091 
2469	 1.01511497450958 
2470	 1.00068779402785 
2471	 0.941791405110196 
2472	 0.929032507535038 
2473	 0.87669051224358 
2474	 0.891145418560474 
2475	 1.02150891195382 
2476	 1.06026986975159 
2477	 1.08865649620243 
2478	 1.12715656193069 
2479	 1.08813195438036 
2480	 1.10380797688584 
2481	 1.16824401555951 
2482	 1.19706758538558 
2483	 1.27543732071163 
2484	 1.25634332471702 
2485	 1.13747074770471 
2486	 1.08698511304668 
2487	 0.887561082636994 
2488	 0.930162496630435 
2489	 0.95777504133253 
2490	 0.879849187175823 
2491	 1.02292100014944 
2492	 0.993981022909405 
2493	 0.897734775020328 
2494	 1.05045295405039 
2495	 1.11290289377716 
2496	 1.17507654394776 
2497	 1.16416791029765 
2498	 0.877335543771443 
2499	 0.792596173463816 
2500	 0.96223387374713 
