Wavelength	ref00018.asd
350	 0.153589785777111 
351	 0.154368688690916 
352	 0.154390421107846 
353	 0.154423789898136 
354	 0.153973916781832 
355	 0.153689039917377 
356	 0.153950639170263 
357	 0.154229798525341 
358	 0.154541906785698 
359	 0.154678378611362 
360	 0.15459143334239 
361	 0.1550788045922 
362	 0.155512490927736 
363	 0.155819156333385 
364	 0.156287307827851 
365	 0.156643524884073 
366	 0.156602517411409 
367	 0.156371318432987 
368	 0.156805897779745 
369	 0.157171224954118 
370	 0.157518554492917 
371	 0.157963517085366 
372	 0.158195289786557 
373	 0.158678214599815 
374	 0.159093254496623 
375	 0.158892154242834 
376	 0.159061987432366 
377	 0.159235128677286 
378	 0.159396376673219 
379	 0.160075300494517 
380	 0.160367140128637 
381	 0.160628344061324 
382	 0.161212061457345 
383	 0.161720813850446 
384	 0.162065935200696 
385	 0.162263762863087 
386	 0.16243792379938 
387	 0.16291625322313 
388	 0.163600472552942 
389	 0.164234566598808 
390	 0.164484041557341 
391	 0.164975108996351 
392	 0.165575449140205 
393	 0.166110603995366 
394	 0.166625663657236 
395	 0.16731970108587 
396	 0.167878199342991 
397	 0.168027981857013 
398	 0.168627244931339 
399	 0.169273177622987 
400	 0.169862257943511 
401	 0.170574263253956 
402	 0.17109092350085 
403	 0.171650555483037 
404	 0.172346074492778 
405	 0.17281474061207 
406	 0.173252721768112 
407	 0.173745108073834 
408	 0.174360877791653 
409	 0.1752388949885 
410	 0.176305133987483 
411	 0.177428395519537 
412	 0.178462146942829 
413	 0.179573703785766 
414	 0.180709600524648 
415	 0.181866623355266 
416	 0.183232228898113 
417	 0.184571116562889 
418	 0.185763612967815 
419	 0.186811556963485 
420	 0.188038112776302 
421	 0.189283560479912 
422	 0.190450055535045 
423	 0.191535989037885 
424	 0.192782789053266 
425	 0.193803064825051 
426	 0.194484855998301 
427	 0.195511545430062 
428	 0.196761877194365 
429	 0.197919941114277 
430	 0.198745350961321 
431	 0.199809529384019 
432	 0.200917371080286 
433	 0.201964608840956 
434	 0.202969753004425 
435	 0.20401734068769 
436	 0.204933211580427 
437	 0.205680776248177 
438	 0.206579990346505 
439	 0.207493481559596 
440	 0.20828261558204 
441	 0.208875496962255 
442	 0.209569700593245 
443	 0.210281200191072 
444	 0.21096097453907 
445	 0.211618164437625 
446	 0.212191279644352 
447	 0.212665905196536 
448	 0.21308984823049 
449	 0.213641210865436 
450	 0.214122167836084 
451	 0.214594824383037 
452	 0.215190154011921 
453	 0.215717104985001 
454	 0.21619575743503 
455	 0.216696326865413 
456	 0.21732397047342 
457	 0.218071305004181 
458	 0.218835323553554 
459	 0.219535069691627 
460	 0.220212285472587 
461	 0.220917818250641 
462	 0.221685373978377 
463	 0.222512976066642 
464	 0.223228375046894 
465	 0.223951940304238 
466	 0.224743219323377 
467	 0.225524329543833 
468	 0.226193295284044 
469	 0.226787266148383 
470	 0.227380256368108 
471	 0.227998245082328 
472	 0.228603630780583 
473	 0.229171756572269 
474	 0.229692220610045 
475	 0.230193584168945 
476	 0.230668315497674 
477	 0.231115716013954 
478	 0.231554017424719 
479	 0.232005239984588 
480	 0.23247567559176 
481	 0.232949159582936 
482	 0.233334154941385 
483	 0.233734905471452 
484	 0.234181224741326 
485	 0.234614555714198 
486	 0.234950448687215 
487	 0.235264516602158 
488	 0.235637281186195 
489	 0.236077924728917 
490	 0.236505560529283 
491	 0.236878658636496 
492	 0.237187029328254 
493	 0.23744320714292 
494	 0.237739663763385 
495	 0.238090760070252 
496	 0.23841031681796 
497	 0.238716001634534 
498	 0.239090061796134 
499	 0.23954076665465 
500	 0.239777334952746 
501	 0.24000867944545 
502	 0.240301380481154 
503	 0.240621207639675 
504	 0.240916760369843 
505	 0.241125325929207 
506	 0.24127171762982 
507	 0.241517935408363 
508	 0.241780791020384 
509	 0.241965256463072 
510	 0.242040942166313 
511	 0.24228575455581 
512	 0.242474246495763 
513	 0.242574426350426 
514	 0.242726139567689 
515	 0.242803940026886 
516	 0.242874375474053 
517	 0.242962781532687 
518	 0.242897470670687 
519	 0.242959473638912 
520	 0.243074282272339 
521	 0.243063678623578 
522	 0.243064374194699 
523	 0.243052811323587 
524	 0.242996916088085 
525	 0.242868001470385 
526	 0.242755376931948 
527	 0.242676802473711 
528	 0.242610059035581 
529	 0.242460716993297 
530	 0.242424437964929 
531	 0.242434321463185 
532	 0.242305555616545 
533	 0.24225658667787 
534	 0.2421770288479 
535	 0.242011402807257 
536	 0.241852625958667 
537	 0.241716200480844 
538	 0.241489905047661 
539	 0.241104213375255 
540	 0.240873646131787 
541	 0.240612153830383 
542	 0.240280917589997 
543	 0.2399799122424 
544	 0.239659122913996 
545	 0.239292471810035 
546	 0.238878026864105 
547	 0.238451995574723 
548	 0.238096922317332 
549	 0.237756290750414 
550	 0.237344837052934 
551	 0.237026447763327 
552	 0.236694691956609 
553	 0.236270510154323 
554	 0.235735301455927 
555	 0.235323335024262 
556	 0.234948043455809 
557	 0.234474787699498 
558	 0.233896799451206 
559	 0.233321487346492 
560	 0.232737842786181 
561	 0.232062343533457 
562	 0.231395539105948 
563	 0.23065910579923 
564	 0.229838226403309 
565	 0.229072681585282 
566	 0.228335897861679 
567	 0.227624328432086 
568	 0.22695753606576 
569	 0.226439968766501 
570	 0.226027933192636 
571	 0.2256894474737 
572	 0.225405326641366 
573	 0.225126360552299 
574	 0.224768224032443 
575	 0.224253679622459 
576	 0.223529010903076 
577	 0.222706321454757 
578	 0.221722475689273 
579	 0.220491350584856 
580	 0.219358064439214 
581	 0.218433508531782 
582	 0.217723977200455 
583	 0.217138516741697 
584	 0.216585353702458 
585	 0.215936236023871 
586	 0.215113646459816 
587	 0.214218236662456 
588	 0.213226915908028 
589	 0.212159061162105 
590	 0.211087231989491 
591	 0.210048892033509 
592	 0.20888293591535 
593	 0.207525555450228 
594	 0.206184774683988 
595	 0.204853669968267 
596	 0.203630412117566 
597	 0.202582777851054 
598	 0.201542642866319 
599	 0.200549442672083 
600	 0.199584321475578 
601	 0.198567030312876 
602	 0.197528010908764 
603	 0.196576974443099 
604	 0.19577099869315 
605	 0.194988239878754 
606	 0.194287112443456 
607	 0.19360350444958 
608	 0.19284464689379 
609	 0.192142831368079 
610	 0.191571817042415 
611	 0.191103788230144 
612	 0.190578118608816 
613	 0.190129435247721 
614	 0.189733655546694 
615	 0.189343590840845 
616	 0.188975524485241 
617	 0.188683810512116 
618	 0.188479161143713 
619	 0.188328495508924 
620	 0.18817562730701 
621	 0.18806073151072 
622	 0.187997235751182 
623	 0.187920834314226 
624	 0.187832281171222 
625	 0.187728428279877 
626	 0.187642700259297 
627	 0.187790608943174 
628	 0.187829013847915 
629	 0.187707576388482 
630	 0.187679538213038 
631	 0.187675223315439 
632	 0.187662494144023 
633	 0.187635831188985 
634	 0.187659124829343 
635	 0.187593270296811 
636	 0.187502744994938 
637	 0.187522549626416 
638	 0.187559491502742 
639	 0.187584310436017 
640	 0.187567609355527 
641	 0.187475322205332 
642	 0.18741621697898 
643	 0.187418645909627 
644	 0.187464894013494 
645	 0.187471253045585 
646	 0.187505515123018 
647	 0.187582146017226 
648	 0.187680473722616 
649	 0.18778855869402 
650	 0.187933261928961 
651	 0.188130043122048 
652	 0.188377180745958 
653	 0.188624597529416 
654	 0.18892629882076 
655	 0.189319089968324 
656	 0.189575164467478 
657	 0.189771009834945 
658	 0.190020975279185 
659	 0.190459369182566 
660	 0.190923051260834 
661	 0.191405120068274 
662	 0.191906532655616 
663	 0.192437510294804 
664	 0.192947972204938 
665	 0.19343368579963 
666	 0.193921506135262 
667	 0.194479159019046 
668	 0.194968341207348 
669	 0.195407221130358 
670	 0.195957643990092 
671	 0.196399915789564 
672	 0.196893337528238 
673	 0.197518547522803 
674	 0.198033869078691 
675	 0.198551400756516 
676	 0.199121266160223 
677	 0.199735275335628 
678	 0.200184720727594 
679	 0.200708305714736 
680	 0.201326703494909 
681	 0.201810540837985 
682	 0.202238250807884 
683	 0.202718334959114 
684	 0.203290920406543 
685	 0.203803493037631 
686	 0.204281337507683 
687	 0.204707272372585 
688	 0.205002326319622 
689	 0.205173929392815 
690	 0.205422848817621 
691	 0.205767523827577 
692	 0.206010385600777 
693	 0.20620150394447 
694	 0.206361476925914 
695	 0.206501778857391 
696	 0.206616324602231 
697	 0.206768565285646 
698	 0.206925684132973 
699	 0.207012099762081 
700	 0.20702180874213 
701	 0.206990341781629 
702	 0.206906756716091 
703	 0.206708193002519 
704	 0.206641301645365 
705	 0.206535371052692 
706	 0.206260085214947 
707	 0.206047562189661 
708	 0.205856115565555 
709	 0.205547445220909 
710	 0.205006896900683 
711	 0.204600204403745 
712	 0.204161496480761 
713	 0.203615435999033 
714	 0.203042711980244 
715	 0.202451019541155 
716	 0.201770732278328 
717	 0.200938147328475 
718	 0.200027951399652 
719	 0.199143634041617 
720	 0.198435633569513 
721	 0.197972953294831 
722	 0.197583729209489 
723	 0.197039240889978 
724	 0.196292477611984 
725	 0.195567254742654 
726	 0.194898578110274 
727	 0.194307266135306 
728	 0.19376004132787 
729	 0.193189145190111 
730	 0.192523667259174 
731	 0.191788806633649 
732	 0.191059550199826 
733	 0.190404081960909 
734	 0.189966418737322 
735	 0.189710179939208 
736	 0.189463898462628 
737	 0.189355254106765 
738	 0.189408163187248 
739	 0.189612885512535 
740	 0.189938659563581 
741	 0.190301677328973 
742	 0.190671021394418 
743	 0.191077797444926 
744	 0.191744047255368 
745	 0.192327787214475 
746	 0.192772133272104 
747	 0.193263100802035 
748	 0.193947565848844 
749	 0.194623661945919 
750	 0.195226572013368 
751	 0.196009219685084 
752	 0.196642460473081 
753	 0.197212676373554 
754	 0.197859452760336 
755	 0.198457605721991 
756	 0.199101318855833 
757	 0.199824417870378 
758	 0.20062613329505 
759	 0.201476198295828 
760	 0.202056036178481 
761	 0.202304183606626 
762	 0.203128238779816 
763	 0.20349802646395 
764	 0.203712674882805 
765	 0.204032327653159 
766	 0.204283452982333 
767	 0.204659901945783 
768	 0.2050849258561 
769	 0.20544184480281 
770	 0.205798350460503 
771	 0.206133436284317 
772	 0.206461213800982 
773	 0.206823547765573 
774	 0.20715605836999 
775	 0.207459851440626 
776	 0.207771412239224 
777	 0.208172825013107 
778	 0.208504920339299 
779	 0.208853926545056 
780	 0.209299869513335 
781	 0.209654194403482 
782	 0.210063870382507 
783	 0.210583384937345 
784	 0.211187897417358 
785	 0.211722464198833 
786	 0.212219310327769 
787	 0.212701478440503 
788	 0.213173427213726 
789	 0.213945321198884 
790	 0.214768808617571 
791	 0.21545791670859 
792	 0.216187387286644 
793	 0.217011257342013 
794	 0.217879503675474 
795	 0.218706850105278 
796	 0.219456281411041 
797	 0.220226290339395 
798	 0.221122697814145 
799	 0.222186017055818 
800	 0.223025391202217 
801	 0.223787453789966 
802	 0.224560170405829 
803	 0.225311661457106 
804	 0.226062305298816 
805	 0.226891508262059 
806	 0.227767383898761 
807	 0.228421624534196 
808	 0.229076068263762 
809	 0.229724032906414 
810	 0.230282237268852 
811	 0.230678420948228 
812	 0.231098726900583 
813	 0.231521818080561 
814	 0.231806503494585 
815	 0.231976786364059 
816	 0.232182504980431 
817	 0.232474534250723 
818	 0.23276551491804 
819	 0.232831686033385 
820	 0.232934255013002 
821	 0.233082836240156 
822	 0.23273604931079 
823	 0.232162842318302 
824	 0.231593795104164 
825	 0.231142877834389 
826	 0.230608673416694 
827	 0.229443563314895 
828	 0.2279554105737 
829	 0.226729780492806 
830	 0.225345840255311 
831	 0.224139855768174 
832	 0.223122063233248 
833	 0.222095881776181 
834	 0.221495741717298 
835	 0.220978399083112 
836	 0.220458744122841 
837	 0.22024027409986 
838	 0.219925337183539 
839	 0.219717108740917 
840	 0.219680116235454 
841	 0.219377280873593 
842	 0.219107932417771 
843	 0.218934567833915 
844	 0.218806401228275 
845	 0.218533056163649 
846	 0.218339321756135 
847	 0.218180371802174 
848	 0.217920565391963 
849	 0.217653712579215 
850	 0.217424731994556 
851	 0.217199896543675 
852	 0.2169047375765 
853	 0.216635060920617 
854	 0.216479922696497 
855	 0.21633797068413 
856	 0.21594448066734 
857	 0.215682577257247 
858	 0.215478570328451 
859	 0.215250749580077 
860	 0.215038492032667 
861	 0.214754948644472 
862	 0.214490341678138 
863	 0.214295164321097 
864	 0.214006435837916 
865	 0.213725066442796 
866	 0.213394117194929 
867	 0.212962806256921 
868	 0.212589665908018 
869	 0.212311458402064 
870	 0.211989292207386 
871	 0.2114940752311 
872	 0.211206470878946 
873	 0.210839224369668 
874	 0.210312535779624 
875	 0.209745090361886 
876	 0.20934112192102 
877	 0.208833310111048 
878	 0.208213488059551 
879	 0.207751969704172 
880	 0.207279315872317 
881	 0.206736090014937 
882	 0.20608779526304 
883	 0.205334856797045 
884	 0.205015750444847 
885	 0.204601235876454 
886	 0.20382130284667 
887	 0.203270652631286 
888	 0.202901542691636 
889	 0.202519097065936 
890	 0.201964891410462 
891	 0.201277561464646 
892	 0.200901141742571 
893	 0.200547385872275 
894	 0.199844560422852 
895	 0.199071088002081 
896	 0.198310767692366 
897	 0.197758469739492 
898	 0.197461494071839 
899	 0.196676650960059 
900	 0.196110948781715 
901	 0.195836153333912 
902	 0.195544469261259 
903	 0.195116229495201 
904	 0.194667179640211 
905	 0.194268120380762 
906	 0.19389426518735 
907	 0.193238213410902 
908	 0.192168627351889 
909	 0.191126151531896 
910	 0.190791242025131 
911	 0.189812180613319 
912	 0.189112788697704 
913	 0.18873929237323 
914	 0.187762123338397 
915	 0.186736101101946 
916	 0.185423315750124 
917	 0.184122128054573 
918	 0.183635448427906 
919	 0.182399201953343 
920	 0.181213301485875 
921	 0.180260169560294 
922	 0.178568490484051 
923	 0.177050163929706 
924	 0.175655977762556 
925	 0.174212122695554 
926	 0.172620797498469 
927	 0.170865102566163 
928	 0.169084186761956 
929	 0.167199964844047 
930	 0.164719146366825 
931	 0.16303222643469 
932	 0.161616929296275 
933	 0.159529290078312 
934	 0.156363754484505 
935	 0.154848420194074 
936	 0.153872332406772 
937	 0.152161425028144 
938	 0.15041970910563 
939	 0.149539100519392 
940	 0.148767775453699 
941	 0.147461577717358 
942	 0.145926194395638 
943	 0.144893404104627 
944	 0.14346909533305 
945	 0.141425096542233 
946	 0.140863025796183 
947	 0.139413572731942 
948	 0.137811880163069 
949	 0.137076788447458 
950	 0.136978644192095 
951	 0.135989469036959 
952	 0.134375174102013 
953	 0.132913309875893 
954	 0.132251414492351 
955	 0.132100106843056 
956	 0.131911548407153 
957	 0.13138796793895 
958	 0.130861013306838 
959	 0.129550388371941 
960	 0.129345351779332 
961	 0.130525085839823 
962	 0.129583906700258 
963	 0.129727038823462 
964	 0.129828074680951 
965	 0.129323151506024 
966	 0.130055541098854 
967	 0.129645556100768 
968	 0.129108308080877 
969	 0.128982137243652 
970	 0.1280540061897 
971	 0.128625449312418 
972	 0.129536862353991 
973	 0.129596472268482 
974	 0.128761050599606 
975	 0.128507877614793 
976	 0.129113883425144 
977	 0.129626554113618 
978	 0.128336208239647 
979	 0.129049842799729 
980	 0.129451932438372 
981	 0.128670777846089 
982	 0.128423292812871 
983	 0.128823289816741 
984	 0.129363079040148 
985	 0.129336543706579 
986	 0.128409176930464 
987	 0.129269309899427 
988	 0.129988718611948 
989	 0.129784163901414 
990	 0.129478588529218 
991	 0.131202669774424 
992	 0.131209527927143 
993	 0.130110036225672 
994	 0.130807757669944 
995	 0.131122977834635 
996	 0.131205192443833 
997	 0.131487276424891 
998	 0.132061698724493 
999	 0.131245685444312 
1000	 0.130673482929685 
1001	 0.120805619167675 
1002	 0.120870423119543 
1003	 0.121063048032625 
1004	 0.121405913426933 
1005	 0.121593827172693 
1006	 0.121826667947405 
1007	 0.121980980543499 
1008	 0.121853745259874 
1009	 0.122032788930037 
1010	 0.122355455429218 
1011	 0.122740184440434 
1012	 0.123086807403035 
1013	 0.123383970866949 
1014	 0.123562320775613 
1015	 0.123631537602101 
1016	 0.123831478903834 
1017	 0.124185625835927 
1018	 0.124496523128526 
1019	 0.124852009274307 
1020	 0.125177754179438 
1021	 0.125426224391314 
1022	 0.125797653555775 
1023	 0.126193364178507 
1024	 0.126688767131427 
1025	 0.127218644484014 
1026	 0.127751343176097 
1027	 0.128266910594831 
1028	 0.128680613125654 
1029	 0.129049776847262 
1030	 0.129493213737666 
1031	 0.130035530884393 
1032	 0.130669127035567 
1033	 0.131195217872646 
1034	 0.131720785433589 
1035	 0.132269486837946 
1036	 0.132747954264952 
1037	 0.133248148898944 
1038	 0.133794926790552 
1039	 0.134416590447026 
1040	 0.134962698803943 
1041	 0.135444622887293 
1042	 0.136002042791216 
1043	 0.13668955576522 
1044	 0.13722594690557 
1045	 0.137645781122282 
1046	 0.138174795018691 
1047	 0.138683257509874 
1048	 0.139159285943496 
1049	 0.139716024443074 
1050	 0.140216295222759 
1051	 0.140661614616274 
1052	 0.141020094962688 
1053	 0.141545945707258 
1054	 0.141935706766392 
1055	 0.142141127004488 
1056	 0.142474600224788 
1057	 0.142692320781097 
1058	 0.142949422052499 
1059	 0.143386031694469 
1060	 0.143641295229823 
1061	 0.143837907502748 
1062	 0.144054396846381 
1063	 0.14412929009222 
1064	 0.144231803855006 
1065	 0.144317499681444 
1066	 0.144408764910324 
1067	 0.144307208749263 
1068	 0.144247338329839 
1069	 0.144231464885582 
1070	 0.144102057795295 
1071	 0.144136045466184 
1072	 0.144159127979311 
1073	 0.144047942289078 
1074	 0.143919949634834 
1075	 0.143645302726554 
1076	 0.143408851977984 
1077	 0.143220442235893 
1078	 0.142931250732702 
1079	 0.142577138344795 
1080	 0.142185092831765 
1081	 0.141814417291832 
1082	 0.141395756433366 
1083	 0.140992540900954 
1084	 0.140586961339367 
1085	 0.140184287714028 
1086	 0.139755422842467 
1087	 0.139271349868043 
1088	 0.138886711752209 
1089	 0.138517190925228 
1090	 0.138020380109952 
1091	 0.137590560941074 
1092	 0.13710232579578 
1093	 0.136540768569738 
1094	 0.136072589046148 
1095	 0.135541485114653 
1096	 0.135043042845507 
1097	 0.134602751928029 
1098	 0.13413397975061 
1099	 0.133619429762496 
1100	 0.133187740464488 
1101	 0.132756140009875 
1102	 0.132301184575102 
1103	 0.131927902627003 
1104	 0.131502215868305 
1105	 0.131115486289283 
1106	 0.130730778508693 
1107	 0.130308908589175 
1108	 0.129919652338979 
1109	 0.129474809319243 
1110	 0.129041063026235 
1111	 0.128631922066863 
1112	 0.128242142122349 
1113	 0.127817074518224 
1114	 0.127426198753447 
1115	 0.126910554792732 
1116	 0.126299435872199 
1117	 0.125641814418755 
1118	 0.124901633778513 
1119	 0.124231047531885 
1120	 0.123491965604078 
1121	 0.122837148751783 
1122	 0.122292218650475 
1123	 0.121653390338493 
1124	 0.1210974563568 
1125	 0.120598809737303 
1126	 0.120008694737944 
1127	 0.11937257460546 
1128	 0.118715037487895 
1129	 0.118039085924798 
1130	 0.117420691121061 
1131	 0.116831809187232 
1132	 0.11626418698583 
1133	 0.11573886633347 
1134	 0.115211087765894 
1135	 0.114794669501198 
1136	 0.114390063647679 
1137	 0.114110045458736 
1138	 0.113821661550413 
1139	 0.113307927381668 
1140	 0.112776915711769 
1141	 0.11234495657769 
1142	 0.111983920802824 
1143	 0.11166022880856 
1144	 0.111513486807487 
1145	 0.111247681730464 
1146	 0.11090356826542 
1147	 0.110621527793415 
1148	 0.110349519734244 
1149	 0.110122070253584 
1150	 0.109879432614865 
1151	 0.109765740119529 
1152	 0.109738829183964 
1153	 0.109750286918578 
1154	 0.109802224438383 
1155	 0.109875176929027 
1156	 0.109847160382295 
1157	 0.109787715891082 
1158	 0.10976140380355 
1159	 0.109766934623396 
1160	 0.10979616083839 
1161	 0.109891106464811 
1162	 0.10992809638864 
1163	 0.109948631670747 
1164	 0.109954786755091 
1165	 0.109967403231647 
1166	 0.109937349705066 
1167	 0.10984737430557 
1168	 0.109826734601502 
1169	 0.109823148220114 
1170	 0.109782554153361 
1171	 0.109788176150296 
1172	 0.109835398717439 
1173	 0.109823022721392 
1174	 0.109816450375164 
1175	 0.109847974068678 
1176	 0.109829254830202 
1177	 0.109807302372015 
1178	 0.109770498460065 
1179	 0.109733101731705 
1180	 0.109660773378832 
1181	 0.109652810953258 
1182	 0.109681434163232 
1183	 0.109678856421283 
1184	 0.109699519205292 
1185	 0.109703661047121 
1186	 0.109682989358588 
1187	 0.109667028839889 
1188	 0.109647923993854 
1189	 0.109646035584485 
1190	 0.109626343023269 
1191	 0.1096158412268 
1192	 0.1096355899653 
1193	 0.109594626548507 
1194	 0.10959486939965 
1195	 0.109599411963106 
1196	 0.109598978750341 
1197	 0.109631687874219 
1198	 0.109627176941871 
1199	 0.109567708807601 
1200	 0.109562993951891 
1201	 0.109564669400288 
1202	 0.109580047963004 
1203	 0.109665978158902 
1204	 0.109685339942075 
1205	 0.10966845512162 
1206	 0.109664510638834 
1207	 0.109601102949683 
1208	 0.109590315329573 
1209	 0.109632693209358 
1210	 0.109650803005223 
1211	 0.109673785848348 
1212	 0.109751700530885 
1213	 0.109767124287809 
1214	 0.109754545984743 
1215	 0.109751450388158 
1216	 0.109716149107081 
1217	 0.10972277245564 
1218	 0.109757837029753 
1219	 0.109781547502624 
1220	 0.109817707310812 
1221	 0.1098389963371 
1222	 0.109854513778729 
1223	 0.109863004806609 
1224	 0.109880837364759 
1225	 0.10987530935754 
1226	 0.109822953281768 
1227	 0.109812804662676 
1228	 0.109836079520845 
1229	 0.109799463776947 
1230	 0.109829686335215 
1231	 0.109900051617684 
1232	 0.109916225729752 
1233	 0.109915726993965 
1234	 0.109938541117776 
1235	 0.109956768289439 
1236	 0.109948614151555 
1237	 0.109940673004641 
1238	 0.109933543336037 
1239	 0.109899187035187 
1240	 0.109876909800675 
1241	 0.109859355239047 
1242	 0.10986353624702 
1243	 0.109853736406899 
1244	 0.10987919942533 
1245	 0.11000197736527 
1246	 0.110027619511577 
1247	 0.109956643723661 
1248	 0.109974270989864 
1249	 0.109987105179867 
1250	 0.110019869217439 
1251	 0.110156904411915 
1252	 0.110270866431431 
1253	 0.110309986828937 
1254	 0.110276085785586 
1255	 0.110293366825144 
1256	 0.110266210844108 
1257	 0.110309002329298 
1258	 0.110422388875118 
1259	 0.110479696405137 
1260	 0.110552460304307 
1261	 0.110588747991252 
1262	 0.110578070330056 
1263	 0.110588200212374 
1264	 0.110613025533087 
1265	 0.110594145756396 
1266	 0.110533061169102 
1267	 0.110502016837076 
1268	 0.110491204804567 
1269	 0.110422968678007 
1270	 0.110332359141273 
1271	 0.110256714396095 
1272	 0.110134175428742 
1273	 0.110016246802373 
1274	 0.109918649128561 
1275	 0.109875525463551 
1276	 0.109765273673594 
1277	 0.109626143400253 
1278	 0.109482515274511 
1279	 0.109305705373683 
1280	 0.109163472543811 
1281	 0.109003666027143 
1282	 0.108894872727611 
1283	 0.108849004367371 
1284	 0.108749288915236 
1285	 0.108645431960401 
1286	 0.108548859406447 
1287	 0.108398973300779 
1288	 0.108314948492452 
1289	 0.108298691154771 
1290	 0.108248531081068 
1291	 0.10821872026788 
1292	 0.108169216579726 
1293	 0.108060278674286 
1294	 0.108007618655548 
1295	 0.107990076283126 
1296	 0.107975003779798 
1297	 0.107936866536025 
1298	 0.10792391964287 
1299	 0.107876746653506 
1300	 0.107750560654519 
1301	 0.107750999393563 
1302	 0.107826703668521 
1303	 0.107845483318338 
1304	 0.107913637119327 
1305	 0.107932544330339 
1306	 0.107890109669589 
1307	 0.107873026069791 
1308	 0.107878663736066 
1309	 0.107853542496167 
1310	 0.107782058434868 
1311	 0.107751482198102 
1312	 0.107730607401571 
1313	 0.107709942174792 
1314	 0.107743746923511 
1315	 0.107719592095993 
1316	 0.107639977897999 
1317	 0.107589349947595 
1318	 0.107510671319319 
1319	 0.107453175858454 
1320	 0.107445977494236 
1321	 0.10741771739943 
1322	 0.107353912700626 
1323	 0.10725935538227 
1324	 0.107196285540239 
1325	 0.107119114726978 
1326	 0.107037218219196 
1327	 0.106984320243645 
1328	 0.106893687407977 
1329	 0.106735551608739 
1330	 0.106646447789865 
1331	 0.106598668382514 
1332	 0.106514978654267 
1333	 0.106475429099904 
1334	 0.106369990677217 
1335	 0.106116873296203 
1336	 0.106049774944983 
1337	 0.106103029496066 
1338	 0.106067885940635 
1339	 0.106155513997863 
1340	 0.106131274345552 
1341	 0.10588387622999 
1342	 0.105749828180969 
1343	 0.10572063127061 
1344	 0.105571048770987 
1345	 0.105351954316709 
1346	 0.105107186652244 
1347	 0.104698163861515 
1348	 0.104063124913208 
1349	 0.103792831765641 
1350	 0.103906389199493 
1351	 0.103737002226862 
1352	 0.104109492601937 
1353	 0.103729100101946 
1354	 0.10190927778488 
1355	 0.10063210246138 
1356	 9.90680900637043E-02 
1357	 0.096899948976818 
1358	 9.54874881276746E-02 
1359	 9.44602561701141E-02 
1360	 9.79238570465607E-02 
1361	 9.80581390905617E-02 
1362	 9.98489567671026E-02 
1363	 0.101311299702608 
1364	 9.43651244903146E-02 
1365	 8.93223069076797E-02 
1366	 8.99665819821947E-02 
1367	 8.88972458873717E-02 
1368	 8.49451100950051E-02 
1369	 8.31289120250205E-02 
1370	 8.15846256529004E-02 
1371	 8.41543648479223E-02 
1372	 0.090169461566715 
1373	 9.20328540958767E-02 
1374	 9.66366397622734E-02 
1375	 0.095706844439641 
1376	 9.52115753540903E-02 
1377	 9.34053631484174E-02 
1378	 9.26692500980746E-02 
1379	 0.093966829335575 
1380	 9.18888101818602E-02 
1381	 8.59488161575375E-02 
1382	 8.63680066055552E-02 
1383	 8.87781660378963E-02 
1384	 8.92971781067631E-02 
1385	 9.26734069750201E-02 
1386	 9.31016762862265E-02 
1387	 9.01942568068696E-02 
1388	 9.01102663808901E-02 
1389	 9.20636363678031E-02 
1390	 9.17617090047848E-02 
1391	 8.97071123972572E-02 
1392	 9.02244191146059E-02 
1393	 9.19890477420219E-02 
1394	 0.091905436136065 
1395	 9.22634306718383E-02 
1396	 9.22943491126442E-02 
1397	 9.03172976412925E-02 
1398	 8.98724540728847E-02 
1399	 9.07204948576555E-02 
1400	 9.12781417542246E-02 
1401	 9.21507411554831E-02 
1402	 0.092429492816241 
1403	 0.092733308850887 
1404	 9.27611926259081E-02 
1405	 9.25256725039312E-02 
1406	 9.17826930569559E-02 
1407	 9.14802326882132E-02 
1408	 9.11518727782769E-02 
1409	 9.13480751491993E-02 
1410	 0.091865681131177 
1411	 0.092227172185635 
1412	 9.27061338970344E-02 
1413	 9.32942842377354E-02 
1414	 0.093994115926344 
1415	 9.41804756141504E-02 
1416	 9.44382516608394E-02 
1417	 9.44021088484142E-02 
1418	 9.38521226568607E-02 
1419	 9.37764692642472E-02 
1420	 9.37727707588937E-02 
1421	 9.39466254995317E-02 
1422	 9.43615386128107E-02 
1423	 0.094523659250159 
1424	 9.47119398621508E-02 
1425	 0.094831014458314 
1426	 9.47670448751302E-02 
1427	 9.48447845859964E-02 
1428	 9.49634984938176E-02 
1429	 9.51209822833996E-02 
1430	 9.54695148666006E-02 
1431	 9.55515657743841E-02 
1432	 9.56648276749698E-02 
1433	 9.55482334821868E-02 
1434	 9.49179450207134E-02 
1435	 9.46977003376489E-02 
1436	 9.45296203855834E-02 
1437	 9.44981884498731E-02 
1438	 9.48314539789411E-02 
1439	 9.49857553607994E-02 
1440	 9.50502135780062E-02 
1441	 9.51564920964872E-02 
1442	 9.51680957796285E-02 
1443	 9.53473039804755E-02 
1444	 9.55222251791984E-02 
1445	 9.56940789391726E-02 
1446	 9.58160349452615E-02 
1447	 9.58244912150318E-02 
1448	 9.59019428266726E-02 
1449	 9.59156614199616E-02 
1450	 9.60424052171415E-02 
1451	 9.62766198485918E-02 
1452	 9.63651906648883E-02 
1453	 9.64289828158288E-02 
1454	 9.64728677018341E-02 
1455	 9.64410988115404E-02 
1456	 9.64717006918623E-02 
1457	 9.65444769839016E-02 
1458	 9.65870558429914E-02 
1459	 9.66527369324383E-02 
1460	 9.66426214974619E-02 
1461	 9.66030744727413E-02 
1462	 9.65264419557086E-02 
1463	 9.63252450926063E-02 
1464	 9.62504652374437E-02 
1465	 9.61886174274287E-02 
1466	 9.61764850806181E-02 
1467	 9.63071176126957E-02 
1468	 9.63286496243305E-02 
1469	 9.63376708066614E-02 
1470	 9.63094695391679E-02 
1471	 9.61239723495263E-02 
1472	 9.61402214243615E-02 
1473	 9.62641916587382E-02 
1474	 0.096356106982383 
1475	 9.65933388888507E-02 
1476	 9.67004476743899E-02 
1477	 9.66814892534023E-02 
1478	 9.67161984365358E-02 
1479	 9.67393560542852E-02 
1480	 9.67781543204572E-02 
1481	 9.68198757084316E-02 
1482	 0.096889130156632 
1483	 9.69502391665158E-02 
1484	 9.70566452470123E-02 
1485	 0.097236387477617 
1486	 9.73706630424484E-02 
1487	 9.74982226066965E-02 
1488	 9.76084650731015E-02 
1489	 9.77860540814641E-02 
1490	 9.79325626282867E-02 
1491	 9.80389643518351E-02 
1492	 9.80949372457365E-02 
1493	 0.098027784438569 
1494	 9.80096664693107E-02 
1495	 9.80495142964914E-02 
1496	 9.81364510678226E-02 
1497	 9.81997252803663E-02 
1498	 9.83055709620088E-02 
1499	 9.83588418075735E-02 
1500	 9.83894166518263E-02 
1501	 9.84009913094354E-02 
1502	 9.83749871595122E-02 
1503	 9.84051086265303E-02 
1504	 9.84259856331113E-02 
1505	 9.84909842520846E-02 
1506	 9.86293558662601E-02 
1507	 9.86943864380937E-02 
1508	 9.87473535403194E-02 
1509	 0.09878372526533 
1510	 9.87833144937097E-02 
1511	 9.88058780372289E-02 
1512	 9.88253376096443E-02 
1513	 9.88522415185775E-02 
1514	 0.098881088727031 
1515	 9.89182416123047E-02 
1516	 9.89847137696433E-02 
1517	 9.90013117396014E-02 
1518	 9.89858542707399E-02 
1519	 9.90060602402371E-02 
1520	 9.90166656391022E-02 
1521	 9.90276917780148E-02 
1522	 0.099025788502865 
1523	 0.099094829662629 
1524	 9.92192709072186E-02 
1525	 9.92840331886349E-02 
1526	 9.94161456112296E-02 
1527	 9.94665204995058E-02 
1528	 9.93802370952889E-02 
1529	 9.93821190084188E-02 
1530	 9.94036924531383E-02 
1531	 9.94377831973671E-02 
1532	 9.95313292382268E-02 
1533	 9.95735805771293E-02 
1534	 0.09958597853462 
1535	 9.96169939415375E-02 
1536	 9.96430413187335E-02 
1537	 9.96535347191223E-02 
1538	 9.96551933773947E-02 
1539	 9.96816706784943E-02 
1540	 9.96944042439496E-02 
1541	 9.97245074337361E-02 
1542	 0.099825607416447 
1543	 9.98597845326535E-02 
1544	 9.98377550509649E-02 
1545	 9.98416668480238E-02 
1546	 9.98463573723304E-02 
1547	 9.98256487644655E-02 
1548	 9.97584925384462E-02 
1549	 9.97700526156299E-02 
1550	 9.98158133030313E-02 
1551	 9.98372060627462E-02 
1552	 9.99156332764137E-02 
1553	 9.99794198883478E-02 
1554	 0.100035107006868 
1555	 0.100039350024718 
1556	 0.100012822721977 
1557	 0.100003401559793 
1558	 9.99178798056963E-02 
1559	 9.98842715877841E-02 
1560	 9.99030486740165E-02 
1561	 9.99369177506649E-02 
1562	 0.100022575499964 
1563	 0.100070496220013 
1564	 0.100136274761126 
1565	 0.100171434300462 
1566	 0.100156687996253 
1567	 0.10010466708914 
1568	 0.100103976770204 
1569	 0.10011575442659 
1570	 0.100086787151861 
1571	 0.100055044108112 
1572	 0.100053546070568 
1573	 0.100020244488596 
1574	 0.100033186996812 
1575	 0.100108940354356 
1576	 0.100149847376181 
1577	 0.100171118989665 
1578	 0.100215184347651 
1579	 0.100292558667303 
1580	 0.100312989331725 
1581	 0.100314258347535 
1582	 0.100308306656309 
1583	 0.10025743231303 
1584	 0.100269269782341 
1585	 0.100303977410657 
1586	 0.100330881358311 
1587	 0.100390160045058 
1588	 0.10040932397196 
1589	 0.10041943616477 
1590	 0.100393566784848 
1591	 0.100329333410789 
1592	 0.100305319215439 
1593	 0.100246093080268 
1594	 0.100266066464205 
1595	 0.100380354846748 
1596	 0.10037046631963 
1597	 0.100323229944464 
1598	 0.100325024752038 
1599	 0.100280488320625 
1600	 0.100273212670007 
1601	 0.100343186614293 
1602	 0.100350654521881 
1603	 0.100317183900445 
1604	 0.10028081538562 
1605	 0.100223067758535 
1606	 0.100220137106702 
1607	 0.100202791294092 
1608	 0.100236556356854 
1609	 0.100343764924799 
1610	 0.100420905598664 
1611	 0.100519173486473 
1612	 0.100554182564953 
1613	 0.10058248994233 
1614	 0.100574936897005 
1615	 0.10048217740761 
1616	 0.100479080604957 
1617	 0.100533337114807 
1618	 0.1004909631553 
1619	 0.100412654662704 
1620	 0.100392249447901 
1621	 0.100313060875508 
1622	 0.100332804797969 
1623	 0.10049397104032 
1624	 0.10050670287886 
1625	 0.100447814568213 
1626	 0.100472112945495 
1627	 0.100490206804038 
1628	 0.100495305430883 
1629	 0.100555694077168 
1630	 0.100574036614938 
1631	 0.100524937472696 
1632	 0.100521218404075 
1633	 0.100543507250555 
1634	 0.100582722031061 
1635	 0.100655268688348 
1636	 0.100628507140431 
1637	 0.100579612604363 
1638	 0.100550635792437 
1639	 0.100425599252701 
1640	 0.100414242812082 
1641	 0.100518898843535 
1642	 0.100529706783932 
1643	 0.100503068246633 
1644	 0.100515661603662 
1645	 0.100518045208827 
1646	 0.10054015279373 
1647	 0.100596038046674 
1648	 0.100647314966374 
1649	 0.100744326448035 
1650	 0.100691151509761 
1651	 0.100557079547975 
1652	 0.100511381807539 
1653	 0.100390860938367 
1654	 0.100341489433561 
1655	 0.100404146025163 
1656	 0.100388244561007 
1657	 0.100314320397246 
1658	 0.100287445390916 
1659	 0.100298825086961 
1660	 0.100241545750046 
1661	 0.100241421825489 
1662	 0.100277495709922 
1663	 0.100221386106114 
1664	 0.100266505506169 
1665	 0.100303847413872 
1666	 0.100284155999246 
1667	 0.100335404304799 
1668	 0.100277377096004 
1669	 0.100169162269522 
1670	 0.100168264259572 
1671	 0.100171862518957 
1672	 0.100145114269053 
1673	 0.100104422453818 
1674	 0.100030011046927 
1675	 9.98862953141569E-02 
1676	 9.97794622598198E-02 
1677	 9.97702591523436E-02 
1678	 0.099715817821708 
1679	 9.97088580587064E-02 
1680	 9.97562750249606E-02 
1681	 9.97669977981591E-02 
1682	 9.98814097774661E-02 
1683	 9.99210092046635E-02 
1684	 9.98290794103327E-02 
1685	 9.98378871384409E-02 
1686	 9.98037841686813E-02 
1687	 9.97477432760552E-02 
1688	 9.98290088766084E-02 
1689	 9.99009863437476E-02 
1690	 9.98766649807564E-02 
1691	 9.98711029687571E-02 
1692	 9.98459181567832E-02 
1693	 9.98365889512364E-02 
1694	 9.98837746574335E-02 
1695	 9.98678854229049E-02 
1696	 9.97568027368718E-02 
1697	 9.97559113722712E-02 
1698	 9.97816545931448E-02 
1699	 9.98004294071308E-02 
1700	 0.09989777354716 
1701	 0.099995391794102 
1702	 0.100082512759466 
1703	 0.10010702934111 
1704	 0.100161593873229 
1705	 0.100178857662412 
1706	 0.100073611069019 
1707	 0.100117080376907 
1708	 0.100255670342931 
1709	 0.10031605674262 
1710	 0.100410874105245 
1711	 0.100422685642 
1712	 0.100346010496256 
1713	 0.100318155987218 
1714	 0.100281811743766 
1715	 0.100237009276135 
1716	 0.100202843223539 
1717	 0.100157356101989 
1718	 0.100122041232377 
1719	 0.100056064627193 
1720	 9.99035558599531E-02 
1721	 9.98732630288007E-02 
1722	 9.98558437578282E-02 
1723	 9.99196286134251E-02 
1724	 0.100146840532954 
1725	 0.100246720593423 
1726	 0.100361077484665 
1727	 0.100414716203996 
1728	 0.100368485476487 
1729	 0.100389379894017 
1730	 0.100425278430414 
1731	 0.10026612578277 
1732	 0.100229100690117 
1733	 0.100277378236441 
1734	 0.100266616323525 
1735	 0.100175621310367 
1736	 0.100205143914598 
1737	 0.10010439135544 
1738	 9.99543748778416E-02 
1739	 0.10009749763957 
1740	 0.100153151365876 
1741	 0.100208124244755 
1742	 0.100276762608668 
1743	 0.10024165107658 
1744	 0.100261555852918 
1745	 0.100232339894205 
1746	 0.100286336529284 
1747	 0.100142806998465 
1748	 9.99410683355325E-02 
1749	 0.100001153413152 
1750	 9.99584529566034E-02 
1751	 0.100051449348666 
1752	 0.100183232532176 
1753	 0.100114645427808 
1754	 0.100018099323937 
1755	 9.99911717716129E-02 
1756	 0.100053947493728 
1757	 0.100068871667517 
1758	 0.100101441980667 
1759	 0.100167381389542 
1760	 0.100179155334253 
1761	 0.100118194741165 
1762	 0.100095291762291 
1763	 0.100091256504578 
1764	 0.100057874928816 
1765	 0.10004913430909 
1766	 0.100054173816898 
1767	 0.100009036730315 
1768	 0.100019668645065 
1769	 0.100145482861551 
1770	 0.100125210538465 
1771	 9.99937124736552E-02 
1772	 9.99262540494702E-02 
1773	 0.099748833974551 
1774	 9.98095212409351E-02 
1775	 9.99823485968583E-02 
1776	 0.100060883141218 
1777	 0.10010712477386 
1778	 0.100000843319144 
1779	 9.98068606258982E-02 
1780	 9.95989900023592E-02 
1781	 9.95931007617121E-02 
1782	 0.099671340591169 
1783	 9.95907069433674E-02 
1784	 9.98540350757345E-02 
1785	 0.100091015740011 
1786	 0.100163081866518 
1787	 0.10057234172117 
1788	 0.100529783876133 
1789	 0.10025096640902 
1790	 0.100325140210302 
1791	 0.100001911800869 
1792	 9.98704022670815E-02 
1793	 0.099825555011157 
1794	 9.94791198675314E-02 
1795	 9.95433184857246E-02 
1796	 9.95059741020684E-02 
1797	 9.92487573099736E-02 
1798	 9.88487081807296E-02 
1799	 9.85498715608206E-02 
1800	 9.85368115356344E-02 
1801	 9.59569908637539E-02 
1802	 9.66441439618121E-02 
1803	 9.67740547492847E-02 
1804	 9.70859379101642E-02 
1805	 9.70656071833163E-02 
1806	 9.57986865559215E-02 
1807	 9.57270330350938E-02 
1808	 9.61949945294107E-02 
1809	 9.73764556341122E-02 
1810	 9.74861422563752E-02 
1811	 9.84191931436524E-02 
1812	 9.77392702164647E-02 
1813	 9.40913477648108E-02 
1814	 9.25756849955968E-02 
1815	 9.07027700883173E-02 
1816	 9.02379480561274E-02 
1817	 9.30273026568374E-02 
1818	 9.41184330129125E-02 
1819	 9.51265066811919E-02 
1820	 9.72596551894429E-02 
1821	 9.74132333938743E-02 
1822	 9.46657828908794E-02 
1823	 9.34715816383561E-02 
1824	 9.12274772631886E-02 
1825	 9.02059229795194E-02 
1826	 8.91492831661142E-02 
1827	 8.98898890553604E-02 
1828	 9.25617599418538E-02 
1829	 0.101492535386882 
1830	 0.103156577490482 
1831	 0.103135981605365 
1832	 0.103050820652644 
1833	 0.088190224496465 
1834	 0.076699962316086 
1835	 7.47037650638632E-02 
1836	 6.52062255372041E-02 
1837	 5.11915237797572E-02 
1838	 0.034369954635581 
1839	 1.77015065855121E-02 
1840	-6.34238666793893E-03 
1841	 9.26818438609209E-03 
1842	 5.65020353048195E-02 
1843	 7.38212564127692E-02 
1844	 0.122448273737194 
1845	 0.130184730804759 
1846	 0.068552551180435 
1847	 6.16877065472869E-02 
1848	 6.90717403689975E-02 
1849	 0.100955216117223 
1850	 9.58905558242475E-02 
1851	 0.103264305800816 
1852	 9.52191013657514E-02 
1853	 4.02306406352741E-02 
1854	 2.30205288106932E-02 
1855	 2.07330972274273E-02 
1856	 3.00388775937392E-02 
1857	 5.78958226520359E-02 
1858	 7.66743264479495E-02 
1859	 8.61920274064365E-02 
1860	 0.110017489885882 
1861	 0.104813784987609 
1862	 6.83283612721827E-02 
1863	 5.87477730744658E-02 
1864	 4.43522040489004E-02 
1865	 4.27653375192853E-02 
1866	 7.03239714701897E-02 
1867	 7.13607846433872E-02 
1868	 0.075358833059445 
1869	 7.83326548014811E-02 
1870	 7.69772229610158E-02 
1871	 6.03436952288673E-02 
1872	 5.76419047685253E-02 
1873	 4.78509085963067E-02 
1874	 6.36242692772161E-02 
1875	 0.106969432864173 
1876	 0.112774609477195 
1877	 0.113142260775667 
1878	 0.109358122347275 
1879	 0.10698150943151 
1880	 9.48271681158181E-02 
1881	 9.45369273779379E-02 
1882	 0.107534341944188 
1883	 0.10814371422267 
1884	 0.105505848541203 
1885	 0.102374595707532 
1886	 9.56426740081349E-02 
1887	 8.95803589323326E-02 
1888	 0.087824022436008 
1889	 0.081167162393191 
1890	 8.26470614601645E-02 
1891	 9.41338166886691E-02 
1892	 9.49295068514537E-02 
1893	 9.50988678179903E-02 
1894	 9.53701247621827E-02 
1895	 8.55613363072115E-02 
1896	 8.11702163929932E-02 
1897	 8.26867737871143E-02 
1898	 8.17323349737517E-02 
1899	 7.31993766525232E-02 
1900	 7.33325192803825E-02 
1901	 0.074430361834517 
1902	 7.66965167370443E-02 
1903	 0.077357597331784 
1904	 8.98896815136817E-02 
1905	 9.00169560870136E-02 
1906	 0.067551723154911 
1907	 7.50169868465664E-02 
1908	 0.091027767876476 
1909	 8.26470010196377E-02 
1910	 9.03217885172881E-02 
1911	 9.39924784857996E-02 
1912	 9.01178130836724E-02 
1913	 8.03821111454868E-02 
1914	 8.00112098807029E-02 
1915	 7.96324026111013E-02 
1916	 7.93622333231099E-02 
1917	 0.081721933031451 
1918	 8.19563452979691E-02 
1919	 8.16571157204636E-02 
1920	 8.06555733693028E-02 
1921	 7.91925092726104E-02 
1922	 8.11022713798717E-02 
1923	 8.16991045396846E-02 
1924	 8.18422780789633E-02 
1925	 8.23420355874465E-02 
1926	 8.29306832710671E-02 
1927	 8.41074890485052E-02 
1928	 8.62287598376324E-02 
1929	 8.70096829075149E-02 
1930	 8.75448985905233E-02 
1931	 0.08719119497751 
1932	 8.59199468477713E-02 
1933	 8.57899901404803E-02 
1934	 8.61968483313969E-02 
1935	 8.79406317925228E-02 
1936	 8.82863740373955E-02 
1937	 8.83534122482027E-02 
1938	 8.81769109211422E-02 
1939	 8.74861863859535E-02 
1940	 8.69421802560069E-02 
1941	 8.67926838779546E-02 
1942	 8.78476097761043E-02 
1943	 8.90629330371362E-02 
1944	 8.96386580527219E-02 
1945	 8.92834294587758E-02 
1946	 8.88107895052536E-02 
1947	 8.88995976992439E-02 
1948	 8.90361163947844E-02 
1949	 8.90314487070189E-02 
1950	 8.94400927949799E-02 
1951	 8.94627333095213E-02 
1952	 8.98753189013876E-02 
1953	 0.090761369096131 
1954	 9.07049151111114E-02 
1955	 9.15621495987313E-02 
1956	 9.22328380859443E-02 
1957	 9.23341557555905E-02 
1958	 9.25526521259839E-02 
1959	 9.33666565285434E-02 
1960	 0.093499323341792 
1961	 9.31157902578292E-02 
1962	 9.27092051329717E-02 
1963	 0.092951535047972 
1964	 9.30458559181833E-02 
1965	 9.28417318866826E-02 
1966	 9.26148261017982E-02 
1967	 9.24166816259067E-02 
1968	 9.23645119057118E-02 
1969	 0.092384934386632 
1970	 9.26718052974133E-02 
1971	 0.092911154762049 
1972	 9.31956044486483E-02 
1973	 9.33543437708399E-02 
1974	 9.32985512558414E-02 
1975	 9.30984292440593E-02 
1976	 0.092914636641706 
1977	 9.26146493455701E-02 
1978	 9.26525859123585E-02 
1979	 9.28822150198631E-02 
1980	 9.28738345026906E-02 
1981	 9.29530883065758E-02 
1982	 9.30108891415599E-02 
1983	 9.29991264111783E-02 
1984	 9.30319624983298E-02 
1985	 9.34432916294624E-02 
1986	 9.35187280679127E-02 
1987	 9.35859064378945E-02 
1988	 9.38727676750418E-02 
1989	 9.35482872683273E-02 
1990	 9.34117396217771E-02 
1991	 9.38348621513212E-02 
1992	 9.40415565251745E-02 
1993	 9.42315425403395E-02 
1994	 9.45753110705748E-02 
1995	 9.47564321262993E-02 
1996	 9.45543965767217E-02 
1997	 9.44573592041165E-02 
1998	 0.094941143193716 
1999	 9.49645077823735E-02 
2000	 9.44783630482309E-02 
2001	 0.093963969745541 
2002	 9.35204870206905E-02 
2003	 9.34042342988715E-02 
2004	 9.39722455633067E-02 
2005	 9.45737525451974E-02 
2006	 9.47322532538209E-02 
2007	 9.45103957574958E-02 
2008	 9.38474327074029E-02 
2009	 9.32321806509252E-02 
2010	 9.35673353603257E-02 
2011	 9.37234801174771E-02 
2012	 9.36669907769009E-02 
2013	 0.093807855144442 
2014	 9.30889604090929E-02 
2015	 9.24766391607455E-02 
2016	 0.092451318343227 
2017	 0.092477347404108 
2018	 9.27785601389557E-02 
2019	 9.28871254499692E-02 
2020	 9.29075537490408E-02 
2021	 9.28990642939678E-02 
2022	 9.28095341151825E-02 
2023	 0.092802978533318 
2024	 9.30652459148511E-02 
2025	 9.31413965801495E-02 
2026	 0.093462579528813 
2027	 9.36378674039171E-02 
2028	 9.38058208400156E-02 
2029	 9.41391273531855E-02 
2030	 9.40541417211097E-02 
2031	 9.41403876783032E-02 
2032	 9.42131883331176E-02 
2033	 0.094164586162097 
2034	 9.39932828350685E-02 
2035	 9.42252558780693E-02 
2036	 9.43719842637373E-02 
2037	 9.44205366719205E-02 
2038	 0.094527828329517 
2039	 9.42813249241409E-02 
2040	 9.38496710822292E-02 
2041	 9.35195702766437E-02 
2042	 9.32176701535192E-02 
2043	 9.33887423602071E-02 
2044	 9.38125451689234E-02 
2045	 9.40915020328239E-02 
2046	 9.44759323639371E-02 
2047	 9.47791689157892E-02 
2048	 9.46481325669859E-02 
2049	 9.47225416844873E-02 
2050	 9.47997258001517E-02 
2051	 9.47264882843742E-02 
2052	 9.50581444954374E-02 
2053	 9.47614418907119E-02 
2054	 9.43632155720862E-02 
2055	 9.41158605157098E-02 
2056	 9.34154547080694E-02 
2057	 9.34100970528175E-02 
2058	 9.36307621140827E-02 
2059	 0.093666514200931 
2060	 9.36014566552293E-02 
2061	 9.41234641473657E-02 
2062	 0.094659332944935 
2063	 9.47204232016287E-02 
2064	 9.49011689440718E-02 
2065	 9.50174310302114E-02 
2066	 9.46688786930389E-02 
2067	 9.45822886759487E-02 
2068	 9.48525156661957E-02 
2069	 0.094780470347539 
2070	 9.46631568149186E-02 
2071	 9.45539719244772E-02 
2072	 9.43650076572577E-02 
2073	 9.39477656291868E-02 
2074	 9.40507231836956E-02 
2075	 9.41556739699169E-02 
2076	 9.40669088991568E-02 
2077	 0.094297859466943 
2078	 9.41587334890053E-02 
2079	 9.41981411680321E-02 
2080	 9.44733310938844E-02 
2081	 9.41816830263168E-02 
2082	 9.40630242430339E-02 
2083	 9.41467805436847E-02 
2084	 9.39565850747602E-02 
2085	 9.38547327192556E-02 
2086	 9.38415168890601E-02 
2087	 0.093901563873515 
2088	 9.38097771497644E-02 
2089	 9.38882857826233E-02 
2090	 9.41311772944035E-02 
2091	 9.43513272553243E-02 
2092	 9.45352751453879E-02 
2093	 0.094311761234351 
2094	 9.39372098031485E-02 
2095	 9.37900253637193E-02 
2096	 0.093315363885123 
2097	 9.27662360682609E-02 
2098	 9.27895796499191E-02 
2099	 9.29988423089745E-02 
2100	 9.32737103120704E-02 
2101	 9.37675956139505E-02 
2102	 0.093922862206754 
2103	 9.39155275763044E-02 
2104	 0.093651030570286 
2105	 9.36147279807985E-02 
2106	 9.35090706293244E-02 
2107	 9.33910734143426E-02 
2108	 9.36928280409147E-02 
2109	 0.093871496883577 
2110	 9.40671301972909E-02 
2111	 9.45939524598469E-02 
2112	 9.46681789754786E-02 
2113	 9.45493341317221E-02 
2114	 9.44599183194253E-02 
2115	 9.43812245855568E-02 
2116	 9.42659411948187E-02 
2117	 9.42071509797941E-02 
2118	 9.42595378678951E-02 
2119	 9.43065341476766E-02 
2120	 9.42513754704381E-02 
2121	 0.094517386146966 
2122	 9.46981272269537E-02 
2123	 9.45322191547654E-02 
2124	 9.43688587364287E-02 
2125	 9.39807868656974E-02 
2126	 9.37627022939513E-02 
2127	 9.37803513053583E-02 
2128	 9.37731344298357E-02 
2129	 9.39324179242305E-02 
2130	 9.40098223605988E-02 
2131	 9.36608601789534E-02 
2132	 9.35377225043207E-02 
2133	 9.35584443276929E-02 
2134	 9.35843987621582E-02 
2135	 9.36323997108918E-02 
2136	 9.41217573777956E-02 
2137	 0.094289984792384 
2138	 9.40406445579607E-02 
2139	 9.39743715225399E-02 
2140	 9.37726403390252E-02 
2141	 9.34500729640106E-02 
2142	 9.33930044234891E-02 
2143	 9.34748359167854E-02 
2144	 9.34156838503586E-02 
2145	 9.31887321249267E-02 
2146	 9.31621480635428E-02 
2147	 9.31707383703772E-02 
2148	 9.30107413725657E-02 
2149	 9.31624010766628E-02 
2150	 0.093277913066839 
2151	 0.093190747423124 
2152	 9.28692377375543E-02 
2153	 9.27399440962357E-02 
2154	 9.26008596057092E-02 
2155	 9.22897419321578E-02 
2156	 9.22606539553777E-02 
2157	 9.19339968059519E-02 
2158	 0.091456709637477 
2159	 9.13893150821486E-02 
2160	 9.12894117057488E-02 
2161	 9.11555354334645E-02 
2162	 9.12022441850474E-02 
2163	 0.091007675925361 
2164	 0.090776641650515 
2165	 0.091044474690286 
2166	 9.10080103298837E-02 
2167	 9.10918372029927E-02 
2168	 9.11573570289635E-02 
2169	 9.10612818065273E-02 
2170	 9.07790575518358E-02 
2171	 9.05076040987391E-02 
2172	 9.02505032767116E-02 
2173	 8.96347110714134E-02 
2174	 8.95444114590442E-02 
2175	 8.93916492880229E-02 
2176	 8.91857959444784E-02 
2177	 8.91657485878557E-02 
2178	 8.90057534565575E-02 
2179	 8.93170750522042E-02 
2180	 0.0896768333781 
2181	 0.089640816873265 
2182	 8.97207151655162E-02 
2183	 8.93569752122147E-02 
2184	 8.86555139309842E-02 
2185	 8.85277313596508E-02 
2186	 8.89272073923027E-02 
2187	 8.90818255442588E-02 
2188	 8.94926971553345E-02 
2189	 8.96491336331787E-02 
2190	 8.98077673708583E-02 
2191	 8.91972648569257E-02 
2192	 8.87179614065468E-02 
2193	 8.87948108713586E-02 
2194	 8.84148467968238E-02 
2195	 8.83148817411332E-02 
2196	 8.84270384453305E-02 
2197	 8.79600873966887E-02 
2198	 0.088003706191434 
2199	 8.84925294939768E-02 
2200	 8.86467187832996E-02 
2201	 0.08866513875134 
2202	 8.86009911575941E-02 
2203	 8.82253092442005E-02 
2204	 8.80012297983887E-02 
2205	 8.81848742125452E-02 
2206	 8.79356187643441E-02 
2207	 8.76251708251876E-02 
2208	 8.76135217356805E-02 
2209	 8.77359373927221E-02 
2210	 8.77412139407904E-02 
2211	 0.088024096273525 
2212	 0.087959778100571 
2213	 8.77725996180599E-02 
2214	 8.74228299050489E-02 
2215	 8.70509546540763E-02 
2216	 8.70053509647792E-02 
2217	 8.67070172692778E-02 
2218	 8.63607244440217E-02 
2219	 8.64217676139598E-02 
2220	 8.64149942575146E-02 
2221	 8.64940757664088E-02 
2222	 8.67366499004613E-02 
2223	 8.65856952864155E-02 
2224	 8.63136743709528E-02 
2225	 8.62987023282904E-02 
2226	 0.086215896190192 
2227	 8.60544791335387E-02 
2228	 8.61549015802395E-02 
2229	 8.59751955331289E-02 
2230	 8.57573619506116E-02 
2231	 8.56095367121691E-02 
2232	 8.52527722137736E-02 
2233	 8.53181519760287E-02 
2234	 8.57552421455869E-02 
2235	 8.59390165936224E-02 
2236	 8.61468391049075E-02 
2237	 0.086632955987609 
2238	 8.65420969850564E-02 
2239	 8.64052251677141E-02 
2240	 8.64106466155451E-02 
2241	 8.64938330069649E-02 
2242	 8.66301385164727E-02 
2243	 8.67110355050677E-02 
2244	 8.67176895733022E-02 
2245	 8.61055269239815E-02 
2246	 8.55116839790863E-02 
2247	 8.54389913640997E-02 
2248	 8.56965376731774E-02 
2249	 8.60471266168501E-02 
2250	 8.60758412452203E-02 
2251	 8.63695574185958E-02 
2252	 8.61378152780779E-02 
2253	 8.54411559978448E-02 
2254	 8.53319930171386E-02 
2255	 8.50441693535473E-02 
2256	 8.48133570908683E-02 
2257	 8.46154142006006E-02 
2258	 8.46348328740637E-02 
2259	 8.43930584021158E-02 
2260	 8.42746871160157E-02 
2261	 8.40162684088929E-02 
2262	 8.42283745864813E-02 
2263	 8.45401005899583E-02 
2264	 8.39531203225304E-02 
2265	 8.36734787924184E-02 
2266	 8.36223516062092E-02 
2267	 8.37814258716553E-02 
2268	 8.43830431564809E-02 
2269	 8.44521591940257E-02 
2270	 8.42727774174165E-02 
2271	 8.42320259495567E-02 
2272	 8.42742727216178E-02 
2273	 8.43184757005635E-02 
2274	 8.47462153132953E-02 
2275	 8.47721701774187E-02 
2276	 8.39404684538812E-02 
2277	 0.083737966643487 
2278	 8.35214743251472E-02 
2279	 8.26759030517473E-02 
2280	 8.22551828860014E-02 
2281	 8.22345237685989E-02 
2282	 8.20480666179273E-02 
2283	 8.22767530544855E-02 
2284	 8.32245246998567E-02 
2285	 8.37118679217554E-02 
2286	 8.39383640756056E-02 
2287	 8.38782889305897E-02 
2288	 8.39545411786128E-02 
2289	 8.37879492959558E-02 
2290	 8.35807059492586E-02 
2291	 8.31668385791052E-02 
2292	 8.27076864759211E-02 
2293	 8.19332699201593E-02 
2294	 8.13995263168766E-02 
2295	 8.23554997925464E-02 
2296	 8.25788112285425E-02 
2297	 8.27756506231711E-02 
2298	 8.34785966856197E-02 
2299	 8.26886729800362E-02 
2300	 8.23822278171675E-02 
2301	 8.22405304396203E-02 
2302	 8.15547068887942E-02 
2303	 8.11709423420808E-02 
2304	 8.12112711186535E-02 
2305	 8.21520860788791E-02 
2306	 0.082936548430467 
2307	 8.32054078118278E-02 
2308	 8.32263058024852E-02 
2309	 0.082564470749627 
2310	 8.21566545321023E-02 
2311	 8.24661668841416E-02 
2312	 8.27253594566231E-02 
2313	 0.08272488840798 
2314	 8.26797685959801E-02 
2315	 8.23659839290145E-02 
2316	 8.18767041175724E-02 
2317	 8.18848651528477E-02 
2318	 8.18587688579288E-02 
2319	 8.22777855452097E-02 
2320	 0.082790659435904 
2321	 8.27479189611787E-02 
2322	 8.23666327773294E-02 
2323	 8.23515228407904E-02 
2324	 8.20405725206283E-02 
2325	 0.081602462847616 
2326	 8.20823772922408E-02 
2327	 8.16352526658711E-02 
2328	 0.080954992073214 
2329	 8.10722571261227E-02 
2330	 8.09062638747169E-02 
2331	 0.082011562804682 
2332	 8.30501863327263E-02 
2333	 8.24776430026306E-02 
2334	 8.26976064243962E-02 
2335	 0.082587674902077 
2336	 8.17682095472114E-02 
2337	 8.19810375957657E-02 
2338	 8.19922353064406E-02 
2339	 8.10131375005211E-02 
2340	 8.05545083638969E-02 
2341	 8.05603723273356E-02 
2342	 8.02781410466384E-02 
2343	 8.00425773387086E-02 
2344	 8.00843930037325E-02 
2345	 8.08331504570992E-02 
2346	 0.08157269593097 
2347	 8.28680317119135E-02 
2348	 8.36458785493775E-02 
2349	 8.24770050243855E-02 
2350	 8.17183242966156E-02 
2351	 8.02772974251591E-02 
2352	 7.85942078786437E-02 
2353	 7.81688756987307E-02 
2354	 7.79417435199908E-02 
2355	 7.81962635186924E-02 
2356	 0.077843746922316 
2357	 7.70602824826513E-02 
2358	 0.076998402206705 
2359	 7.76621786080883E-02 
2360	 7.85209146816346E-02 
2361	 7.99216473077903E-02 
2362	 8.14027976065941E-02 
2363	 0.08181397523945 
2364	 8.19677823194187E-02 
2365	 8.14804183276585E-02 
2366	 0.08131567920875 
2367	 8.08641294635304E-02 
2368	 7.91592289814844E-02 
2369	 7.76133895835484E-02 
2370	 7.65716078144737E-02 
2371	 7.68608332472624E-02 
2372	 7.74531098384846E-02 
2373	 8.10518403785035E-02 
2374	 8.18221559647608E-02 
2375	 0.080449052301545 
2376	 7.98315544933374E-02 
2377	 7.81722458783062E-02 
2378	 7.77069626577143E-02 
2379	 7.86336529842804E-02 
2380	 7.89842419797203E-02 
2381	 7.89171761688261E-02 
2382	 7.97622512588702E-02 
2383	 0.082561525024679 
2384	 8.22416827170262E-02 
2385	 8.08365005987647E-02 
2386	 7.89103290348389E-02 
2387	 7.26100808345835E-02 
2388	 7.00566219991951E-02 
2389	 7.00993829601058E-02 
2390	 6.98737742327871E-02 
2391	 7.04278872227251E-02 
2392	 7.20448987812533E-02 
2393	 7.50396439780836E-02 
2394	 7.65168049327844E-02 
2395	 7.95841049132081E-02 
2396	 8.07520378414445E-02 
2397	 0.078482401951407 
2398	 7.83431782150996E-02 
2399	 7.88826185676122E-02 
2400	 7.83629134020606E-02 
2401	 7.77054264966744E-02 
2402	 7.83794894333031E-02 
2403	 7.82806467447161E-02 
2404	 0.077206236621148 
2405	 7.82994450630112E-02 
2406	 7.81843878879755E-02 
2407	 7.57745577878613E-02 
2408	 7.27706068966682E-02 
2409	 6.98702659450685E-02 
2410	 0.069631805696211 
2411	 7.11866050600831E-02 
2412	 7.36580010076321E-02 
2413	 7.56578184412318E-02 
2414	 7.54770876151145E-02 
2415	 7.42253675588449E-02 
2416	 0.075422314606605 
2417	 7.61172156372382E-02 
2418	 7.55656502703707E-02 
2419	 0.075167129316361 
2420	 7.32432096573384E-02 
2421	 7.49046041362172E-02 
2422	 7.54063840811058E-02 
2423	 7.43168886972724E-02 
2424	 0.074765616412607 
2425	 7.16483359986785E-02 
2426	 7.02389566992012E-02 
2427	 7.07349452607635E-02 
2428	 7.01422677055959E-02 
2429	 6.95326731643041E-02 
2430	 6.87170153349018E-02 
2431	 6.76408069105923E-02 
2432	 6.44808570659062E-02 
2433	 6.47442659588805E-02 
2434	 6.47581788208839E-02 
2435	 6.73585992262849E-02 
2436	 6.83058657536762E-02 
2437	 6.54879144385071E-02 
2438	 6.53869280281933E-02 
2439	 6.80096154868655E-02 
2440	 6.77110477230746E-02 
2441	 6.70342708685829E-02 
2442	 6.79409168657096E-02 
2443	 6.68418803364447E-02 
2444	 6.53510923861134E-02 
2445	 6.45299313716428E-02 
2446	 6.71301640633585E-02 
2447	 7.17373107545407E-02 
2448	 7.48567546180271E-02 
2449	 8.23426045313498E-02 
2450	 8.41755557739825E-02 
2451	 7.98532316731698E-02 
2452	 7.66967395479225E-02 
2453	 0.072004956353555 
2454	 7.05834260418599E-02 
2455	 6.95327105977836E-02 
2456	 6.80665842444383E-02 
2457	 6.77287340256399E-02 
2458	 0.067790171100385 
2459	 0.067732815797152 
2460	 6.79457928505965E-02 
2461	 7.01805570276495E-02 
2462	 7.18375791093887E-02 
2463	 7.16487386071712E-02 
2464	 7.30926502919082E-02 
2465	 7.84557758678853E-02 
2466	 7.75641924587032E-02 
2467	 7.10290410317528E-02 
2468	 6.90623699668857E-02 
2469	 6.42065062414182E-02 
2470	 0.064036978191294 
2471	 7.69287208995033E-02 
2472	 7.47191146076503E-02 
2473	 5.95576786089157E-02 
2474	 5.59522169093917E-02 
2475	 0.045988563264488 
2476	 4.41308959206599E-02 
2477	 6.09565924412734E-02 
2478	 7.08818401463333E-02 
2479	 8.18611635306842E-02 
2480	 8.61865591500011E-02 
2481	 8.89125200517892E-02 
2482	 8.66875733479386E-02 
2483	 6.22227215196254E-02 
2484	 5.74702078726689E-02 
2485	 6.34382293795881E-02 
2486	 0.092394762737238 
2487	 0.122716556349336 
2488	 0.124167079595635 
2489	 0.116551997464129 
2490	 0.099190199571951 
2491	 7.58869096968057E-02 
2492	 7.97339507446316E-02 
2493	 0.107931289992623 
2494	 0.100110917243408 
2495	 0.077684665980402 
2496	 7.13214609275629E-02 
2497	 0.044383486572221 
2498	 3.01486646612443E-02 
2499	 4.64951634278094E-02 
2500	 7.17562404244149E-02 
