Wavelength	ref00096.asd
350	 0.174396231768976 
351	 0.174931284888695 
352	 0.175562337397764 
353	 0.176853176067197 
354	 0.177740991975921 
355	 0.178420153336157 
356	 0.179097935049846 
357	 0.179456635874992 
358	 0.180168410597572 
359	 0.181384606907009 
360	 0.182854746810341 
361	 0.183624547445489 
362	 0.183964078071659 
363	 0.184571838918531 
364	 0.186143253976632 
365	 0.187025015180397 
366	 0.187463477119976 
367	 0.188014086222153 
368	 0.189294783250887 
369	 0.190382098397883 
370	 0.19137703492677 
371	 0.192528814006548 
372	 0.193764400259787 
373	 0.194745572702045 
374	 0.195510150749414 
375	 0.19629698345298 
376	 0.197170016821958 
377	 0.198283227750444 
378	 0.199496706461274 
379	 0.200336537159426 
380	 0.201222814924094 
381	 0.20234527142864 
382	 0.203651866017313 
383	 0.204595609028018 
384	 0.20567698852375 
385	 0.206805492398206 
386	 0.207703179135293 
387	 0.208756094206893 
388	 0.209665503665212 
389	 0.210356542592799 
390	 0.211045673973019 
391	 0.212159860704867 
392	 0.213246236229783 
393	 0.214035001220808 
394	 0.214993211663986 
395	 0.216222472268409 
396	 0.217328679902465 
397	 0.217933147489759 
398	 0.218679828260961 
399	 0.219395466218241 
400	 0.220090751312274 
401	 0.22093982365777 
402	 0.221735743581729 
403	 0.222444238014715 
404	 0.223142523589712 
405	 0.224106820475083 
406	 0.224867297402424 
407	 0.225492648449878 
408	 0.226238924348558 
409	 0.227295014902705 
410	 0.228173119988194 
411	 0.228837912011863 
412	 0.229670902539068 
413	 0.230680856502077 
414	 0.231573423318881 
415	 0.232282955685898 
416	 0.233328837521798 
417	 0.234286113722644 
418	 0.235095698900024 
419	 0.235851676486359 
420	 0.236727191003771 
421	 0.237595212729485 
422	 0.238438414306488 
423	 0.239331326689306 
424	 0.239887282973986 
425	 0.240648424999928 
426	 0.241820237695437 
427	 0.242543425107665 
428	 0.243388560626218 
429	 0.244277997353932 
430	 0.245024141910085 
431	 0.246088824641477 
432	 0.246930216689471 
433	 0.247500912908896 
434	 0.248212614898183 
435	 0.249011229613201 
436	 0.249807907018314 
437	 0.250553238604672 
438	 0.25129709633326 
439	 0.252008627257597 
440	 0.252726640327584 
441	 0.253469967956072 
442	 0.25399938539875 
443	 0.254701767561393 
444	 0.255535549278491 
445	 0.256057717682534 
446	 0.256750924639745 
447	 0.257465723504159 
448	 0.25804017805777 
449	 0.258549527585501 
450	 0.259121049922939 
451	 0.259682924169792 
452	 0.260131818966225 
453	 0.260781221813811 
454	 0.261425124833132 
455	 0.261981206579085 
456	 0.262559343666766 
457	 0.263165010986022 
458	 0.263682424483123 
459	 0.264078426879763 
460	 0.26464050003731 
461	 0.265211260174358 
462	 0.265734875288603 
463	 0.266218085385961 
464	 0.266700544688013 
465	 0.267236865836772 
466	 0.267808989154792 
467	 0.2682898452161 
468	 0.268834603316631 
469	 0.269354095121349 
470	 0.269773602306562 
471	 0.270343410481714 
472	 0.270900999201566 
473	 0.271369176087634 
474	 0.271755913835584 
475	 0.272225920611973 
476	 0.272730956803548 
477	 0.273211926711919 
478	 0.273642945164853 
479	 0.274154188114311 
480	 0.274707844712192 
481	 0.275207661463647 
482	 0.275576836901283 
483	 0.276052248457086 
484	 0.276634566840158 
485	 0.277086692174915 
486	 0.277643008835775 
487	 0.278217416905002 
488	 0.278710507280045 
489	 0.279158016764856 
490	 0.27959518372833 
491	 0.280055022375369 
492	 0.280553880790001 
493	 0.28099053576245 
494	 0.281498271511465 
495	 0.282055275628861 
496	 0.282434362959688 
497	 0.282895387453805 
498	 0.28340537828772 
499	 0.28388570997427 
500	 0.284358309962137 
501	 0.284829195177046 
502	 0.285297631117844 
503	 0.285757005661966 
504	 0.286184658510594 
505	 0.286581563568251 
506	 0.286999749591334 
507	 0.287577662192795 
508	 0.287981102228003 
509	 0.288346804242797 
510	 0.288879311099971 
511	 0.289377747511198 
512	 0.289911991844215 
513	 0.290421194119553 
514	 0.290757298525335 
515	 0.291353449448861 
516	 0.291992554717726 
517	 0.292500117619771 
518	 0.293123195427527 
519	 0.293582426539766 
520	 0.293979378837272 
521	 0.294509729254783 
522	 0.294942412113134 
523	 0.295393638112065 
524	 0.295875197811683 
525	 0.29625592158198 
526	 0.296674688870731 
527	 0.297156005863599 
528	 0.297665645029835 
529	 0.298084198079492 
530	 0.298464820076898 
531	 0.298844234010078 
532	 0.299246923459553 
533	 0.299651736822714 
534	 0.300064236762708 
535	 0.300467030458891 
536	 0.300802553399526 
537	 0.301151741992434 
538	 0.301513447164216 
539	 0.301875000576427 
540	 0.302303119775839 
541	 0.3027048559606 
542	 0.303029810650206 
543	 0.303281784857527 
544	 0.303623514442418 
545	 0.303967056744788 
546	 0.304251653767412 
547	 0.304585166745468 
548	 0.304865874653769 
549	 0.305094634015735 
550	 0.305324772532674 
551	 0.305650553659747 
552	 0.305902748312191 
553	 0.306067083352772 
554	 0.306333702746183 
555	 0.30654641716367 
556	 0.306767711562164 
557	 0.307045318065451 
558	 0.307182103550815 
559	 0.307441513401584 
560	 0.307730644458706 
561	 0.307773035407636 
562	 0.307956235244243 
563	 0.30819220510167 
564	 0.308365938884025 
565	 0.308408515941034 
566	 0.308621314518578 
567	 0.308840891491141 
568	 0.308852647409748 
569	 0.309016694149677 
570	 0.30915436169264 
571	 0.309217832667274 
572	 0.309301995304664 
573	 0.309392135548146 
574	 0.309484102498642 
575	 0.309575425200247 
576	 0.309672868585636 
577	 0.309706412263983 
578	 0.309675011719593 
579	 0.309618585284302 
580	 0.309568530610976 
581	 0.309590169222216 
582	 0.30963661451188 
583	 0.309513843036961 
584	 0.309533848302045 
585	 0.30960520465378 
586	 0.309590745055807 
587	 0.30961551990179 
588	 0.309602841030038 
589	 0.309579903106671 
590	 0.309632090720298 
591	 0.309550604374451 
592	 0.309470196599225 
593	 0.309459398214703 
594	 0.309383296359525 
595	 0.309310480169336 
596	 0.309221350228074 
597	 0.309091128124392 
598	 0.309012434486052 
599	 0.308932410812231 
600	 0.308858220365792 
601	 0.308857545208422 
602	 0.308808814407732 
603	 0.30875425828716 
604	 0.308728217653039 
605	 0.308648047258431 
606	 0.308594378309185 
607	 0.308550115562552 
608	 0.30846293056206 
609	 0.308404820049607 
610	 0.308370344332512 
611	 0.308335516220376 
612	 0.308261873451881 
613	 0.308204920307306 
614	 0.308176743808484 
615	 0.308167307980919 
616	 0.308146192316579 
617	 0.308028279094684 
618	 0.307895455909405 
619	 0.307916164752281 
620	 0.3078576603046 
621	 0.307785035036726 
622	 0.307753537677141 
623	 0.307721919565016 
624	 0.307689528551075 
625	 0.307641680656024 
626	 0.307565633489174 
627	 0.30746977777276 
628	 0.307397784975166 
629	 0.307351289017246 
630	 0.307293408676542 
631	 0.307285382732669 
632	 0.307280270874345 
633	 0.307223391773038 
634	 0.30707673056515 
635	 0.307042659446606 
636	 0.307057452736647 
637	 0.306967199484089 
638	 0.306947878502414 
639	 0.306896237706245 
640	 0.306808010051243 
641	 0.306831682558426 
642	 0.306825174509198 
643	 0.306741399369007 
644	 0.306613322379487 
645	 0.306653431223112 
646	 0.306630400018997 
647	 0.306565274774845 
648	 0.306612294266102 
649	 0.306584148294985 
650	 0.306498076614425 
651	 0.306425538018538 
652	 0.306481722436081 
653	 0.306394195351363 
654	 0.306308321931339 
655	 0.306397230377428 
656	 0.306373275401589 
657	 0.306301742909322 
658	 0.306256318824291 
659	 0.306274550322223 
660	 0.306221709327995 
661	 0.306163220575051 
662	 0.306159378663828 
663	 0.306218168714255 
664	 0.306147197913829 
665	 0.305994712887104 
666	 0.305896757615329 
667	 0.305931842927162 
668	 0.30593816061603 
669	 0.305899507647924 
670	 0.305932520407783 
671	 0.305852325895184 
672	 0.305847014138789 
673	 0.305980751084262 
674	 0.305867541626855 
675	 0.30578439346324 
676	 0.305745000448041 
677	 0.30567789910902 
678	 0.305632502426461 
679	 0.30554856919729 
680	 0.305436290345298 
681	 0.305383279249485 
682	 0.305389870103829 
683	 0.305418303778134 
684	 0.305430522202533 
685	 0.305403591521185 
686	 0.305458745555897 
687	 0.305450059926618 
688	 0.305181717900295 
689	 0.305193917257254 
690	 0.305176314653444 
691	 0.305025784382697 
692	 0.304928235577982 
693	 0.304965243273941 
694	 0.305004290997375 
695	 0.30492862403678 
696	 0.304773256579335 
697	 0.304852009228097 
698	 0.304884042027578 
699	 0.304462282258229 
700	 0.304376372627153 
701	 0.304422001312914 
702	 0.304393268145603 
703	 0.304201761223816 
704	 0.304078491485798 
705	 0.303986640354764 
706	 0.303862321173681 
707	 0.303735209773065 
708	 0.303656045954496 
709	 0.303605164136779 
710	 0.303533180897317 
711	 0.303447580795939 
712	 0.303396286996355 
713	 0.303353327273282 
714	 0.303208541862048 
715	 0.303009212719975 
716	 0.302941183672519 
717	 0.303076669838738 
718	 0.303072097942608 
719	 0.302870317867139 
720	 0.302662001832947 
721	 0.302658863661927 
722	 0.302398536140778 
723	 0.302256142581376 
724	 0.302278136290911 
725	 0.302132978251513 
726	 0.302040239706562 
727	 0.301936346061818 
728	 0.301775091537536 
729	 0.301698198315469 
730	 0.301594059760989 
731	 0.301452430949409 
732	 0.301292430725312 
733	 0.301052515863393 
734	 0.300894859323041 
735	 0.300823938539538 
736	 0.300702685637708 
737	 0.300543103104442 
738	 0.300385621340385 
739	 0.300263530196746 
740	 0.300200178476507 
741	 0.299985251818003 
742	 0.299788221057518 
743	 0.299795190927241 
744	 0.29963958855692 
745	 0.299462739462921 
746	 0.299300708041157 
747	 0.299103580239206 
748	 0.298921901850633 
749	 0.298786066684589 
750	 0.298690595837946 
751	 0.298578451547528 
752	 0.298445972460924 
753	 0.298291009533257 
754	 0.298121530714539 
755	 0.297971305169442 
756	 0.297784902912995 
757	 0.297621176088947 
758	 0.297580427377802 
759	 0.297508557613363 
760	 0.29739140287125 
761	 0.297236901990987 
762	 0.297116356322502 
763	 0.297036669791655 
764	 0.296854690702655 
765	 0.296543746732176 
766	 0.296301220070405 
767	 0.296015785993141 
768	 0.295767076427175 
769	 0.295630536830367 
770	 0.295391796222026 
771	 0.295197306502235 
772	 0.295036814827105 
773	 0.294772403008545 
774	 0.294565272095734 
775	 0.294445985410065 
776	 0.294342056732103 
777	 0.294042538215654 
778	 0.293825314842176 
779	 0.293672312609188 
780	 0.293492845539581 
781	 0.293253522082279 
782	 0.293027064929423 
783	 0.292856585040428 
784	 0.292743400840442 
785	 0.292555955171395 
786	 0.292366761733404 
787	 0.292180231424584 
788	 0.291923241031232 
789	 0.291852021835867 
790	 0.291732524815933 
791	 0.291444142661805 
792	 0.291298191982873 
793	 0.291164337801906 
794	 0.29094763944236 
795	 0.290616420239429 
796	 0.290325687210424 
797	 0.290146088371457 
798	 0.289986354280346 
799	 0.289697821712706 
800	 0.289471133851581 
801	 0.289330964036961 
802	 0.289210743826294 
803	 0.288967744525257 
804	 0.288662536941154 
805	 0.288413541238249 
806	 0.288244116937274 
807	 0.287953011723252 
808	 0.287779299694126 
809	 0.287591138540704 
810	 0.287253354566767 
811	 0.287098648786128 
812	 0.286859909162416 
813	 0.286557653595915 
814	 0.286376890676126 
815	 0.286304681800506 
816	 0.286126566226448 
817	 0.285879333235384 
818	 0.285846155029121 
819	 0.285529461982043 
820	 0.285221068720027 
821	 0.285047971614373 
822	 0.284640404487192 
823	 0.284400519111931 
824	 0.284209318821175 
825	 0.283909553477779 
826	 0.283645405367584 
827	 0.283480033334815 
828	 0.283290177665065 
829	 0.28295515558524 
830	 0.282808356488397 
831	 0.282635497939098 
832	 0.282302979736047 
833	 0.281818911109177 
834	 0.281599346032797 
835	 0.281439679288404 
836	 0.281221710061126 
837	 0.281019732966045 
838	 0.280724963921727 
839	 0.28046457959097 
840	 0.280306740220731 
841	 0.280123850053298 
842	 0.27971617915216 
843	 0.279357834568824 
844	 0.279261193532063 
845	 0.278947587500091 
846	 0.278624616596904 
847	 0.278318865168076 
848	 0.278000256010328 
849	 0.277793335311983 
850	 0.277499912546298 
851	 0.277181576666639 
852	 0.277048107801621 
853	 0.276715101160129 
854	 0.276509571118255 
855	 0.276423313078058 
856	 0.276039197435537 
857	 0.275817987215187 
858	 0.275646220739551 
859	 0.275384334992125 
860	 0.275011625524328 
861	 0.274908878441099 
862	 0.274677814477951 
863	 0.274098219626548 
864	 0.273920941692158 
865	 0.273672890660926 
866	 0.273289232418529 
867	 0.272868996757306 
868	 0.272577555765527 
869	 0.272151264356748 
870	 0.271729624865882 
871	 0.27157815048858 
872	 0.271606820973244 
873	 0.27137830125876 
874	 0.270954428975367 
875	 0.270705684595802 
876	 0.270322669276725 
877	 0.269797425919784 
878	 0.269337157228098 
879	 0.269251728195161 
880	 0.268925508153834 
881	 0.268559494248483 
882	 0.268284413180831 
883	 0.267967735380261 
884	 0.267603212333243 
885	 0.267352696288379 
886	 0.26716215208396 
887	 0.2665409730657 
888	 0.266289710199715 
889	 0.266074616263804 
890	 0.265602567364955 
891	 0.26546289124215 
892	 0.265144106246691 
893	 0.264723942473669 
894	 0.26441692980828 
895	 0.264203968673446 
896	 0.263877706872349 
897	 0.263498434733854 
898	 0.263186824643613 
899	 0.262682325552207 
900	 0.262536333282027 
901	 0.262335580752845 
902	 0.261493011428981 
903	 0.261307580153938 
904	 0.261152510138609 
905	 0.260739137054311 
906	 0.26012117239382 
907	 0.259604008850545 
908	 0.259147323847073 
909	 0.258710155698342 
910	 0.258282261400709 
911	 0.257900218600256 
912	 0.257585839443677 
913	 0.257278846299197 
914	 0.25686303582905 
915	 0.256429330912857 
916	 0.255867491026615 
917	 0.255235998963596 
918	 0.254781266189359 
919	 0.254410869989212 
920	 0.253956797235226 
921	 0.253568545631345 
922	 0.253719378383895 
923	 0.253449599783558 
924	 0.252940319830892 
925	 0.252542751604054 
926	 0.252487647303466 
927	 0.252055470156307 
928	 0.2514842877161 
929	 0.251149139606782 
930	 0.251219785938137 
931	 0.251126316301108 
932	 0.250551399161434 
933	 0.249832357571139 
934	 0.250417696895844 
935	 0.249230907466024 
936	 0.248501120439378 
937	 0.249206363192896 
938	 0.247371274232635 
939	 0.246826678668583 
940	 0.246412395883154 
941	 0.245219022751528 
942	 0.244877507335985 
943	 0.245804007824813 
944	 0.246107195454847 
945	 0.244985152545988 
946	 0.245279517226164 
947	 0.244582989476024 
948	 0.243459447940958 
949	 0.242722942184028 
950	 0.241985998897149 
951	 0.241760788154762 
952	 0.241314108447874 
953	 0.240576877928838 
954	 0.241367460199039 
955	 0.241502160515019 
956	 0.240666675960616 
957	 0.239539290233464 
958	 0.239578899115857 
959	 0.238867138242619 
960	 0.238111750799104 
961	 0.238052130119397 
962	 0.238286678164381 
963	 0.237345175715364 
964	 0.236493730041705 
965	 0.236375701002762 
966	 0.235585259168597 
967	 0.234975273077882 
968	 0.234416156340274 
969	 0.233955744485454 
970	 0.234148672532763 
971	 0.233834832088574 
972	 0.233421716539244 
973	 0.233108853583468 
974	 0.232381636700606 
975	 0.23158974677287 
976	 0.231775279133313 
977	 0.232396929827223 
978	 0.231139964117607 
979	 0.230684515955634 
980	 0.229949295087244 
981	 0.228768055934587 
982	 0.22845754225362 
983	 0.228452859223906 
984	 0.228869924761636 
985	 0.229062885851108 
986	 0.228058139977301 
987	 0.228057997040849 
988	 0.22770571331042 
989	 0.227274133991746 
990	 0.228017373807729 
991	 0.227372005041549 
992	 0.226475869205892 
993	 0.226331749943882 
994	 0.22710321632143 
995	 0.226689803587509 
996	 0.225485932757159 
997	 0.22472388540102 
998	 0.225191022285795 
999	 0.224572873909018 
1000	 0.2248177645637 
1001	 0.221681897134632 
1002	 0.221501661606286 
1003	 0.221312267015969 
1004	 0.221053970718309 
1005	 0.220919578662863 
1006	 0.22082644016473 
1007	 0.220753773487239 
1008	 0.220740486829134 
1009	 0.22078191994705 
1010	 0.220885382164297 
1011	 0.220946479831343 
1012	 0.221005659210153 
1013	 0.221036700631877 
1014	 0.220988556997335 
1015	 0.220928612639701 
1016	 0.220843185210335 
1017	 0.220861588007988 
1018	 0.220954893367478 
1019	 0.221077679140958 
1020	 0.221231428888694 
1021	 0.221570119400056 
1022	 0.221747892308308 
1023	 0.221830047424437 
1024	 0.22197771827323 
1025	 0.222102283209786 
1026	 0.222279652440391 
1027	 0.222643550490442 
1028	 0.222948556738739 
1029	 0.223265338642845 
1030	 0.223657953914685 
1031	 0.223910937289399 
1032	 0.224203659469435 
1033	 0.224581951916782 
1034	 0.224965823954001 
1035	 0.225413503361591 
1036	 0.226055287979055 
1037	 0.226577187790871 
1038	 0.227037618643707 
1039	 0.227581109642738 
1040	 0.228231074041716 
1041	 0.228781693941385 
1042	 0.229393044228436 
1043	 0.229983207668862 
1044	 0.230588247391799 
1045	 0.231317517422627 
1046	 0.231959356604977 
1047	 0.232618390919331 
1048	 0.233404770505795 
1049	 0.234164123658812 
1050	 0.234927888350008 
1051	 0.235748888188658 
1052	 0.236727342188064 
1053	 0.237595439664171 
1054	 0.238342702873757 
1055	 0.239359242374582 
1056	 0.240432212503443 
1057	 0.241372223146219 
1058	 0.242347839271386 
1059	 0.243186976824386 
1060	 0.244103579068308 
1061	 0.245185326957787 
1062	 0.246259634209854 
1063	 0.247456207419875 
1064	 0.24859298879496 
1065	 0.249672703051734 
1066	 0.250655613855016 
1067	 0.251789789243078 
1068	 0.252925683229577 
1069	 0.25406019723667 
1070	 0.255335350417507 
1071	 0.256560462418178 
1072	 0.257808145718104 
1073	 0.25914672933944 
1074	 0.260498045064263 
1075	 0.261854755064502 
1076	 0.263137110336806 
1077	 0.264421203439888 
1078	 0.265710531220793 
1079	 0.266951495497965 
1080	 0.268255488917329 
1081	 0.26956106357652 
1082	 0.270877457889429 
1083	 0.272130208670259 
1084	 0.2734224017591 
1085	 0.274745003801704 
1086	 0.276045101004286 
1087	 0.277366831030794 
1088	 0.278760591550343 
1089	 0.280164514453817 
1090	 0.281525940071624 
1091	 0.282948050239637 
1092	 0.284406553445482 
1093	 0.285802273542813 
1094	 0.28720458786938 
1095	 0.288594285401526 
1096	 0.290000331264983 
1097	 0.291414617815109 
1098	 0.292812719649374 
1099	 0.294227651609875 
1100	 0.295640604902292 
1101	 0.296968207079449 
1102	 0.298251263334725 
1103	 0.299645275856471 
1104	 0.301014899987091 
1105	 0.302360796607365 
1106	 0.303777012677408 
1107	 0.305070282553495 
1108	 0.306241609181973 
1109	 0.307538452579033 
1110	 0.308901543585904 
1111	 0.310191423424512 
1112	 0.311485877379202 
1113	 0.312876567449986 
1114	 0.314312114388869 
1115	 0.315759890954031 
1116	 0.317227999143381 
1117	 0.319007667294025 
1118	 0.320691687062782 
1119	 0.322246557230486 
1120	 0.324075672106741 
1121	 0.325758067943968 
1122	 0.327293684972393 
1123	 0.328993627841693 
1124	 0.330638132574631 
1125	 0.332238695677636 
1126	 0.333866596159987 
1127	 0.335470819886687 
1128	 0.337064948388044 
1129	 0.338456853311261 
1130	 0.339933717266009 
1131	 0.341461457812558 
1132	 0.342926391288588 
1133	 0.344385436113505 
1134	 0.345739487296395 
1135	 0.346968757238444 
1136	 0.348117747414588 
1137	 0.349141517910797 
1138	 0.350117509551139 
1139	 0.351195827866757 
1140	 0.352256384789477 
1141	 0.353398947364572 
1142	 0.354772315462146 
1143	 0.35619850112276 
1144	 0.357866998568671 
1145	 0.359345059335264 
1146	 0.360802817684138 
1147	 0.362278499166105 
1148	 0.363682475773266 
1149	 0.365017425154964 
1150	 0.366243660157739 
1151	 0.3675323218955 
1152	 0.368697062619267 
1153	 0.36987515059069 
1154	 0.371216620673404 
1155	 0.372495102510178 
1156	 0.373688425661049 
1157	 0.37484759067256 
1158	 0.37596521716673 
1159	 0.377018379673014 
1160	 0.37801692078614 
1161	 0.378959398811532 
1162	 0.379956363094583 
1163	 0.380908137621276 
1164	 0.381907480523292 
1165	 0.383010002561728 
1166	 0.38404764577933 
1167	 0.385134891936756 
1168	 0.386141458592914 
1169	 0.387099965224084 
1170	 0.388070854087356 
1171	 0.389043666792163 
1172	 0.389991105482324 
1173	 0.391061126166128 
1174	 0.392122575773506 
1175	 0.39319314019084 
1176	 0.394239607145115 
1177	 0.395242159253959 
1178	 0.396222391869209 
1179	 0.397193341961664 
1180	 0.398111086984413 
1181	 0.399061034440893 
1182	 0.400015903993138 
1183	 0.400952943365912 
1184	 0.401822762133489 
1185	 0.402795441915025 
1186	 0.403852775271321 
1187	 0.404835991962379 
1188	 0.405811323319146 
1189	 0.406834350877482 
1190	 0.407831300307923 
1191	 0.408754514164279 
1192	 0.409642358768043 
1193	 0.410579828792183 
1194	 0.411508061835931 
1195	 0.412388069707945 
1196	 0.413275449035661 
1197	 0.414217288235684 
1198	 0.415131179734332 
1199	 0.41599881100826 
1200	 0.416890773193557 
1201	 0.417857617881583 
1202	 0.418730187993159 
1203	 0.419496818188474 
1204	 0.420332912039834 
1205	 0.421138663501318 
1206	 0.421962887817342 
1207	 0.422829227387321 
1208	 0.423689916959484 
1209	 0.424521998944698 
1210	 0.425427925201261 
1211	 0.426271221669477 
1212	 0.427037039155969 
1213	 0.427810963741647 
1214	 0.428491677967775 
1215	 0.429299320689267 
1216	 0.430172032428827 
1217	 0.431014833202144 
1218	 0.431927800630949 
1219	 0.432756862816953 
1220	 0.433529213317647 
1221	 0.434328559232533 
1222	 0.435131017987362 
1223	 0.435901984768469 
1224	 0.436629855164728 
1225	 0.437410235432641 
1226	 0.438249602522093 
1227	 0.439009421266088 
1228	 0.439792589645552 
1229	 0.440502939842377 
1230	 0.441122211530045 
1231	 0.441744064296602 
1232	 0.4424756046277 
1233	 0.443288269516795 
1234	 0.444030048943689 
1235	 0.444832491990468 
1236	 0.445547731201386 
1237	 0.446189661695354 
1238	 0.446854032823949 
1239	 0.447490329708812 
1240	 0.448166324534321 
1241	 0.448823401169593 
1242	 0.449540171040365 
1243	 0.450370164415661 
1244	 0.451084103889986 
1245	 0.451752593878485 
1246	 0.452443847851781 
1247	 0.453097009310748 
1248	 0.453748724745213 
1249	 0.45442206887675 
1250	 0.455093721863593 
1251	 0.455697267313795 
1252	 0.456378111192332 
1253	 0.457067434175864 
1254	 0.457823853721217 
1255	 0.458517999488574 
1256	 0.459203785081913 
1257	 0.459898971424477 
1258	 0.460565812885362 
1259	 0.461290375798575 
1260	 0.462088283878397 
1261	 0.462821682617367 
1262	 0.463580535494435 
1263	 0.464268070895144 
1264	 0.464791821878697 
1265	 0.465485865121849 
1266	 0.466276473357883 
1267	 0.466976855683282 
1268	 0.467735112341838 
1269	 0.468430149510866 
1270	 0.468920272534338 
1271	 0.469533631432392 
1272	 0.470197621399531 
1273	 0.470909154245062 
1274	 0.471549865477182 
1275	 0.472205280926318 
1276	 0.472847060572891 
1277	 0.473453131624627 
1278	 0.474042894597791 
1279	 0.474615959594211 
1280	 0.475251355259384 
1281	 0.475850399280796 
1282	 0.476526096688596 
1283	 0.477332859642767 
1284	 0.478044922957961 
1285	 0.478735171106309 
1286	 0.47941507950538 
1287	 0.480090234493726 
1288	 0.480723319782291 
1289	 0.481350375989282 
1290	 0.481928269285654 
1291	 0.48237322835672 
1292	 0.4829401252643 
1293	 0.48355858499277 
1294	 0.484169147488017 
1295	 0.484883079221273 
1296	 0.485557885111111 
1297	 0.486182592832491 
1298	 0.486755026582898 
1299	 0.487339755334958 
1300	 0.487886070890187 
1301	 0.488489894264089 
1302	 0.489107565138391 
1303	 0.489737909614639 
1304	 0.490432269565745 
1305	 0.491050817209012 
1306	 0.491634954228339 
1307	 0.492236049550536 
1308	 0.492765321016488 
1309	 0.493398832594898 
1310	 0.494141324218822 
1311	 0.494792857426774 
1312	 0.495443589788103 
1313	 0.496104375073175 
1314	 0.496692916893718 
1315	 0.497331454474983 
1316	 0.498076168428569 
1317	 0.498722212938274 
1318	 0.499386651234276 
1319	 0.499936159117028 
1320	 0.500242082075679 
1321	 0.500716707622779 
1322	 0.501280261777834 
1323	 0.501889354376215 
1324	 0.502442801435762 
1325	 0.503152522553206 
1326	 0.503747468255466 
1327	 0.504159286142278 
1328	 0.504761409166923 
1329	 0.505507386186481 
1330	 0.506184267039118 
1331	 0.506890893889616 
1332	 0.507557272589949 
1333	 0.508236832059506 
1334	 0.508810455234223 
1335	 0.509260408363424 
1336	 0.509778413829847 
1337	 0.510294738576316 
1338	 0.510762409514982 
1339	 0.511326849543555 
1340	 0.51176644173448 
1341	 0.512041440806261 
1342	 0.5123929435197 
1343	 0.512836412350868 
1344	 0.513166956671978 
1345	 0.513417507391498 
1346	 0.513764848772481 
1347	 0.513953740891209 
1348	 0.514073084790628 
1349	 0.514368451063658 
1350	 0.514938847585626 
1351	 0.515286427563667 
1352	 0.515495777745416 
1353	 0.515916422044611 
1354	 0.515900522399453 
1355	 0.516598765339747 
1356	 0.518782988022116 
1357	 0.520336088375557 
1358	 0.52150349029242 
1359	 0.522849947455787 
1360	 0.519548783842876 
1361	 0.517345939867818 
1362	 0.514023289513044 
1363	 0.510295078648953 
1364	 0.50463865445421 
1365	 0.506462184789026 
1366	 0.51687357069732 
1367	 0.523248564302738 
1368	 0.533552550205774 
1369	 0.535941567014967 
1370	 0.531058581628203 
1371	 0.531185025325066 
1372	 0.533463362260778 
1373	 0.532970175132973 
1374	 0.532309916982563 
1375	 0.531814740148899 
1376	 0.532703828273681 
1377	 0.529129074348568 
1378	 0.530651314861348 
1379	 0.537018150047925 
1380	 0.538211111669023 
1381	 0.538533451835928 
1382	 0.538570721277782 
1383	 0.534702249155148 
1384	 0.535530146811895 
1385	 0.539353019088279 
1386	 0.540633613766384 
1387	 0.542595942090694 
1388	 0.542959332171972 
1389	 0.540878460054985 
1390	 0.5410671386317 
1391	 0.542466680139337 
1392	 0.542828625740365 
1393	 0.542883304929938 
1394	 0.543884415831756 
1395	 0.545304467804385 
1396	 0.545657103137855 
1397	 0.546316274598325 
1398	 0.546697120397322 
1399	 0.545823179701326 
1400	 0.545686219753056 
1401	 0.546036292546324 
1402	 0.546517530519418 
1403	 0.54674320413698 
1404	 0.547411704694073 
1405	 0.54887133730543 
1406	 0.549677541597081 
1407	 0.549755692616267 
1408	 0.550330829609649 
1409	 0.550973648329927 
1410	 0.551180844468354 
1411	 0.551162498244584 
1412	 0.551262750850993 
1413	 0.551207166868889 
1414	 0.55051574816815 
1415	 0.550810694032079 
1416	 0.551511491928402 
1417	 0.552067763423357 
1418	 0.552996949571312 
1419	 0.553318820046244 
1420	 0.553230083809355 
1421	 0.553597882658552 
1422	 0.553986924218113 
1423	 0.554321081411165 
1424	 0.554982852991728 
1425	 0.555310674849155 
1426	 0.555236145909427 
1427	 0.55549191870285 
1428	 0.555739419098182 
1429	 0.556205235363727 
1430	 0.557128075653594 
1431	 0.557625054429561 
1432	 0.557937670077314 
1433	 0.558405030595291 
1434	 0.558719059290356 
1435	 0.559090074835186 
1436	 0.559693318861936 
1437	 0.56018056494743 
1438	 0.560387258337438 
1439	 0.560850553968041 
1440	 0.561535142407265 
1441	 0.562048203093041 
1442	 0.56257140340991 
1443	 0.563112885419607 
1444	 0.563321683651821 
1445	 0.563661719232521 
1446	 0.564226332542469 
1447	 0.56453765892544 
1448	 0.564926314999196 
1449	 0.565383795458672 
1450	 0.565733524464636 
1451	 0.56593057482841 
1452	 0.566343559192199 
1453	 0.566836546160723 
1454	 0.567243954221023 
1455	 0.567704487791425 
1456	 0.568152287634196 
1457	 0.568605335227061 
1458	 0.568965789079211 
1459	 0.569372140858303 
1460	 0.569715425490003 
1461	 0.569871608552989 
1462	 0.570271980766931 
1463	 0.570844049973483 
1464	 0.571378869933881 
1465	 0.572109311170882 
1466	 0.572666722738914 
1467	 0.573074414339207 
1468	 0.573577720491028 
1469	 0.574049471870073 
1470	 0.57451503620115 
1471	 0.574872384146461 
1472	 0.575471392042316 
1473	 0.576204606522884 
1474	 0.576774383767589 
1475	 0.577505453365273 
1476	 0.578006116376588 
1477	 0.578114557699389 
1478	 0.578495728428718 
1479	 0.579011132895705 
1480	 0.579419954252596 
1481	 0.579819248452457 
1482	 0.580266244435977 
1483	 0.580685178876479 
1484	 0.58108651941044 
1485	 0.581491599210931 
1486	 0.581967538881087 
1487	 0.582518299462647 
1488	 0.58287766118838 
1489	 0.583362369600919 
1490	 0.583856043703344 
1491	 0.584226411489016 
1492	 0.584588705190029 
1493	 0.5849015791211 
1494	 0.585190304046274 
1495	 0.585545568861952 
1496	 0.585875162490964 
1497	 0.586312380548622 
1498	 0.586842823033988 
1499	 0.587363370322746 
1500	 0.587983062207586 
1501	 0.588430879168587 
1502	 0.588842333235592 
1503	 0.589230823062956 
1504	 0.589472412744876 
1505	 0.589877217962628 
1506	 0.590385907629641 
1507	 0.590798794771905 
1508	 0.591223873039137 
1509	 0.591614525945695 
1510	 0.591920774426967 
1511	 0.592299571642687 
1512	 0.592732864935926 
1513	 0.593120831024661 
1514	 0.593474396870877 
1515	 0.593902969115872 
1516	 0.594351368154948 
1517	 0.594806191080417 
1518	 0.595378248459979 
1519	 0.595808554382466 
1520	 0.596158757217837 
1521	 0.596522357132789 
1522	 0.596834071962287 
1523	 0.597142644890384 
1524	 0.597379527911861 
1525	 0.597760127685006 
1526	 0.598221673444783 
1527	 0.598636886083514 
1528	 0.599178470974655 
1529	 0.59959757518928 
1530	 0.599902540541028 
1531	 0.600227455890704 
1532	 0.600549297453439 
1533	 0.600840612900671 
1534	 0.601030075935582 
1535	 0.601335952052326 
1536	 0.601674468024003 
1537	 0.602038660231077 
1538	 0.602531543492112 
1539	 0.602943245844302 
1540	 0.603276166747436 
1541	 0.603689906801911 
1542	 0.604138493151601 
1543	 0.604566574211831 
1544	 0.605062492820601 
1545	 0.605501751097004 
1546	 0.605881046512301 
1547	 0.606267599533978 
1548	 0.606644746778436 
1549	 0.607017085454005 
1550	 0.607336961574467 
1551	 0.607723627565082 
1552	 0.608212246801226 
1553	 0.608599556788825 
1554	 0.608947571135843 
1555	 0.609324762924444 
1556	 0.609626004181754 
1557	 0.609954029607173 
1558	 0.610336385151238 
1559	 0.610728384284558 
1560	 0.611073762608389 
1561	 0.611493419113784 
1562	 0.612060427668455 
1563	 0.612523003256064 
1564	 0.612953036143448 
1565	 0.613408771924323 
1566	 0.613730590213292 
1567	 0.614043611904663 
1568	 0.614420341914359 
1569	 0.614832437609763 
1570	 0.615208270605057 
1571	 0.615618724172212 
1572	 0.615947070560251 
1573	 0.616210871758744 
1574	 0.616511758191666 
1575	 0.616791337882555 
1576	 0.617072213522777 
1577	 0.617356371493925 
1578	 0.617636245855441 
1579	 0.617889871700707 
1580	 0.618177579823289 
1581	 0.618454954280754 
1582	 0.618829054105578 
1583	 0.619290272232657 
1584	 0.619621147607831 
1585	 0.619960068582355 
1586	 0.620294048630457 
1587	 0.620523389931762 
1588	 0.620850735332407 
1589	 0.621260188376404 
1590	 0.621649198875579 
1591	 0.622049221241459 
1592	 0.622398153579966 
1593	 0.62277906639559 
1594	 0.623070548885799 
1595	 0.623234416382973 
1596	 0.623549330808074 
1597	 0.623900560499729 
1598	 0.624252357716519 
1599	 0.624703681493211 
1600	 0.625034103218596 
1601	 0.625287158935695 
1602	 0.625590856696974 
1603	 0.62585219766122 
1604	 0.626197719299345 
1605	 0.626622072917065 
1606	 0.626965740223296 
1607	 0.62731254254124 
1608	 0.627645908518638 
1609	 0.627923896132958 
1610	 0.628226754239867 
1611	 0.628525922757723 
1612	 0.628882642539528 
1613	 0.629253510465575 
1614	 0.629634153579295 
1615	 0.630110689196347 
1616	 0.630449115683414 
1617	 0.630702960638203 
1618	 0.630999068909628 
1619	 0.631229149579594 
1620	 0.631561257849997 
1621	 0.631980062424575 
1622	 0.632311229109444 
1623	 0.632652563037287 
1624	 0.632969298352069 
1625	 0.633206381069288 
1626	 0.633531257285766 
1627	 0.633917115727107 
1628	 0.634242822195787 
1629	 0.634546850812474 
1630	 0.63493467112708 
1631	 0.635390045946128 
1632	 0.635679289780967 
1633	 0.635944430881343 
1634	 0.636229194054524 
1635	 0.636352715427413 
1636	 0.636670995775858 
1637	 0.637165077790039 
1638	 0.637533185458008 
1639	 0.637851596657544 
1640	 0.638262291320834 
1641	 0.638740176362962 
1642	 0.639099334984965 
1643	 0.639453575473293 
1644	 0.639820728762937 
1645	 0.640066431835066 
1646	 0.640431297109624 
1647	 0.640897883200023 
1648	 0.641326277330665 
1649	 0.641748842283017 
1650	 0.642210386991703 
1651	 0.642743613546925 
1652	 0.643136959796765 
1653	 0.643485457545637 
1654	 0.643787134946476 
1655	 0.644001552831384 
1656	 0.644280226152226 
1657	 0.644553090758611 
1658	 0.644945071724748 
1659	 0.645131017302557 
1660	 0.645439882587977 
1661	 0.645918908184145 
1662	 0.646277001597704 
1663	 0.646711745772383 
1664	 0.646932087208815 
1665	 0.646952879251357 
1666	 0.647188646958341 
1667	 0.647348120545759 
1668	 0.647633011417749 
1669	 0.648158857672225 
1670	 0.648407449825564 
1671	 0.648599127016291 
1672	 0.648818155253489 
1673	 0.648934275887137 
1674	 0.649107691242913 
1675	 0.649384827748747 
1676	 0.649727136400287 
1677	 0.650009277387408 
1678	 0.650329878068474 
1679	 0.650658387611256 
1680	 0.650798269217071 
1681	 0.650925691292145 
1682	 0.651120553285767 
1683	 0.651336352873269 
1684	 0.65162523495548 
1685	 0.651897178452832 
1686	 0.65216057680746 
1687	 0.652396027387267 
1688	 0.652542444928408 
1689	 0.652787808976839 
1690	 0.652789349232565 
1691	 0.653078311297718 
1692	 0.65379693654195 
1693	 0.654195220935441 
1694	 0.654654044096747 
1695	 0.654984941296209 
1696	 0.654807644836783 
1697	 0.654992714020918 
1698	 0.655455903813217 
1699	 0.655761980970467 
1700	 0.65620976781051 
1701	 0.656520796738083 
1702	 0.656657400557214 
1703	 0.656788737079197 
1704	 0.656773326560539 
1705	 0.656972410914127 
1706	 0.657207953532451 
1707	 0.657530081364355 
1708	 0.658161269454645 
1709	 0.658560639326898 
1710	 0.658877531070798 
1711	 0.6591018357921 
1712	 0.659154953091929 
1713	 0.659286307318121 
1714	 0.659359526757244 
1715	 0.6595518573387 
1716	 0.659862351165293 
1717	 0.660129340683882 
1718	 0.660383089981376 
1719	 0.66066521369214 
1720	 0.660962126008983 
1721	 0.661267030772159 
1722	 0.661670104183916 
1723	 0.661948543434537 
1724	 0.662113826720208 
1725	 0.662342396295611 
1726	 0.662586454954536 
1727	 0.662783100379021 
1728	 0.662963327894701 
1729	 0.663227288452966 
1730	 0.663452938930513 
1731	 0.663598017153865 
1732	 0.66395946565835 
1733	 0.664077787838175 
1734	 0.664119297392939 
1735	 0.664558260641141 
1736	 0.664801237826081 
1737	 0.664942474217204 
1738	 0.665262593655772 
1739	 0.665401384357115 
1740	 0.665584485172833 
1741	 0.66580522141016 
1742	 0.665978224715457 
1743	 0.666219603579466 
1744	 0.666408409678171 
1745	 0.666725613385548 
1746	 0.667116263097226 
1747	 0.667237191028489 
1748	 0.667337060232883 
1749	 0.667421037510552 
1750	 0.667468727883265 
1751	 0.667705405348211 
1752	 0.667886571408344 
1753	 0.668052088763527 
1754	 0.668207094676309 
1755	 0.668372427001102 
1756	 0.668660774339854 
1757	 0.668710751939249 
1758	 0.668848735247856 
1759	 0.668814280290064 
1760	 0.668999068843069 
1761	 0.669505325936449 
1762	 0.669834999379209 
1763	 0.670319443180996 
1764	 0.670554681389426 
1765	 0.670357036284608 
1766	 0.67054884394675 
1767	 0.670812919694386 
1768	 0.671096591077114 
1769	 0.6718139989168 
1770	 0.672106798546501 
1771	 0.671985135414629 
1772	 0.672134230249568 
1773	 0.67215571882912 
1774	 0.672806499813145 
1775	 0.67342460162333 
1776	 0.673565733396164 
1777	 0.673799087325643 
1778	 0.673946833697922 
1779	 0.674122465926277 
1780	 0.674287094773358 
1781	 0.674294610477299 
1782	 0.674372319845536 
1783	 0.674368103720902 
1784	 0.675094274330763 
1785	 0.675823219887189 
1786	 0.675731888394971 
1787	 0.676166678316138 
1788	 0.676902914140785 
1789	 0.6773018566524 
1790	 0.677686149096968 
1791	 0.677777708980914 
1792	 0.67705386788858 
1793	 0.676607772273731 
1794	 0.677011811754203 
1795	 0.677295868868142 
1796	 0.677861584240452 
1797	 0.678340694373415 
1798	 0.678627619264432 
1799	 0.679323356727746 
1800	 0.679448019218311 
1801	 0.685734513069178 
1802	 0.685973760350112 
1803	 0.686378529102882 
1804	 0.685611939892591 
1805	 0.685799973381483 
1806	 0.687132501497981 
1807	 0.687638993713704 
1808	 0.688010408051826 
1809	 0.687922103058314 
1810	 0.688401091833634 
1811	 0.688106798159414 
1812	 0.689361862155363 
1813	 0.693478406366655 
1814	 0.694621460902056 
1815	 0.693553206352015 
1816	 0.694770561394406 
1817	 0.697023250278822 
1818	 0.696896100662733 
1819	 0.696156808734629 
1820	 0.696280373853091 
1821	 0.696723499789207 
1822	 0.694396409079665 
1823	 0.691953168144925 
1824	 0.690705576758581 
1825	 0.690733617903517 
1826	 0.689170405317488 
1827	 0.686433849901401 
1828	 0.684018412813681 
1829	 0.688809015169807 
1830	 0.688294117547203 
1831	 0.67566337049189 
1832	 0.671111856729219 
1833	 0.680155134803946 
1834	 0.680810435427701 
1835	 0.684239838518096 
1836	 0.676813960823202 
1837	 0.630107670673788 
1838	 0.617158451915284 
1839	 0.619526848922249 
1840	 0.627199147406226 
1841	 0.654932135232854 
1842	 0.764247166314109 
1843	 0.766703776799451 
1844	 0.709395491326229 
1845	 0.694514601584602 
1846	 0.6390842454352 
1847	 0.620144068588686 
1848	 0.619173267263233 
1849	 0.66144348672288 
1850	 0.674276700069561 
1851	 0.677375398338282 
1852	 0.70239291368757 
1853	 0.753058821003914 
1854	 0.773140451622821 
1855	 0.797030281275943 
1856	 0.801719612895003 
1857	 0.766493795451741 
1858	 0.749421227307102 
1859	 0.744787436565225 
1860	 0.760481840387273 
1861	 0.745100316160126 
1862	 0.712036764667253 
1863	 0.697131858958632 
1864	 0.656654526119148 
1865	 0.650867392330443 
1866	 0.667604950930273 
1867	 0.719323982493618 
1868	 0.739370028598172 
1869	 0.757918668522064 
1870	 0.772137806715241 
1871	 0.762723692792727 
1872	 0.753421339476805 
1873	 0.750366355856048 
1874	 0.739865693898771 
1875	 0.72473180289029 
1876	 0.712492109253892 
1877	 0.700734813910256 
1878	 0.694033292576359 
1879	 0.691213677534972 
1880	 0.681095525725599 
1881	 0.682041912591665 
1882	 0.687597164270729 
1883	 0.694456317778522 
1884	 0.710755307325943 
1885	 0.714486604855818 
1886	 0.717847902943336 
1887	 0.716459317107564 
1888	 0.704239914347971 
1889	 0.692886243727046 
1890	 0.688969285020246 
1891	 0.687774481946578 
1892	 0.686151637475801 
1893	 0.691136455626624 
1894	 0.692964641003129 
1895	 0.688508861985087 
1896	 0.691319278308063 
1897	 0.704506695192596 
1898	 0.712302996871697 
1899	 0.713005811781766 
1900	 0.718651621388154 
1901	 0.717573821430266 
1902	 0.694492925103057 
1903	 0.683977000171651 
1904	 0.681694902526425 
1905	 0.67801983431231 
1906	 0.665257155614819 
1907	 0.682679715111034 
1908	 0.700534817467657 
1909	 0.698350938842322 
1910	 0.712216585908548 
1911	 0.704335878274777 
1912	 0.701427587998731 
1913	 0.698358543316397 
1914	 0.695740726561891 
1915	 0.689967576184003 
1916	 0.691484427891862 
1917	 0.696024197705731 
1918	 0.696157235263988 
1919	 0.699581549907219 
1920	 0.700954231995406 
1921	 0.696161920942269 
1922	 0.693472614862455 
1923	 0.692907912618787 
1924	 0.690689089344245 
1925	 0.692400391932936 
1926	 0.700586877644 
1927	 0.702526869024949 
1928	 0.702268841095622 
1929	 0.703419021394559 
1930	 0.705352300287123 
1931	 0.703566969284489 
1932	 0.704492802694295 
1933	 0.708566542774735 
1934	 0.708668996643675 
1935	 0.705476960412199 
1936	 0.705678599760614 
1937	 0.705645367952519 
1938	 0.705785950735463 
1939	 0.707336600544486 
1940	 0.709107329019266 
1941	 0.706865207632268 
1942	 0.706572602958788 
1943	 0.706542405489302 
1944	 0.705814580619134 
1945	 0.706541093074175 
1946	 0.706695874468143 
1947	 0.707179670945924 
1948	 0.707552276346818 
1949	 0.707885531148627 
1950	 0.70870612951902 
1951	 0.708991365771118 
1952	 0.708423610689939 
1953	 0.708813805727754 
1954	 0.7088162884144 
1955	 0.71038541193376 
1956	 0.712845165236312 
1957	 0.713214900580329 
1958	 0.713280291122317 
1959	 0.712468626920896 
1960	 0.712172765768194 
1961	 0.71103337804922 
1962	 0.711607881959681 
1963	 0.712274759761879 
1964	 0.712837863195695 
1965	 0.714372163810017 
1966	 0.714647433416334 
1967	 0.714904812144479 
1968	 0.716044157169433 
1969	 0.716259594646562 
1970	 0.715497658246968 
1971	 0.715899021782581 
1972	 0.716655825579108 
1973	 0.716905475088116 
1974	 0.717761874106923 
1975	 0.718600140740525 
1976	 0.719152389836654 
1977	 0.719783086914379 
1978	 0.720229754836857 
1979	 0.720806610733315 
1980	 0.721261731570436 
1981	 0.721349314697741 
1982	 0.721509701912043 
1983	 0.721655716889869 
1984	 0.721851990114552 
1985	 0.721997328292343 
1986	 0.722390153522357 
1987	 0.722627799676799 
1988	 0.72307155055215 
1989	 0.724110517017057 
1990	 0.724468743716785 
1991	 0.724987411264657 
1992	 0.725761556662164 
1993	 0.725716910383065 
1994	 0.725933564263374 
1995	 0.726367199810954 
1996	 0.727101571454138 
1997	 0.727819956583841 
1998	 0.728903081270162 
1999	 0.730065060128538 
2000	 0.731107928077237 
2001	 0.731163141375525 
2002	 0.730569328433259 
2003	 0.730182377450155 
2004	 0.729589228609543 
2005	 0.729583054514118 
2006	 0.730192913728433 
2007	 0.731696551585872 
2008	 0.732663270476239 
2009	 0.733251157446112 
2010	 0.733795976771809 
2011	 0.734312316580947 
2012	 0.73533757969089 
2013	 0.736490753136001 
2014	 0.737216484764641 
2015	 0.73788496591905 
2016	 0.737782041510326 
2017	 0.73742128617137 
2018	 0.738321867389952 
2019	 0.738879689222613 
2020	 0.739251883068535 
2021	 0.739647882708535 
2022	 0.740973034224093 
2023	 0.741654567950158 
2024	 0.742348050847777 
2025	 0.743365081905771 
2026	 0.74335404599196 
2027	 0.743210371982463 
2028	 0.743813576948628 
2029	 0.744095145692645 
2030	 0.74429369965683 
2031	 0.744820926554727 
2032	 0.745154704510644 
2033	 0.745132715922939 
2034	 0.74527914935189 
2035	 0.74588110943353 
2036	 0.746264139521397 
2037	 0.746615738122068 
2038	 0.746932124476528 
2039	 0.746958223754019 
2040	 0.747085797721235 
2041	 0.747411506071374 
2042	 0.747699035343669 
2043	 0.748413193560563 
2044	 0.749177554841039 
2045	 0.749693307174792 
2046	 0.750116368834317 
2047	 0.750657612600051 
2048	 0.750603849063321 
2049	 0.750823493613985 
2050	 0.751506259376453 
2051	 0.751724523794898 
2052	 0.75227964159539 
2053	 0.752721069608288 
2054	 0.752623038083663 
2055	 0.752591417597969 
2056	 0.752821035469152 
2057	 0.753438158354276 
2058	 0.754261985380345 
2059	 0.754880628765743 
2060	 0.755719744644519 
2061	 0.756273611673983 
2062	 0.75640343280634 
2063	 0.756580980080074 
2064	 0.756872301099485 
2065	 0.757306837929726 
2066	 0.757657772962472 
2067	 0.757954226947267 
2068	 0.758436346521001 
2069	 0.758481766098456 
2070	 0.758990986443772 
2071	 0.759823386039376 
2072	 0.760328116593831 
2073	 0.760612993482764 
2074	 0.761528471203309 
2075	 0.762138839277316 
2076	 0.762008304891454 
2077	 0.762377828588933 
2078	 0.76290490745402 
2079	 0.763332707679612 
2080	 0.764353706560455 
2081	 0.765155206879678 
2082	 0.765550299103894 
2083	 0.765917700847188 
2084	 0.765863983666443 
2085	 0.765842178584627 
2086	 0.766046174186594 
2087	 0.766451313329459 
2088	 0.767024869548385 
2089	 0.76767513086525 
2090	 0.768142234216168 
2091	 0.768712441258396 
2092	 0.768555018553656 
2093	 0.768538639670044 
2094	 0.769499905363564 
2095	 0.769857865175977 
2096	 0.770252955845242 
2097	 0.770836761968312 
2098	 0.770886143298065 
2099	 0.771184482392088 
2100	 0.771939569271054 
2101	 0.772371655475436 
2102	 0.772873882762646 
2103	 0.773381738323969 
2104	 0.773899425701793 
2105	 0.774091225793809 
2106	 0.775056522973001 
2107	 0.775796289522661 
2108	 0.776071995070631 
2109	 0.776676896044992 
2110	 0.776822094594079 
2111	 0.777129625599988 
2112	 0.777681422863606 
2113	 0.778237256002345 
2114	 0.778861518616186 
2115	 0.779086862758572 
2116	 0.779301846352044 
2117	 0.779637887413947 
2118	 0.779905784246005 
2119	 0.780344763291884 
2120	 0.780919790182397 
2121	 0.781562635132451 
2122	 0.782437756657251 
2123	 0.783167247623586 
2124	 0.783716091462189 
2125	 0.784280151761023 
2126	 0.784792695972706 
2127	 0.784826512600088 
2128	 0.78525486595127 
2129	 0.785991325671512 
2130	 0.786193644071773 
2131	 0.786535776642695 
2132	 0.786622283788207 
2133	 0.786643556575436 
2134	 0.786714052599943 
2135	 0.786753118750337 
2136	 0.786931522047301 
2137	 0.787101015622354 
2138	 0.787086037220109 
2139	 0.787520143244522 
2140	 0.787560897078579 
2141	 0.787497330823885 
2142	 0.787867724665327 
2143	 0.787995643408894 
2144	 0.788187056426785 
2145	 0.788809382591677 
2146	 0.788749438284366 
2147	 0.787940809600492 
2148	 0.787382823817772 
2149	 0.787017457928711 
2150	 0.787228486625561 
2151	 0.787272154235226 
2152	 0.787885672528675 
2153	 0.787791321795989 
2154	 0.787307997437393 
2155	 0.786554316911703 
2156	 0.78607991353115 
2157	 0.785635352332555 
2158	 0.78574155517778 
2159	 0.786073601691301 
2160	 0.78616468019934 
2161	 0.786149516565257 
2162	 0.785178858967063 
2163	 0.784179559881922 
2164	 0.782935610554577 
2165	 0.782183867134673 
2166	 0.783002603696488 
2167	 0.783050080071796 
2168	 0.782811575489175 
2169	 0.782678646378438 
2170	 0.782379076360683 
2171	 0.781399395152928 
2172	 0.780877395130328 
2173	 0.78081465459063 
2174	 0.78007304000178 
2175	 0.779269459691836 
2176	 0.778852647095699 
2177	 0.778891236599131 
2178	 0.779298625263154 
2179	 0.779649265180619 
2180	 0.779952735815554 
2181	 0.779831109764243 
2182	 0.779345559432397 
2183	 0.779193108127802 
2184	 0.779107700892893 
2185	 0.778409058229389 
2186	 0.777485596238805 
2187	 0.777020683100948 
2188	 0.776334874528678 
2189	 0.776141723662116 
2190	 0.776544611015962 
2191	 0.777072356661612 
2192	 0.776728401291407 
2193	 0.776512184935336 
2194	 0.775971913306801 
2195	 0.775584049870048 
2196	 0.77570062693449 
2197	 0.775510791367771 
2198	 0.775629847686092 
2199	 0.775504615305075 
2200	 0.775449907625989 
2201	 0.775261644463974 
2202	 0.774525694280209 
2203	 0.774183519822447 
2204	 0.774065336770928 
2205	 0.774444314300306 
2206	 0.774853107927313 
2207	 0.774951103115058 
2208	 0.775124534664226 
2209	 0.775129221129896 
2210	 0.775231896305235 
2211	 0.775370226054231 
2212	 0.77575943249997 
2213	 0.775848164008774 
2214	 0.775164809787635 
2215	 0.77512292834552 
2216	 0.775288896418328 
2217	 0.775251323641485 
2218	 0.775862522113873 
2219	 0.775859606917904 
2220	 0.775183952628754 
2221	 0.774847173495731 
2222	 0.774637789448197 
2223	 0.774434668340965 
2224	 0.774297604468603 
2225	 0.774617221222115 
2226	 0.774811035069429 
2227	 0.774876720930687 
2228	 0.77555393554359 
2229	 0.775708229614488 
2230	 0.775749453779486 
2231	 0.776015140998916 
2232	 0.776372828673014 
2233	 0.776493595210513 
2234	 0.776712088335568 
2235	 0.776873064344755 
2236	 0.776257150484825 
2237	 0.776625043633206 
2238	 0.777253617086783 
2239	 0.776624296932589 
2240	 0.776625424330901 
2241	 0.77691346061173 
2242	 0.776254437766801 
2243	 0.776550281216431 
2244	 0.777199808460557 
2245	 0.777010194013522 
2246	 0.776746387888602 
2247	 0.776448640185326 
2248	 0.776520264301149 
2249	 0.776440319512321 
2250	 0.776391863913869 
2251	 0.776866013403622 
2252	 0.776964769415038 
2253	 0.77667898421126 
2254	 0.776181399370198 
2255	 0.775900246876236 
2256	 0.776129345410812 
2257	 0.776764264912591 
2258	 0.77744621286944 
2259	 0.777689583671785 
2260	 0.778336428417353 
2261	 0.778706446320729 
2262	 0.778119357626804 
2263	 0.778541430089655 
2264	 0.779079734125441 
2265	 0.778804059075599 
2266	 0.779380216489577 
2267	 0.779589613345416 
2268	 0.778998518853183 
2269	 0.778450778316735 
2270	 0.778015647294295 
2271	 0.778384203086997 
2272	 0.779285195702593 
2273	 0.779574525834952 
2274	 0.779126050596441 
2275	 0.779155429483166 
2276	 0.778994964225754 
2277	 0.778486183184105 
2278	 0.778489127405207 
2279	 0.778974943404426 
2280	 0.779118047971567 
2281	 0.778781709045014 
2282	 0.778886906451214 
2283	 0.77809618086285 
2284	 0.777852711668183 
2285	 0.778529422644456 
2286	 0.778674584399839 
2287	 0.77884428845744 
2288	 0.779406486010014 
2289	 0.778989757269448 
2290	 0.778714089947993 
2291	 0.779258336265584 
2292	 0.779736091470194 
2293	 0.780315463878164 
2294	 0.780407460931928 
2295	 0.780327158035884 
2296	 0.780284482586891 
2297	 0.780338631060642 
2298	 0.781087464870697 
2299	 0.782113454903647 
2300	 0.782756992456365 
2301	 0.782648367821715 
2302	 0.782072340028578 
2303	 0.781481808711765 
2304	 0.781230175782706 
2305	 0.781823121148695 
2306	 0.782746855536598 
2307	 0.783464457601051 
2308	 0.783773478749609 
2309	 0.784452820192417 
2310	 0.785000675436692 
2311	 0.784913564775939 
2312	 0.785166664845052 
2313	 0.785610643192567 
2314	 0.785489014286235 
2315	 0.785638154527187 
2316	 0.787351518745552 
2317	 0.788553677134285 
2318	 0.789634587989332 
2319	 0.791403940104403 
2320	 0.791531195231441 
2321	 0.791834673185977 
2322	 0.791319948514721 
2323	 0.791810649499871 
2324	 0.792585769932028 
2325	 0.79441691015837 
2326	 0.794494499047342 
2327	 0.795412289782614 
2328	 0.795853737397314 
2329	 0.794586329955208 
2330	 0.795046487969052 
2331	 0.795511673485571 
2332	 0.795002940422161 
2333	 0.794979062685918 
2334	 0.796373986322467 
2335	 0.797642092499101 
2336	 0.798375152776204 
2337	 0.799501265221591 
2338	 0.79936942806189 
2339	 0.798458767993606 
2340	 0.798534564029686 
2341	 0.799086065122208 
2342	 0.798643839413557 
2343	 0.798414574545256 
2344	 0.797768975756656 
2345	 0.796621443145538 
2346	 0.796508474875396 
2347	 0.796348836667194 
2348	 0.798156201483373 
2349	 0.799573023472144 
2350	 0.799673608045457 
2351	 0.801561133974833 
2352	 0.802481604603008 
2353	 0.802454737409373 
2354	 0.80307044323095 
2355	 0.803523753983727 
2356	 0.80281498968366 
2357	 0.802510280792305 
2358	 0.803601472496875 
2359	 0.804048090579189 
2360	 0.803558805716182 
2361	 0.802911020180026 
2362	 0.802835435098485 
2363	 0.802282282497272 
2364	 0.802474922067211 
2365	 0.803550316426663 
2366	 0.802574590394282 
2367	 0.801430542311892 
2368	 0.800169857303287 
2369	 0.799851984915056 
2370	 0.801881093248491 
2371	 0.802692284448119 
2372	 0.804011658128502 
2373	 0.80675393321432 
2374	 0.807862770121465 
2375	 0.807195478431113 
2376	 0.808833318013682 
2377	 0.811914201569005 
2378	 0.812342098885236 
2379	 0.813583778157777 
2380	 0.813187145056937 
2381	 0.807425167657041 
2382	 0.806454890266634 
2383	 0.808669370514357 
2384	 0.807509603820798 
2385	 0.807784649822936 
2386	 0.807386153738327 
2387	 0.803143370433836 
2388	 0.802558255364945 
2389	 0.803247584058206 
2390	 0.804531316661056 
2391	 0.808846876779621 
2392	 0.811093538962584 
2393	 0.814889002076257 
2394	 0.814628288716558 
2395	 0.808598195524492 
2396	 0.807791625848971 
2397	 0.807704605467695 
2398	 0.807274597842827 
2399	 0.810407356038571 
2400	 0.810626635062915 
2401	 0.80706164867272 
2402	 0.807356534647834 
2403	 0.80836693821567 
2404	 0.810211770950436 
2405	 0.81453499353842 
2406	 0.816753981620586 
2407	 0.816355007449888 
2408	 0.816584922271696 
2409	 0.813669008209134 
2410	 0.810197426986082 
2411	 0.810803480225039 
2412	 0.810633471629292 
2413	 0.809838395609236 
2414	 0.808843664807013 
2415	 0.804248822618703 
2416	 0.802030615317313 
2417	 0.802186055059161 
2418	 0.800002534575233 
2419	 0.804405526476358 
2420	 0.808930516748567 
2421	 0.807645220141639 
2422	 0.808139091154298 
2423	 0.804755076677978 
2424	 0.799565471895258 
2425	 0.796268735693343 
2426	 0.796494981975241 
2427	 0.799149987610753 
2428	 0.804565099955357 
2429	 0.814646469597227 
2430	 0.818249341759211 
2431	 0.820593576004886 
2432	 0.820572204147314 
2433	 0.813653756375286 
2434	 0.811382731654909 
2435	 0.807880976099857 
2436	 0.806472428209429 
2437	 0.811386864629142 
2438	 0.81141560671322 
2439	 0.807424859572693 
2440	 0.805335685232626 
2441	 0.800243017185954 
2442	 0.797173789868159 
2443	 0.801719248124485 
2444	 0.800348674561763 
2445	 0.791144604031825 
2446	 0.790665401117297 
2447	 0.791095123283204 
2448	 0.793235637995744 
2449	 0.80480001403232 
2450	 0.809966583698576 
2451	 0.811445992636888 
2452	 0.811762557192332 
2453	 0.813087490396006 
2454	 0.810799921638761 
2455	 0.802377460967305 
2456	 0.798361192123776 
2457	 0.790709083575723 
2458	 0.790233150291939 
2459	 0.795808768177926 
2460	 0.801325969678307 
2461	 0.816457813560442 
2462	 0.82348022456318 
2463	 0.827867835364132 
2464	 0.831046846866325 
2465	 0.824515063373085 
2466	 0.822126297245221 
2467	 0.82089170766773 
2468	 0.818541180505472 
2469	 0.816932709122268 
2470	 0.816684615920327 
2471	 0.821367357853106 
2472	 0.818548303892954 
2473	 0.81035689282778 
2474	 0.80444351532874 
2475	 0.790318215938863 
2476	 0.783867630849239 
2477	 0.784775475172979 
2478	 0.783232620629119 
2479	 0.779754285695895 
2480	 0.789458822310368 
2481	 0.819173421713252 
2482	 0.83427892070692 
2483	 0.856440404639648 
2484	 0.848276468623288 
2485	 0.804867131983521 
2486	 0.721909505322494 
2487	 0.691112042674826 
2488	 0.709807846483374 
2489	 0.708847856360688 
2490	 0.775658945714464 
2491	 0.822749052543354 
2492	 0.816149033374096 
2493	 0.851965159537587 
2494	 0.830804035659168 
2495	 0.83117537654862 
2496	 0.803721042344551 
2497	 0.727973158560929 
2498	 0.736171176745181 
2499	 0.74777730385367 
2500	 0.793108727735236 
