Wavelength	ref00031.asd
350	 2.96903891697791E-02 
351	 3.07062217265828E-02 
352	 0.031086872542634 
353	 3.07127127205186E-02 
354	 3.01400373578933E-02 
355	 3.01764600290394E-02 
356	 3.07578257245563E-02 
357	 2.99409760751595E-02 
358	 2.99408248333492E-02 
359	 3.05851322698452E-02 
360	 0.030965104305279 
361	 3.05766134874279E-02 
362	 3.01301868877235E-02 
363	 2.99203086526061E-02 
364	 2.98599420147681E-02 
365	 2.93817470783279E-02 
366	 2.92306983356243E-02 
367	 2.95705549932356E-02 
368	 2.95649370713744E-02 
369	 2.96234777706511E-02 
370	 2.95271463659759E-02 
371	 2.92172874438587E-02 
372	 2.95949252771963E-02 
373	 2.96139100424182E-02 
374	 2.93961485435018E-02 
375	 2.95635255706147E-02 
376	 2.95195443630876E-02 
377	 2.92923206910579E-02 
378	 2.90963059931999E-02 
379	 2.92760699639939E-02 
380	 2.92607498185647E-02 
381	 2.93256672067144E-02 
382	 2.96846596104234E-02 
383	 2.99009415306877E-02 
384	 3.00162551734064E-02 
385	 3.00812025329785E-02 
386	 3.01385348203838E-02 
387	 3.00484499779205E-02 
388	 3.01675099048191E-02 
389	 3.04331110435846E-02 
390	 3.03487739070477E-02 
391	 3.03316135607313E-02 
392	 3.04986474533233E-02 
393	 3.08109479038828E-02 
394	 3.10018568469354E-02 
395	 3.14761192210344E-02 
396	 3.18040019327185E-02 
397	 3.15362803576518E-02 
398	 3.16458499566579E-02 
399	 3.16723871136184E-02 
400	 3.16511536065917E-02 
401	 3.20239047342829E-02 
402	 3.21217354646458E-02 
403	 0.032167417141788 
404	 0.032445703928231 
405	 3.31532812469794E-02 
406	 3.35670686780348E-02 
407	 3.37612689628356E-02 
408	 3.40680556485701E-02 
409	 3.45224928267893E-02 
410	 3.49613709099446E-02 
411	 3.53568114387108E-02 
412	 0.035806604859376 
413	 3.62758904601314E-02 
414	 3.66900958927307E-02 
415	 3.70613778050759E-02 
416	 3.75973198803578E-02 
417	 3.81245622464353E-02 
418	 3.85000643375632E-02 
419	 3.87084975277116E-02 
420	 3.92646811722475E-02 
421	 3.98658393815751E-02 
422	 4.03401970660096E-02 
423	 4.06790962409203E-02 
424	 4.08933689701515E-02 
425	 4.12394188315185E-02 
426	 4.18227065222566E-02 
427	 4.23809286885903E-02 
428	 4.27178276910718E-02 
429	 4.29390472093842E-02 
430	 4.32288336949369E-02 
431	 4.34685102719648E-02 
432	 4.37088071468881E-02 
433	 4.38912364512815E-02 
434	 4.38826622384761E-02 
435	 4.39637074483773E-02 
436	 4.41660793012507E-02 
437	 4.44166408512359E-02 
438	 0.044520615885886 
439	 4.46581925178546E-02 
440	 4.47574690166717E-02 
441	 4.47339053743561E-02 
442	 4.49359901956908E-02 
443	 4.50524334894777E-02 
444	 4.50471207573811E-02 
445	 0.045168055070498 
446	 4.52733916451612E-02 
447	 0.045311147467296 
448	 4.52952835051001E-02 
449	 4.53613129869514E-02 
450	 4.53823513064839E-02 
451	 4.54090467559306E-02 
452	 4.55376108595129E-02 
453	 4.56426741656481E-02 
454	 4.57291228219502E-02 
455	 4.57756107562852E-02 
456	 0.045721106773265 
457	 4.56873360896395E-02 
458	 4.56664329938995E-02 
459	 4.56335779107213E-02 
460	 4.56159901204637E-02 
461	 4.55663557647365E-02 
462	 4.54879414551639E-02 
463	 4.54199170583286E-02 
464	 0.045430724141334 
465	 4.54823310641971E-02 
466	 4.55214399307802E-02 
467	 4.54926990445377E-02 
468	 4.54272115244083E-02 
469	 0.045343088636322 
470	 4.52581898389402E-02 
471	 4.51916326627487E-02 
472	 4.51756449148307E-02 
473	 4.51658383674428E-02 
474	 4.50813474779535E-02 
475	 4.50842075710999E-02 
476	 4.50862674194382E-02 
477	 4.50379545393697E-02 
478	 4.50298336303781E-02 
479	 4.49915439818453E-02 
480	 0.044944606329734 
481	 4.49220929917317E-02 
482	 4.48452762205515E-02 
483	 4.48015940471379E-02 
484	 4.48650638622026E-02 
485	 0.045071222759176 
486	 4.51417321190892E-02 
487	 4.51123513064768E-02 
488	 4.50561796791508E-02 
489	 4.49376934885759E-02 
490	 4.49295966014372E-02 
491	 4.50061634673415E-02 
492	 4.50632038887818E-02 
493	 4.51403302009448E-02 
494	 4.51787622520441E-02 
495	 4.52136740933431E-02 
496	 4.53981537659264E-02 
497	 4.55370395896839E-02 
498	 4.56843869180787E-02 
499	 4.59096609681341E-02 
500	 4.61162216160441E-02 
501	 4.63985962688255E-02 
502	 4.67336778378474E-02 
503	 0.047021465752592 
504	 4.71919470590752E-02 
505	 0.047386771761797 
506	 4.77112734667816E-02 
507	 0.048170660147203 
508	 4.87142155591078E-02 
509	 4.92258334142875E-02 
510	 4.96498524840034E-02 
511	 5.02612394978035E-02 
512	 5.09696084339914E-02 
513	 5.17020129680293E-02 
514	 5.24237373877343E-02 
515	 5.32773272487795E-02 
516	 5.42875615595185E-02 
517	 5.54160057404672E-02 
518	 0.05657407203907 
519	 5.75751406737542E-02 
520	 5.84955250410134E-02 
521	 5.95106569226732E-02 
522	 6.06026447853524E-02 
523	 6.17575275937949E-02 
524	 6.29176789997911E-02 
525	 6.39672722503739E-02 
526	 6.50917434815213E-02 
527	 0.066267678432304 
528	 6.73892121880756E-02 
529	 6.82438303799244E-02 
530	 6.90950899841687E-02 
531	 6.99729708647288E-02 
532	 7.07807843259328E-02 
533	 7.15621251834039E-02 
534	 7.22401100462544E-02 
535	 7.27849648548638E-02 
536	 7.32646053756477E-02 
537	 7.37180488024328E-02 
538	 7.41453852503614E-02 
539	 7.45440371950878E-02 
540	 0.074988092669433 
541	 7.53592594811334E-02 
542	 7.56161875081826E-02 
543	 7.58021634338619E-02 
544	 7.61014222011332E-02 
545	 7.64003200994228E-02 
546	 0.076626032521953 
547	 7.69166474988731E-02 
548	 7.72533884777449E-02 
549	 0.077564945247749 
550	 7.77721073497839E-02 
551	 7.79322059947592E-02 
552	 7.80228993850039E-02 
553	 7.80504639768534E-02 
554	 7.80601990229149E-02 
555	 7.79483617954139E-02 
556	 7.77665166062538E-02 
557	 7.75790141298178E-02 
558	 7.73735078853111E-02 
559	 7.70328265890685E-02 
560	 7.65521734494148E-02 
561	 0.076010048727445 
562	 7.54961032265257E-02 
563	 7.49010005713916E-02 
564	 7.42056378758328E-02 
565	 7.36053285314353E-02 
566	 7.29730523691861E-02 
567	 7.22755563339846E-02 
568	 0.07152973216615 
569	 7.08282216608949E-02 
570	 7.01850291253436E-02 
571	 0.06957163441784 
572	 6.89256748546888E-02 
573	 6.82953761595464E-02 
574	 6.77337399416097E-02 
575	 6.72464187136134E-02 
576	 6.67354034239305E-02 
577	 6.62307259649641E-02 
578	 6.57653301355913E-02 
579	 6.53664811493381E-02 
580	 6.49985193090111E-02 
581	 6.46893090231222E-02 
582	 6.44394975057956E-02 
583	 0.064207051125917 
584	 6.40678023469758E-02 
585	 0.063998553991805 
586	 0.063945251435849 
587	 6.38323869278637E-02 
588	 6.38427675156776E-02 
589	 6.39516199214759E-02 
590	 6.39777185929903E-02 
591	 6.39288696788321E-02 
592	 6.39082709085265E-02 
593	 6.39810396915812E-02 
594	 6.41394700015104E-02 
595	 6.41620890112557E-02 
596	 0.064118754950952 
597	 6.41617271145427E-02 
598	 6.42822838697978E-02 
599	 6.43358807724924E-02 
600	 6.43412842990403E-02 
601	 6.44742611089496E-02 
602	 6.45007237670498E-02 
603	 6.44852792754625E-02 
604	 6.45160113362404E-02 
605	 6.45826349553291E-02 
606	 6.46211012776054E-02 
607	 6.46082206922499E-02 
608	 0.064558031160949 
609	 6.45816062379093E-02 
610	 6.45644695973618E-02 
611	 6.44817210107432E-02 
612	 6.44622503848393E-02 
613	 6.44373959313081E-02 
614	 0.064357364262331 
615	 6.42154568036116E-02 
616	 6.41501257835066E-02 
617	 6.40237993869422E-02 
618	 6.38691333783108E-02 
619	 6.38209337943514E-02 
620	 6.37236934481509E-02 
621	 6.36843084329807E-02 
622	 6.37448948276713E-02 
623	 6.37579910113348E-02 
624	 6.37596539767571E-02 
625	 6.37689574629097E-02 
626	 0.06380315909072 
627	 6.38752505966463E-02 
628	 6.39695890330862E-02 
629	 0.064055652525395 
630	 6.40934843116206E-02 
631	 6.41473042343541E-02 
632	 0.064162482260109 
633	 6.40892152938638E-02 
634	 6.39472100859584E-02 
635	 6.37392802003676E-02 
636	 6.34989871750588E-02 
637	 6.32560929174534E-02 
638	 6.29087602347091E-02 
639	 6.25170081618887E-02 
640	 6.21034101624711E-02 
641	 6.16381397981887E-02 
642	 6.11977078630642E-02 
643	 6.07516075775621E-02 
644	 6.02788130395806E-02 
645	 5.99027936403747E-02 
646	 5.95096704231156E-02 
647	 5.91357628281916E-02 
648	 5.89001347525394E-02 
649	 5.87697215581517E-02 
650	 5.85900207780096E-02 
651	 5.83629782626305E-02 
652	 5.83512386290208E-02 
653	 5.83197171850341E-02 
654	 5.82687834089738E-02 
655	 5.82607038828863E-02 
656	 5.83346667949064E-02 
657	 5.82948406585097E-02 
658	 5.81190389526961E-02 
659	 5.79328545735048E-02 
660	 5.78537385524659E-02 
661	 5.77570839104052E-02 
662	 5.75681711497513E-02 
663	 5.73593817325974E-02 
664	 5.72059736844789E-02 
665	 5.70392600763574E-02 
666	 5.68041318451431E-02 
667	 5.68113014906287E-02 
668	 0.056736107854618 
669	 5.65629700737969E-02 
670	 5.65682417202768E-02 
671	 5.65807861582214E-02 
672	 5.66407997707819E-02 
673	 5.67667448599246E-02 
674	 5.68360837970375E-02 
675	 5.70182382499562E-02 
676	 5.72479349023092E-02 
677	 5.74042590678758E-02 
678	 5.76276051567744E-02 
679	 5.79046818369309E-02 
680	 5.82402376929304E-02 
681	 5.86639820722765E-02 
682	 5.91408577915925E-02 
683	 0.059766568959948 
684	 6.05843221398859E-02 
685	 6.14103193128623E-02 
686	 6.25751434886554E-02 
687	 6.40872181922669E-02 
688	 6.56410666751845E-02 
689	 6.71860788866894E-02 
690	 6.88627292119756E-02 
691	 7.08762798869673E-02 
692	 7.33280319391255E-02 
693	 0.076081218271031 
694	 7.92977266549797E-02 
695	 8.30893728401874E-02 
696	 8.73224255725576E-02 
697	 9.20882838734215E-02 
698	 9.73353046989754E-02 
699	 0.102960217945281 
700	 0.109187859801682 
701	 0.115890904791837 
702	 0.122916575319754 
703	 0.130102103670117 
704	 0.137572652318802 
705	 0.145247223831011 
706	 0.153105474431251 
707	 0.16116229119674 
708	 0.169520269846716 
709	 0.178085385033665 
710	 0.186674722414607 
711	 0.195703718935539 
712	 0.204948738812351 
713	 0.214312657261455 
714	 0.223903504732143 
715	 0.233547905039514 
716	 0.243152959253698 
717	 0.253003423000877 
718	 0.26341205582292 
719	 0.274327765468689 
720	 0.285455655099346 
721	 0.29645917887404 
722	 0.306828540149918 
723	 0.316959067669791 
724	 0.327473482901246 
725	 0.337914070032426 
726	 0.348259343669732 
727	 0.358348703895957 
728	 0.368294178209209 
729	 0.37800890224452 
730	 0.387359151120246 
731	 0.396334259817501 
732	 0.40503171010574 
733	 0.413402125868771 
734	 0.421278003983173 
735	 0.428736378278694 
736	 0.435864888709306 
737	 0.442638325932352 
738	 0.44896515722424 
739	 0.454907126606686 
740	 0.460574198235004 
741	 0.465945040411536 
742	 0.470854351793487 
743	 0.475171690383465 
744	 0.479343829444438 
745	 0.483073572917491 
746	 0.4863829403255 
747	 0.489528547840495 
748	 0.492395019806313 
749	 0.494962771610184 
750	 0.49728640219396 
751	 0.499528308405943 
752	 0.501454384500732 
753	 0.50317693779384 
754	 0.504799190187329 
755	 0.506023789725268 
756	 0.507051362263925 
757	 0.507989460297386 
758	 0.509066309070029 
759	 0.512028760853767 
760	 0.516383805218542 
761	 0.520187571208232 
762	 0.519527450269767 
763	 0.518958238222692 
764	 0.518505355517595 
765	 0.51759535329415 
766	 0.516604977165409 
767	 0.515938871183358 
768	 0.5156495872803 
769	 0.515664346749848 
770	 0.515787936805327 
771	 0.516015868105845 
772	 0.516237923841616 
773	 0.516285061002727 
774	 0.516501120647487 
775	 0.516681025581434 
776	 0.516746328155401 
777	 0.516975395632199 
778	 0.517222465726181 
779	 0.517403970496891 
780	 0.517497338037447 
781	 0.517627612206925 
782	 0.517783827496993 
783	 0.517983973219334 
784	 0.518225445455159 
785	 0.518276270522782 
786	 0.518356269807219 
787	 0.5185044150924 
788	 0.518538558497283 
789	 0.51870378944046 
790	 0.518819507263841 
791	 0.518836690379321 
792	 0.519144647951197 
793	 0.519545501001659 
794	 0.519866838490406 
795	 0.519991074209255 
796	 0.519979288883393 
797	 0.520026176924915 
798	 0.520233888956168 
799	 0.52058233523262 
800	 0.520705145505978 
801	 0.520692921596705 
802	 0.520717046409118 
803	 0.520962918158641 
804	 0.521275689812721 
805	 0.521513962109716 
806	 0.52165752088023 
807	 0.521932417683611 
808	 0.522101809158059 
809	 0.52213876030081 
810	 0.522052079715429 
811	 0.521707417881466 
812	 0.521290289286694 
813	 0.520907018438693 
814	 0.520588808476303 
815	 0.520177412226528 
816	 0.520062465953447 
817	 0.520320887937447 
818	 0.520619234311593 
819	 0.520769467000001 
820	 0.520981496741134 
821	 0.521386574996118 
822	 0.521872687895301 
823	 0.522005759174479 
824	 0.52192198971677 
825	 0.521962923574834 
826	 0.522521495934246 
827	 0.522916830499714 
828	 0.523009726318966 
829	 0.522930336468087 
830	 0.522865401665989 
831	 0.522960821507173 
832	 0.523299985682289 
833	 0.523848140864476 
834	 0.524058436480788 
835	 0.524231278001899 
836	 0.524559948221306 
837	 0.52497382016652 
838	 0.525319651175885 
839	 0.52565158379429 
840	 0.526023208775573 
841	 0.526407674623872 
842	 0.526595879994159 
843	 0.526821933678171 
844	 0.527244255729997 
845	 0.527328320970857 
846	 0.527358338217782 
847	 0.527532623243204 
848	 0.527936211710931 
849	 0.528357077768314 
850	 0.528413693797349 
851	 0.528294673030365 
852	 0.528588639998206 
853	 0.529320659036259 
854	 0.529860958808126 
855	 0.529858916313037 
856	 0.529454545326327 
857	 0.529393810211865 
858	 0.529750452577962 
859	 0.53027000652946 
860	 0.530422809576866 
861	 0.530354903956187 
862	 0.53025125380064 
863	 0.530324110873478 
864	 0.530800747435476 
865	 0.531405868444776 
866	 0.53187116183868 
867	 0.531968198060693 
868	 0.531592458658357 
869	 0.531306141039404 
870	 0.531309669417829 
871	 0.531553429177904 
872	 0.531890674707306 
873	 0.532201184135025 
874	 0.532350819979222 
875	 0.532267557312531 
876	 0.532335024953537 
877	 0.53228924613937 
878	 0.532125436551623 
879	 0.532143142366788 
880	 0.532348256144189 
881	 0.532398453373079 
882	 0.532270474810121 
883	 0.532414265116701 
884	 0.532487012849297 
885	 0.532473760922054 
886	 0.532434880071055 
887	 0.53244515798588 
888	 0.532276969788533 
889	 0.532054925902678 
890	 0.531863158337193 
891	 0.531432508068763 
892	 0.531098539707197 
893	 0.530796042800817 
894	 0.53035700663672 
895	 0.5297753350727 
896	 0.528919176772165 
897	 0.528459355074875 
898	 0.528912061414063 
899	 0.528531465056782 
900	 0.528022656759501 
901	 0.527770499818993 
902	 0.527813471176465 
903	 0.527697476630781 
904	 0.52736606164556 
905	 0.527276497223906 
906	 0.527908754967692 
907	 0.527911917041742 
908	 0.52772119328192 
909	 0.527285068611025 
910	 0.526253925581983 
911	 0.52612888743419 
912	 0.525882327471758 
913	 0.525555420279971 
914	 0.526250497910265 
915	 0.526316910832419 
916	 0.526142394699266 
917	 0.526074551456945 
918	 0.5260472279227 
919	 0.525421313851679 
920	 0.525005548748763 
921	 0.525149352431627 
922	 0.525302822993904 
923	 0.524743787728297 
924	 0.52376436868 
925	 0.522606596423927 
926	 0.521103867636237 
927	 0.519276671527799 
928	 0.517671651297811 
929	 0.516325196129335 
930	 0.514134153020693 
931	 0.512242652121118 
932	 0.510800408482414 
933	 0.509170696023003 
934	 0.505781956878802 
935	 0.503199208621664 
936	 0.501443990746729 
937	 0.49982095881268 
938	 0.497902661710411 
939	 0.497110923827311 
940	 0.496988328318056 
941	 0.496924485044868 
942	 0.496917972290665 
943	 0.496314277961241 
944	 0.495249998409185 
945	 0.493776566005052 
946	 0.491312313330794 
947	 0.489567400872498 
948	 0.488526733410246 
949	 0.487370264772773 
950	 0.484839393166475 
951	 0.482687929566314 
952	 0.481265887952686 
953	 0.480168813780396 
954	 0.478318736946455 
955	 0.478009336576088 
956	 0.477131115974835 
957	 0.474565085223098 
958	 0.473197213386049 
959	 0.472567244423879 
960	 0.472293662950307 
961	 0.472127477405555 
962	 0.472136302597403 
963	 0.472145027500915 
964	 0.471979766634678 
965	 0.471661906175819 
966	 0.471502687118117 
967	 0.472456361131142 
968	 0.472952984453685 
969	 0.472276394563946 
970	 0.471869766460419 
971	 0.472826778939164 
972	 0.473631386066638 
973	 0.473574145137936 
974	 0.473890143469002 
975	 0.474520339923606 
976	 0.475107524768708 
977	 0.475206845380433 
978	 0.474529452732718 
979	 0.474227553656471 
980	 0.474322633205491 
981	 0.474777728523503 
982	 0.475664837300133 
983	 0.476769846627542 
984	 0.477368350200137 
985	 0.477519568331278 
986	 0.478046438766264 
987	 0.479431774959435 
988	 0.480449610460443 
989	 0.480700100982042 
990	 0.48081702637586 
991	 0.482274600229347 
992	 0.483374380100689 
993	 0.483550118497607 
994	 0.483333924784228 
995	 0.483506276359174 
996	 0.484810302307858 
997	 0.485817814497011 
998	 0.485176809152875 
999	 0.486292859587131 
1000	 0.487523383369926 
1001	 0.49499881891646 
1002	 0.49572446786625 
1003	 0.496509622356004 
1004	 0.497435535771094 
1005	 0.498182329091721 
1006	 0.498779711922259 
1007	 0.499513020317744 
1008	 0.500245564368843 
1009	 0.501057533409982 
1010	 0.501926310807551 
1011	 0.502904271898546 
1012	 0.503877590462707 
1013	 0.504688013768024 
1014	 0.505406089957593 
1015	 0.506106496414601 
1016	 0.506831359907485 
1017	 0.507564306279069 
1018	 0.508298089038556 
1019	 0.509081445346602 
1020	 0.509865964774687 
1021	 0.510597527671293 
1022	 0.511365722189201 
1023	 0.512163315908634 
1024	 0.5130818672176 
1025	 0.513867570772656 
1026	 0.51467387524627 
1027	 0.515529751662317 
1028	 0.516191276420609 
1029	 0.516744688734971 
1030	 0.517414893752899 
1031	 0.518117023663624 
1032	 0.518734813530849 
1033	 0.519370634310393 
1034	 0.520121812322765 
1035	 0.520672358780997 
1036	 0.521009391456249 
1037	 0.521554421683342 
1038	 0.52211384563071 
1039	 0.522719069917402 
1040	 0.523385336572492 
1041	 0.524001148058927 
1042	 0.524482985895839 
1043	 0.524822213804869 
1044	 0.525150723586854 
1045	 0.52558517506708 
1046	 0.526074734768588 
1047	 0.526584828271372 
1048	 0.527088739864025 
1049	 0.527485475564949 
1050	 0.527888682831796 
1051	 0.528227349092299 
1052	 0.52860370932328 
1053	 0.528940953590085 
1054	 0.529283301463212 
1055	 0.529636591634702 
1056	 0.529886256754601 
1057	 0.530247071470875 
1058	 0.530646681012925 
1059	 0.530901540758894 
1060	 0.531231621579392 
1061	 0.531497986049627 
1062	 0.531725573934261 
1063	 0.531934443533809 
1064	 0.532015645865259 
1065	 0.532149141300837 
1066	 0.532251694195651 
1067	 0.53237279883 
1068	 0.532514647366156 
1069	 0.532672971645782 
1070	 0.532817409368216 
1071	 0.532835007469055 
1072	 0.532777707492048 
1073	 0.532818968580025 
1074	 0.532827689131795 
1075	 0.53280597305924 
1076	 0.532857303563299 
1077	 0.532761123973946 
1078	 0.532499457452519 
1079	 0.53231332825183 
1080	 0.532113415499917 
1081	 0.531963527750816 
1082	 0.531871706322419 
1083	 0.531881894752413 
1084	 0.531690023482531 
1085	 0.531483148956098 
1086	 0.531288228999993 
1087	 0.530908223583113 
1088	 0.530513437021579 
1089	 0.530144519488643 
1090	 0.529705080800918 
1091	 0.529269674515553 
1092	 0.528816190269835 
1093	 0.528228903173796 
1094	 0.5276904778451 
1095	 0.527163762834666 
1096	 0.526572404015299 
1097	 0.526044331279909 
1098	 0.525447957039921 
1099	 0.524776696863019 
1100	 0.523981179478692 
1101	 0.523252586222796 
1102	 0.522575494306664 
1103	 0.521822387142201 
1104	 0.520985694980466 
1105	 0.520131875537756 
1106	 0.519220514568676 
1107	 0.518293093517667 
1108	 0.517244640147201 
1109	 0.516151060695558 
1110	 0.514949538446506 
1111	 0.513651578398883 
1112	 0.512160761692839 
1113	 0.51069101166846 
1114	 0.50907405875635 
1115	 0.507351947058249 
1116	 0.505518999474788 
1117	 0.503515354450223 
1118	 0.501462340217541 
1119	 0.499360141291443 
1120	 0.497302670328577 
1121	 0.495386011226294 
1122	 0.493431565628278 
1123	 0.491492733659283 
1124	 0.489557067244486 
1125	 0.48764221175283 
1126	 0.486022911260624 
1127	 0.484908528687163 
1128	 0.483380225425732 
1129	 0.482215185432145 
1130	 0.480463691731919 
1131	 0.478353703620236 
1132	 0.476193883411358 
1133	 0.473923428506319 
1134	 0.471518565286204 
1135	 0.468952473318275 
1136	 0.466439579179142 
1137	 0.463764358756581 
1138	 0.460915487170361 
1139	 0.457926501598792 
1140	 0.454553511052914 
1141	 0.451120948158964 
1142	 0.447799349754207 
1143	 0.444500758839793 
1144	 0.441272894070238 
1145	 0.437990389616054 
1146	 0.434553501949446 
1147	 0.431414694652544 
1148	 0.428346089740668 
1149	 0.425678686882997 
1150	 0.423166976969754 
1151	 0.421274534933318 
1152	 0.419972443250202 
1153	 0.418775466884325 
1154	 0.41784017338436 
1155	 0.41729780827508 
1156	 0.416574197107061 
1157	 0.41589379725529 
1158	 0.415513943695727 
1159	 0.415199172372887 
1160	 0.414918438198259 
1161	 0.414737816117474 
1162	 0.414578967120296 
1163	 0.414442374393206 
1164	 0.414317620636789 
1165	 0.414266899752389 
1166	 0.414163517872426 
1167	 0.414062450515017 
1168	 0.413924903320526 
1169	 0.41374374731759 
1170	 0.413568712882567 
1171	 0.413443876631374 
1172	 0.413222390053175 
1173	 0.41298378217295 
1174	 0.412837524105359 
1175	 0.412699464389683 
1176	 0.412520715780098 
1177	 0.412344497827173 
1178	 0.412209630286027 
1179	 0.412013327187803 
1180	 0.411737010501975 
1181	 0.411542448343299 
1182	 0.411382753483498 
1183	 0.411200226178039 
1184	 0.411035424270572 
1185	 0.410865464447668 
1186	 0.410700672424016 
1187	 0.410518586023571 
1188	 0.410327967765133 
1189	 0.410118691983308 
1190	 0.410009359971849 
1191	 0.409856859086866 
1192	 0.409694124583029 
1193	 0.409611168287008 
1194	 0.409540563107336 
1195	 0.409421150179565 
1196	 0.40940785831337 
1197	 0.409487879681696 
1198	 0.409585356831697 
1199	 0.409725252416463 
1200	 0.409866587155147 
1201	 0.410047747905219 
1202	 0.410257964968595 
1203	 0.410485866980857 
1204	 0.410722392354794 
1205	 0.41099453245665 
1206	 0.411269626348548 
1207	 0.411520834494585 
1208	 0.411812713572293 
1209	 0.412101777531683 
1210	 0.412470577122914 
1211	 0.412933618039815 
1212	 0.413419473309191 
1213	 0.413869072643352 
1214	 0.414385423908165 
1215	 0.414838692425231 
1216	 0.415208896763257 
1217	 0.415643153864222 
1218	 0.416128217390741 
1219	 0.416567568571206 
1220	 0.416954736207296 
1221	 0.417418762078386 
1222	 0.417943377999935 
1223	 0.418402140988685 
1224	 0.418905179299375 
1225	 0.419354706345785 
1226	 0.419714671376078 
1227	 0.420097317381451 
1228	 0.42048225104758 
1229	 0.420841584875065 
1230	 0.421249817120992 
1231	 0.421637334512734 
1232	 0.422070193791772 
1233	 0.422558374786224 
1234	 0.423001028185174 
1235	 0.42345099719542 
1236	 0.423877804924141 
1237	 0.424296843205593 
1238	 0.424685125602842 
1239	 0.425057367017218 
1240	 0.425409093181827 
1241	 0.42572153429472 
1242	 0.426046189313956 
1243	 0.426354372175955 
1244	 0.42667605085439 
1245	 0.427015122507426 
1246	 0.427333030231441 
1247	 0.427659276009617 
1248	 0.427957619766342 
1249	 0.428241188670513 
1250	 0.428497641426925 
1251	 0.428675280375893 
1252	 0.428949600871194 
1253	 0.429165272176173 
1254	 0.429369484330224 
1255	 0.42954753782426 
1256	 0.42970852351314 
1257	 0.429860635788038 
1258	 0.430011999791834 
1259	 0.43009660030005 
1260	 0.430122737123411 
1261	 0.430192867502307 
1262	 0.430216281975621 
1263	 0.43026943133785 
1264	 0.430401020173437 
1265	 0.430461974877488 
1266	 0.43049917751019 
1267	 0.430490444430144 
1268	 0.430480780186093 
1269	 0.430382443793933 
1270	 0.430165303663032 
1271	 0.42998164221939 
1272	 0.429743662037763 
1273	 0.429525567251712 
1274	 0.429308248711198 
1275	 0.429129910526016 
1276	 0.428890969976116 
1277	 0.42862946733176 
1278	 0.428340651311552 
1279	 0.428059487838698 
1280	 0.427672253334106 
1281	 0.427204633761084 
1282	 0.426751442363687 
1283	 0.426242046688435 
1284	 0.425721636363544 
1285	 0.425204738498013 
1286	 0.424663339112479 
1287	 0.424093750749013 
1288	 0.423485640430856 
1289	 0.422904466843168 
1290	 0.422220410673651 
1291	 0.421464682310171 
1292	 0.420647482160616 
1293	 0.41968015131759 
1294	 0.418776779398881 
1295	 0.417864486652194 
1296	 0.416937041361296 
1297	 0.41594379717343 
1298	 0.414965574065078 
1299	 0.4138971088821 
1300	 0.412723287732883 
1301	 0.411546485667541 
1302	 0.410398883938607 
1303	 0.409062481416732 
1304	 0.407591788223396 
1305	 0.406100526701877 
1306	 0.404449328562715 
1307	 0.402861819601675 
1308	 0.401327686242657 
1309	 0.399650456200965 
1310	 0.397902526475692 
1311	 0.39611223260203 
1312	 0.394213983315048 
1313	 0.39229374773475 
1314	 0.390365467265058 
1315	 0.388373086179314 
1316	 0.386308055102291 
1317	 0.384218922444775 
1318	 0.382061826183822 
1319	 0.379910455872065 
1320	 0.377720860284633 
1321	 0.375497572978829 
1322	 0.37326402099447 
1323	 0.371006118253294 
1324	 0.368671440323332 
1325	 0.366248264232714 
1326	 0.363784111270962 
1327	 0.361208098615526 
1328	 0.358589376642183 
1329	 0.355864962243975 
1330	 0.353155927012461 
1331	 0.350343358813637 
1332	 0.347690932865956 
1333	 0.34518939371942 
1334	 0.342643184123662 
1335	 0.340089023043989 
1336	 0.337729554161157 
1337	 0.335374624734879 
1338	 0.333131731113519 
1339	 0.331056235788529 
1340	 0.328933245940543 
1341	 0.326535997452145 
1342	 0.32432406733527 
1343	 0.321965311531329 
1344	 0.319661687086446 
1345	 0.317227663796009 
1346	 0.314869858422465 
1347	 0.312253477592672 
1348	 0.30945121802255 
1349	 0.306729516313376 
1350	 0.304059251954982 
1351	 0.300983924537753 
1352	 0.298496391967019 
1353	 0.294862822259969 
1354	 0.290701969817098 
1355	 0.285794053847252 
1356	 0.282001824910362 
1357	 0.276348884359409 
1358	 0.27477052020471 
1359	 0.269085858297434 
1360	 0.267056816562 
1361	 0.261050825169425 
1362	 0.25649061648991 
1363	 0.249347199248183 
1364	 0.250306774903007 
1365	 0.244121561498693 
1366	 0.241538212133168 
1367	 0.233582742003301 
1368	 0.222154314803848 
1369	 0.215930761863178 
1370	 0.210923598955977 
1371	 0.207846807355637 
1372	 0.207813619992552 
1373	 0.2058843711878 
1374	 0.201767415932345 
1375	 0.200698190786907 
1376	 0.199572940145608 
1377	 0.198062213016186 
1378	 0.195672661057357 
1379	 0.193790119083167 
1380	 0.190097123581072 
1381	 0.184263001586202 
1382	 0.179577029383204 
1383	 0.176261074755789 
1384	 0.170591835297422 
1385	 0.164834185764393 
1386	 0.158792848741358 
1387	 0.152030680166411 
1388	 0.14665207427469 
1389	 0.140996092943937 
1390	 0.137811599712272 
1391	 0.136657474863706 
1392	 0.134032658045651 
1393	 0.132029154980192 
1394	 0.129473914378711 
1395	 0.125981295835106 
1396	 0.122409115188967 
1397	 0.118953168511888 
1398	 0.115659224194627 
1399	 0.111352325945903 
1400	 0.108313920238687 
1401	 0.106547893169413 
1402	 0.104257479759036 
1403	 0.102298791181734 
1404	 0.100302285551242 
1405	 9.83372019818649E-02 
1406	 9.63638197402588E-02 
1407	 9.38542032904971E-02 
1408	 0.092518609192896 
1409	 9.15501333517221E-02 
1410	 9.03479070079957E-02 
1411	 8.94484469319504E-02 
1412	 8.91253426968819E-02 
1413	 8.80568365439883E-02 
1414	 8.67467034971532E-02 
1415	 8.57084321083874E-02 
1416	 8.44233899607147E-02 
1417	 8.38491147577584E-02 
1418	 8.36578495139853E-02 
1419	 8.31613997916943E-02 
1420	 8.28209057235969E-02 
1421	 8.23954785038322E-02 
1422	 8.16897571969032E-02 
1423	 8.13320158535915E-02 
1424	 8.12390572654003E-02 
1425	 8.09705807951253E-02 
1426	 8.07583768327731E-02 
1427	 0.08042354843665 
1428	 7.99054418264658E-02 
1429	 7.95395924680121E-02 
1430	 7.91356522048081E-02 
1431	 7.88235760713499E-02 
1432	 7.86338499001335E-02 
1433	 7.83837075140368E-02 
1434	 7.81309869614081E-02 
1435	 7.79014231795942E-02 
1436	 7.75696820990503E-02 
1437	 7.74312291823367E-02 
1438	 7.75106203855665E-02 
1439	 7.74619798191016E-02 
1440	 7.74222366164981E-02 
1441	 7.74048145992576E-02 
1442	 7.73116629045222E-02 
1443	 7.71969777082343E-02 
1444	 7.72709359219206E-02 
1445	 7.74921683109139E-02 
1446	 7.77646885116628E-02 
1447	 7.80382098333186E-02 
1448	 7.82272241930773E-02 
1449	 0.078404670620945 
1450	 0.078545356227832 
1451	 7.85969299321009E-02 
1452	 7.87544192394091E-02 
1453	 7.89766859080797E-02 
1454	 7.91087068339963E-02 
1455	 7.92378412870626E-02 
1456	 7.93488417272931E-02 
1457	 7.94235786522966E-02 
1458	 7.94857415625911E-02 
1459	 7.95288392630778E-02 
1460	 7.96362327440777E-02 
1461	 7.97275849259152E-02 
1462	 0.079876890318301 
1463	 8.01437295440059E-02 
1464	 8.03568511063319E-02 
1465	 8.05068198778172E-02 
1466	 8.08120206032999E-02 
1467	 0.081121816800077 
1468	 0.081601537939045 
1469	 8.22632919787327E-02 
1470	 8.29311247544791E-02 
1471	 0.083752867921794 
1472	 8.44474923168197E-02 
1473	 8.49722536219514E-02 
1474	 8.56815980193443E-02 
1475	 8.63964224985377E-02 
1476	 8.71274006146805E-02 
1477	 8.79886610727763E-02 
1478	 8.87911909264155E-02 
1479	 8.94862738419068E-02 
1480	 9.02613250982686E-02 
1481	 9.09964800674892E-02 
1482	 9.18664943469061E-02 
1483	 9.28041793950933E-02 
1484	 9.37715275123644E-02 
1485	 9.48608904953365E-02 
1486	 9.59039521132902E-02 
1487	 9.69687534321197E-02 
1488	 0.097938205802291 
1489	 9.88240289555251E-02 
1490	 9.96322775692049E-02 
1491	 0.100514811263416 
1492	 0.101406385099749 
1493	 0.102312442803612 
1494	 0.103282760230247 
1495	 0.104179413033877 
1496	 0.105011779343643 
1497	 0.105923623311479 
1498	 0.106882977859157 
1499	 0.107834165049769 
1500	 0.108810394936694 
1501	 0.109825297895001 
1502	 0.110863677410408 
1503	 0.111937133551645 
1504	 0.113067699352857 
1505	 0.114166462231538 
1506	 0.115303543212976 
1507	 0.116343067352509 
1508	 0.117342460447253 
1509	 0.118319101080372 
1510	 0.119203547005078 
1511	 0.120168791957045 
1512	 0.121132189925901 
1513	 0.122168719073624 
1514	 0.123268863961795 
1515	 0.124366014091431 
1516	 0.125543037693625 
1517	 0.12665451670588 
1518	 0.127771314170049 
1519	 0.128847488468892 
1520	 0.129853721918076 
1521	 0.13093376938205 
1522	 0.132028653410999 
1523	 0.133123523267979 
1524	 0.134266777843197 
1525	 0.13539475154704 
1526	 0.136494901746451 
1527	 0.13762840547875 
1528	 0.138851487632994 
1529	 0.139962327152371 
1530	 0.141016231228461 
1531	 0.142085121784194 
1532	 0.14308511579833 
1533	 0.144122292060081 
1534	 0.145198535863223 
1535	 0.146264293746077 
1536	 0.147315382821164 
1537	 0.148382071492518 
1538	 0.14945860439719 
1539	 0.150547046798125 
1540	 0.15167733089726 
1541	 0.152758213635726 
1542	 0.153819796509599 
1543	 0.154882047818183 
1544	 0.155889624512864 
1545	 0.156940424077128 
1546	 0.15804407039858 
1547	 0.159115646412712 
1548	 0.160167983092736 
1549	 0.161251499683225 
1550	 0.162365984273285 
1551	 0.163440224820018 
1552	 0.164552549689987 
1553	 0.165603424846078 
1554	 0.166570113887589 
1555	 0.167549154420242 
1556	 0.168498658373372 
1557	 0.169456854105163 
1558	 0.17042081634923 
1559	 0.171374960879464 
1560	 0.17233647546099 
1561	 0.173281232329869 
1562	 0.174223812469784 
1563	 0.175147242323179 
1564	 0.17604013234801 
1565	 0.17693779564894 
1566	 0.177900480347623 
1567	 0.178864642173374 
1568	 0.179837776491785 
1569	 0.180884908321046 
1570	 0.181813968652451 
1571	 0.182665054279855 
1572	 0.18359812075246 
1573	 0.184517488938811 
1574	 0.185427974113739 
1575	 0.186361528718814 
1576	 0.187291529865068 
1577	 0.188174758411712 
1578	 0.189079988660307 
1579	 0.190036675210587 
1580	 0.190890431606362 
1581	 0.191655948538132 
1582	 0.192507196519615 
1583	 0.193373817117201 
1584	 0.194181408881729 
1585	 0.195016272314805 
1586	 0.195787681959373 
1587	 0.196462937267328 
1588	 0.197220042297134 
1589	 0.198004894854828 
1590	 0.198783342517874 
1591	 0.199603407042015 
1592	 0.200329924507347 
1593	 0.201028476444882 
1594	 0.201702491748919 
1595	 0.202286904451626 
1596	 0.202976425866617 
1597	 0.203703487997954 
1598	 0.204431846657063 
1599	 0.205230191522844 
1600	 0.205931604760464 
1601	 0.206599405123847 
1602	 0.207251816211708 
1603	 0.207852166862284 
1604	 0.208464532603103 
1605	 0.209061447397798 
1606	 0.20967978849795 
1607	 0.210269268885391 
1608	 0.210925345609349 
1609	 0.211647820236441 
1610	 0.212282465143037 
1611	 0.212913107714853 
1612	 0.213524799039313 
1613	 0.214062055221435 
1614	 0.214662707726826 
1615	 0.215323230848127 
1616	 0.215891108439357 
1617	 0.216430482962718 
1618	 0.216955238370677 
1619	 0.217405468734304 
1620	 0.217932626673 
1621	 0.218526574669422 
1622	 0.219006731548087 
1623	 0.219454201410683 
1624	 0.219913873707806 
1625	 0.220273242924379 
1626	 0.220772567559557 
1627	 0.221429305606689 
1628	 0.221870279853508 
1629	 0.222246317665244 
1630	 0.22265999168153 
1631	 0.2229714305768 
1632	 0.223343569763806 
1633	 0.223783689652382 
1634	 0.22422925725899 
1635	 0.224638085265006 
1636	 0.225107336317862 
1637	 0.225694642581957 
1638	 0.226156858595067 
1639	 0.226571073847306 
1640	 0.226965462101258 
1641	 0.227271965318548 
1642	 0.227695414305084 
1643	 0.228185726134034 
1644	 0.228548244598809 
1645	 0.228920540404874 
1646	 0.229257740439305 
1647	 0.229451015249032 
1648	 0.229773563838186 
1649	 0.230211564574439 
1650	 0.23049637948362 
1651	 0.230748746660504 
1652	 0.230944869562711 
1653	 0.231042286193824 
1654	 0.231176996832444 
1655	 0.231276213414781 
1656	 0.231483938379814 
1657	 0.231722746150501 
1658	 0.232013468496415 
1659	 0.232261503770864 
1660	 0.232320485346791 
1661	 0.232499595775566 
1662	 0.232776514640151 
1663	 0.232967968061625 
1664	 0.233149733973591 
1665	 0.233357187697545 
1666	 0.233457756545825 
1667	 0.233512947904655 
1668	 0.233580062966743 
1669	 0.233595712224845 
1670	 0.233572820371747 
1671	 0.233540341860509 
1672	 0.233556040754059 
1673	 0.233655431712199 
1674	 0.233806618999278 
1675	 0.233880658304253 
1676	 0.233862014272249 
1677	 0.233806827552046 
1678	 0.233696395709837 
1679	 0.233580809008472 
1680	 0.233529823843605 
1681	 0.233426930019646 
1682	 0.233159105559866 
1683	 0.232931913639166 
1684	 0.232762124591194 
1685	 0.23257607076544 
1686	 0.232485184294643 
1687	 0.232322409064155 
1688	 0.231994021510547 
1689	 0.231653559972319 
1690	 0.231386269656915 
1691	 0.23110421105258 
1692	 0.230926802108059 
1693	 0.23064221175631 
1694	 0.230163361441371 
1695	 0.229827658530508 
1696	 0.229591658470894 
1697	 0.229254100494941 
1698	 0.228922830506648 
1699	 0.228635318940209 
1700	 0.228269645328383 
1701	 0.227926810678998 
1702	 0.227724965222363 
1703	 0.227424905946499 
1704	 0.22698331093538 
1705	 0.226627782387279 
1706	 0.22628347255566 
1707	 0.225954797834855 
1708	 0.225698464535317 
1709	 0.225412727005311 
1710	 0.225157456009372 
1711	 0.224782528909087 
1712	 0.224348873096739 
1713	 0.223892781466039 
1714	 0.223326663372663 
1715	 0.222824078106905 
1716	 0.222302049214097 
1717	 0.221849208614634 
1718	 0.221495092750111 
1719	 0.221030319771634 
1720	 0.22052743085646 
1721	 0.220053811449882 
1722	 0.219608328411315 
1723	 0.218981097645734 
1724	 0.218246196621005 
1725	 0.217608231473089 
1726	 0.216814734054606 
1727	 0.216152068650478 
1728	 0.215721478060704 
1729	 0.215161883419552 
1730	 0.214488102046885 
1731	 0.213996164544952 
1732	 0.213434661189623 
1733	 0.212770086018863 
1734	 0.212082422915649 
1735	 0.211314278580022 
1736	 0.210511384338812 
1737	 0.209761410326159 
1738	 0.209153437944186 
1739	 0.208521815726678 
1740	 0.207817649507383 
1741	 0.206929314956618 
1742	 0.205866326766569 
1743	 0.205007432596002 
1744	 0.204081445089689 
1745	 0.203231813979181 
1746	 0.202599278860862 
1747	 0.201682871176248 
1748	 0.200857168003693 
1749	 0.200238364640099 
1750	 0.199502670991028 
1751	 0.198620506987421 
1752	 0.197633175582964 
1753	 0.19668638018739 
1754	 0.195687517207358 
1755	 0.194921429006857 
1756	 0.194193980550499 
1757	 0.193215551332044 
1758	 0.192423281688778 
1759	 0.191629229165227 
1760	 0.190870521029809 
1761	 0.190315956341565 
1762	 0.18952022864669 
1763	 0.18856728861391 
1764	 0.187751648529198 
1765	 0.186896578617357 
1766	 0.186052618529749 
1767	 0.185254547776861 
1768	 0.184480249327536 
1769	 0.183696555988131 
1770	 0.183002992942179 
1771	 0.182396962764825 
1772	 0.181723235737144 
1773	 0.180954214911343 
1774	 0.180253512668798 
1775	 0.179827440827916 
1776	 0.179194604460742 
1777	 0.178708316101293 
1778	 0.178464365788277 
1779	 0.177924830016253 
1780	 0.177629554850535 
1781	 0.17758662715459 
1782	 0.177198517685082 
1783	 0.176781424797887 
1784	 0.176280122534866 
1785	 0.175637412672942 
1786	 0.175239117323118 
1787	 0.174864739296882 
1788	 0.174597697941064 
1789	 0.174208276193868 
1790	 0.173551021113784 
1791	 0.173062957796307 
1792	 0.172294995859616 
1793	 0.171696962256317 
1794	 0.171465399967566 
1795	 0.170846884258771 
1796	 0.170489694422416 
1797	 0.17022921826281 
1798	 0.169271976827835 
1799	 0.168610747844524 
1800	 0.168648126886115 
1801	 0.173521519079789 
1802	 0.174329818260471 
1803	 0.173951336779028 
1804	 0.172292404305616 
1805	 0.171237024756084 
1806	 0.169676580321582 
1807	 0.168365788461785 
1808	 0.166911534692041 
1809	 0.166471512785842 
1810	 0.165527950967573 
1811	 0.163872840223506 
1812	 0.163842774303215 
1813	 0.165686615853204 
1814	 0.166027483889687 
1815	 0.167041034665116 
1816	 0.167734697498448 
1817	 0.168195415664438 
1818	 0.167057798178411 
1819	 0.164942210830138 
1820	 0.161479544702312 
1821	 0.15966526817753 
1822	 0.155253144941432 
1823	 0.15379548063236 
1824	 0.157580136246531 
1825	 0.159105198181061 
1826	 0.160645103523439 
1827	 0.162350250268913 
1828	 0.164417436488517 
1829	 0.167380845499006 
1830	 0.170924341367621 
1831	 0.174535877910621 
1832	 0.18118747482012 
1833	 0.196191790339114 
1834	 0.207390922344388 
1835	 0.220120266260922 
1836	 0.223218079687216 
1837	 0.186192101463309 
1838	 0.167744758136154 
1839	 0.152388227166728 
1840	 0.132090965112345 
1841	 0.133291224598741 
1842	 0.167674744608435 
1843	 0.18097616849875 
1844	 0.205641750036204 
1845	 0.204756718914494 
1846	 0.185503372113368 
1847	 0.168923980631928 
1848	 0.146498989650737 
1849	 0.102265812125316 
1850	 7.98601956680228E-02 
1851	 6.10255118519722E-02 
1852	 5.67244930590277E-02 
1853	 0.072289982484639 
1854	 7.27739706393523E-02 
1855	 6.65200533712513E-02 
1856	 7.58457278267315E-02 
1857	 0.094373928797613 
1858	 0.101914604037214 
1859	 0.104993164162097 
1860	 0.118542650426412 
1861	 0.121825327933488 
1862	 0.108673939530882 
1863	 0.107107416077698 
1864	 0.110860023634524 
1865	 0.11287010530026 
1866	 0.12757181400656 
1867	 0.113047108930993 
1868	 9.34422921689071E-02 
1869	 0.112875713917631 
1870	 0.10505815954134 
1871	 8.12827828623361E-02 
1872	 7.01627649509646E-02 
1873	 5.32549562963744E-02 
1874	 5.51376968197471E-02 
1875	 7.92512302405563E-02 
1876	 8.10115251456771E-02 
1877	 7.82183229983216E-02 
1878	 7.81894726942049E-02 
1879	 7.73708931927596E-02 
1880	 7.32355418828899E-02 
1881	 7.14148739590137E-02 
1882	 7.44190783746485E-02 
1883	 7.43606962647963E-02 
1884	 7.13467076687919E-02 
1885	 6.83037016743728E-02 
1886	 6.65987971212044E-02 
1887	 6.18058821001862E-02 
1888	 5.76264746987692E-02 
1889	 6.21005659094446E-02 
1890	 0.061193951823663 
1891	 6.22173221169049E-02 
1892	 6.13043861164953E-02 
1893	 0.054866178876441 
1894	 5.12787079561008E-02 
1895	 5.17966775637569E-02 
1896	 4.89989021484354E-02 
1897	 3.86645664453539E-02 
1898	 3.57664877347376E-02 
1899	 0.043595486421523 
1900	 4.98373384181193E-02 
1901	 5.85751175900232E-02 
1902	 8.86764637420757E-02 
1903	 9.53968073123342E-02 
1904	 7.58095516144089E-02 
1905	 7.47414653242993E-02 
1906	 7.90887120872725E-02 
1907	 7.03982178361277E-02 
1908	 5.62961641590521E-02 
1909	 5.51599719826522E-02 
1910	 0.050588076068983 
1911	 4.48460572572619E-02 
1912	 3.78462491614551E-02 
1913	 3.47112900705102E-02 
1914	 0.030581627369169 
1915	 2.14979736845012E-02 
1916	 2.03542733159688E-02 
1917	 2.35197913505361E-02 
1918	 2.62823726082635E-02 
1919	 2.58553547896822E-02 
1920	 2.36690494902334E-02 
1921	 2.53637967297883E-02 
1922	 2.93300902634973E-02 
1923	 3.11966849522412E-02 
1924	 3.56508523072799E-02 
1925	 3.65408272769397E-02 
1926	 3.49965636862612E-02 
1927	 3.32052670724278E-02 
1928	 2.99086967655506E-02 
1929	 2.78561736221872E-02 
1930	 2.75184617376604E-02 
1931	 2.65304745899338E-02 
1932	 2.76679534662948E-02 
1933	 2.92632300060873E-02 
1934	 2.90782247900654E-02 
1935	 2.73971656464287E-02 
1936	 2.74653204425626E-02 
1937	 2.72159390296479E-02 
1938	 2.76290502869556E-02 
1939	 0.029063504184648 
1940	 3.03456167379418E-02 
1941	 2.98800923207087E-02 
1942	 2.96927651185014E-02 
1943	 3.05721602357688E-02 
1944	 0.030653363186416 
1945	 2.96340704862401E-02 
1946	 2.85671636852367E-02 
1947	 2.86188950882748E-02 
1948	 2.82966577660798E-02 
1949	 2.82709870457966E-02 
1950	 2.91188330203368E-02 
1951	 3.11217363110991E-02 
1952	 3.10903093793948E-02 
1953	 3.06600366323187E-02 
1954	 3.05562572547418E-02 
1955	 3.05708013624032E-02 
1956	 3.14531525850309E-02 
1957	 3.23086214407092E-02 
1958	 0.032203154092439 
1959	 3.14214960012392E-02 
1960	 3.12603128198387E-02 
1961	 3.07169006277984E-02 
1962	 3.04247571145818E-02 
1963	 3.06755862314504E-02 
1964	 3.12785297717482E-02 
1965	 0.031417874945744 
1966	 0.031156149920772 
1967	 0.031084382123626 
1968	 3.15529030989821E-02 
1969	 0.031963807124618 
1970	 3.23922275113641E-02 
1971	 3.29190782029181E-02 
1972	 0.033718262541897 
1973	 3.41813719486548E-02 
1974	 3.45317652138198E-02 
1975	 3.48107638967215E-02 
1976	 3.51419749157985E-02 
1977	 3.52414259682071E-02 
1978	 3.48953036358483E-02 
1979	 3.47640877320773E-02 
1980	 3.48304931111151E-02 
1981	 3.49197534905151E-02 
1982	 3.50706588119934E-02 
1983	 3.54830013686254E-02 
1984	 3.59686638610272E-02 
1985	 3.61791948510298E-02 
1986	 3.63258412761449E-02 
1987	 0.036616217498334 
1988	 3.67126735289834E-02 
1989	 3.66890012196084E-02 
1990	 3.66833589950654E-02 
1991	 3.68896490398341E-02 
1992	 3.72983733933809E-02 
1993	 3.77543536546758E-02 
1994	 3.82771149940238E-02 
1995	 3.87983370581923E-02 
1996	 3.94216147165755E-02 
1997	 3.98223768660659E-02 
1998	 3.99642553499399E-02 
1999	 4.00271068554406E-02 
2000	 3.99024716424411E-02 
2001	 4.01369973325918E-02 
2002	 4.10757389381553E-02 
2003	 0.04230303126456 
2004	 4.27511772024243E-02 
2005	 4.28333508165654E-02 
2006	 4.33119975382608E-02 
2007	 4.34919741083364E-02 
2008	 4.38329524861207E-02 
2009	 4.48361484297924E-02 
2010	 4.56656075057557E-02 
2011	 4.61709425694361E-02 
2012	 4.63678284186544E-02 
2013	 0.046346581393669 
2014	 4.65096666996932E-02 
2015	 4.67025026084501E-02 
2016	 4.68261793127452E-02 
2017	 4.69589843145755E-02 
2018	 4.70367990799427E-02 
2019	 4.71772518510577E-02 
2020	 4.72381811653712E-02 
2021	 4.72940283220656E-02 
2022	 4.76204788504567E-02 
2023	 4.81733349574399E-02 
2024	 4.85580792436196E-02 
2025	 4.90360068127811E-02 
2026	 0.049587037959251 
2027	 4.98967187028601E-02 
2028	 5.00925878530985E-02 
2029	 5.05384213231937E-02 
2030	 5.09140281423099E-02 
2031	 5.10125756408712E-02 
2032	 5.12764323846629E-02 
2033	 5.17608000838919E-02 
2034	 5.19150052069539E-02 
2035	 5.16922116552768E-02 
2036	 0.051946580146235 
2037	 0.052370172942808 
2038	 5.27054842297671E-02 
2039	 5.34385051730967E-02 
2040	 5.41314797351716E-02 
2041	 5.41604318000751E-02 
2042	 5.42440691391693E-02 
2043	 5.45433746741008E-02 
2044	 5.46913572558878E-02 
2045	 5.50376198657175E-02 
2046	 0.055636614936195 
2047	 5.64745538228498E-02 
2048	 5.68636239715711E-02 
2049	 5.73069234921481E-02 
2050	 5.79518770196234E-02 
2051	 5.80919120024949E-02 
2052	 0.058585993862433 
2053	 5.91434196917556E-02 
2054	 0.059466015922072 
2055	 0.059997920791027 
2056	 6.00802447861453E-02 
2057	 6.02690141102336E-02 
2058	 0.060627008357694 
2059	 6.09609811352203E-02 
2060	 6.12280037575268E-02 
2061	 6.17848849732032E-02 
2062	 6.24059863298159E-02 
2063	 0.062983547454857 
2064	 6.35067780150492E-02 
2065	 6.38705995751698E-02 
2066	 6.39476999802986E-02 
2067	 6.39826999392887E-02 
2068	 6.40484874132436E-02 
2069	 6.42623976276227E-02 
2070	 6.46659276042741E-02 
2071	 6.53172752741291E-02 
2072	 6.60906774104886E-02 
2073	 6.70320227052545E-02 
2074	 6.79710693181122E-02 
2075	 6.89902258675701E-02 
2076	 6.97809995656879E-02 
2077	 7.00107166530609E-02 
2078	 7.01460035446278E-02 
2079	 7.04976065481507E-02 
2080	 7.06794416289063E-02 
2081	 7.10481003840386E-02 
2082	 7.16633335870452E-02 
2083	 7.19663636180435E-02 
2084	 7.21542864870642E-02 
2085	 7.24030946969155E-02 
2086	 7.25673594193288E-02 
2087	 7.29411645020989E-02 
2088	 7.34155047605703E-02 
2089	 7.40585858532729E-02 
2090	 7.45542238761634E-02 
2091	 7.48823254825353E-02 
2092	 7.51776507772323E-02 
2093	 7.54170145530528E-02 
2094	 7.55596979752257E-02 
2095	 7.59951836358486E-02 
2096	 7.63523752713494E-02 
2097	 0.076586423947921 
2098	 7.71683808889397E-02 
2099	 7.79737990061206E-02 
2100	 7.85743372139425E-02 
2101	 7.88555285242932E-02 
2102	 7.92477449880336E-02 
2103	 7.95537852558827E-02 
2104	 7.97302884418724E-02 
2105	 8.00957419380696E-02 
2106	 8.07284098499594E-02 
2107	 8.11973016730879E-02 
2108	 8.16037864162892E-02 
2109	 0.082195975142723 
2110	 8.30120042530348E-02 
2111	 8.36371359639201E-02 
2112	 8.39982680102696E-02 
2113	 8.44988924420653E-02 
2114	 0.084818733375822 
2115	 8.50153175501546E-02 
2116	 8.56797569021419E-02 
2117	 8.61345114166234E-02 
2118	 8.62586275295026E-02 
2119	 8.66399997951735E-02 
2120	 8.72019473665623E-02 
2121	 0.087627561706511 
2122	 0.088141849150912 
2123	 8.87476168470009E-02 
2124	 8.91567015959981E-02 
2125	 8.95977190934779E-02 
2126	 8.97186323622865E-02 
2127	 8.98570758314087E-02 
2128	 9.03631161883104E-02 
2129	 9.05722097733377E-02 
2130	 9.06959744149101E-02 
2131	 9.12011918682386E-02 
2132	 9.15367764662315E-02 
2133	 9.19683955634502E-02 
2134	 9.24852380492039E-02 
2135	 9.33491378184682E-02 
2136	 9.37489585546813E-02 
2137	 9.41419169147224E-02 
2138	 9.45563993118468E-02 
2139	 9.45970711625942E-02 
2140	 9.45168354236265E-02 
2141	 9.43477070389251E-02 
2142	 9.43393914915559E-02 
2143	 9.45623165670088E-02 
2144	 9.52084310946718E-02 
2145	 9.61453527481077E-02 
2146	 0.096724978862676 
2147	 9.71418126428761E-02 
2148	 9.73782918675318E-02 
2149	 9.73985878994418E-02 
2150	 9.75932888715878E-02 
2151	 9.76809063752546E-02 
2152	 9.75687772080415E-02 
2153	 9.78046654983387E-02 
2154	 9.82313133352836E-02 
2155	 9.84804197396707E-02 
2156	 9.89212537192987E-02 
2157	 9.94263860895008E-02 
2158	 9.96442201640589E-02 
2159	 9.95167200035161E-02 
2160	 9.92136449143358E-02 
2161	 9.91241457474083E-02 
2162	 9.91924598644822E-02 
2163	 9.95009846745708E-02 
2164	 9.98529236946683E-02 
2165	 0.100232420901454 
2166	 0.100447635221024 
2167	 0.100399235174498 
2168	 0.100522641821408 
2169	 0.10058736373527 
2170	 0.100822126326231 
2171	 0.101209360304432 
2172	 0.101704942478514 
2173	 0.101728912174895 
2174	 0.102111838265791 
2175	 0.102149639119913 
2176	 0.102032923320917 
2177	 0.102206621468551 
2178	 0.102070256367812 
2179	 0.102101252070892 
2180	 0.102032816766658 
2181	 0.101975467866464 
2182	 0.10231465193618 
2183	 0.102531934583508 
2184	 0.102793789784784 
2185	 0.10308991349378 
2186	 0.103055620432303 
2187	 0.103022031126702 
2188	 0.102858369648754 
2189	 0.102731671020286 
2190	 0.102495724252488 
2191	 0.102345986569621 
2192	 0.102589090509026 
2193	 0.10282913279743 
2194	 0.103355179403597 
2195	 0.10416329889304 
2196	 0.104267842743217 
2197	 0.104050194684388 
2198	 0.104091359952391 
2199	 0.103814441404179 
2200	 0.10378486871725 
2201	 0.104043217557214 
2202	 0.103662787131542 
2203	 0.103199651904217 
2204	 0.103178133653623 
2205	 0.103506009971789 
2206	 0.104145763258941 
2207	 0.10493795023319 
2208	 0.105218300420962 
2209	 0.105085307961806 
2210	 0.104930925860339 
2211	 0.104411092590057 
2212	 0.103918636845485 
2213	 0.104156001414019 
2214	 0.104456034544257 
2215	 0.104344805754957 
2216	 0.104797467013198 
2217	 0.104927310714384 
2218	 0.105093015359168 
2219	 0.105666695605095 
2220	 0.105314570527643 
2221	 0.104761518514052 
2222	 0.104282192893308 
2223	 0.10364992590765 
2224	 0.103743582770907 
2225	 0.104172849796723 
2226	 0.104265856762232 
2227	 0.104551086271724 
2228	 0.104728866720937 
2229	 0.10451462451784 
2230	 0.104451034945516 
2231	 0.104272199745635 
2232	 0.103905511212345 
2233	 0.103537562082403 
2234	 0.103125822156407 
2235	 0.102709619626223 
2236	 0.102418135600823 
2237	 0.102254464183053 
2238	 0.102412776025841 
2239	 0.102537526142118 
2240	 0.102688568237263 
2241	 0.102832683554798 
2242	 0.102865050322901 
2243	 0.102962651692325 
2244	 0.102969594159546 
2245	 0.102962647886913 
2246	 0.102096231804526 
2247	 0.101057814726184 
2248	 0.100372855554277 
2249	 9.90942046572571E-02 
2250	 9.85521335131969E-02 
2251	 9.86362666414763E-02 
2252	 0.098727263523164 
2253	 0.098791488967705 
2254	 9.84938984270087E-02 
2255	 0.098047575908547 
2256	 9.75266210765238E-02 
2257	 9.64568056465981E-02 
2258	 9.59303234709098E-02 
2259	 9.59366434769471E-02 
2260	 9.61987643079858E-02 
2261	 9.65573749845811E-02 
2262	 9.59094184100288E-02 
2263	 9.50638839789587E-02 
2264	 0.093938548168416 
2265	 0.092875055564006 
2266	 9.28080234731311E-02 
2267	 9.26915649002256E-02 
2268	 9.27740146358829E-02 
2269	 9.28939964615804E-02 
2270	 9.25851919205679E-02 
2271	 9.22158312648353E-02 
2272	 9.16978973075371E-02 
2273	 9.08897608716602E-02 
2274	 9.05046228915976E-02 
2275	 9.01999425977846E-02 
2276	 8.97046643244132E-02 
2277	 9.01001749805845E-02 
2278	 8.99806907930798E-02 
2279	 8.96872496322351E-02 
2280	 9.02151875145113E-02 
2281	 8.95203168547411E-02 
2282	 8.80886349866101E-02 
2283	 8.72359307533654E-02 
2284	 8.61132642328362E-02 
2285	 8.49865033200589E-02 
2286	 8.46762014019529E-02 
2287	 8.52007202590819E-02 
2288	 8.59928356730023E-02 
2289	 8.63991442406304E-02 
2290	 8.65585177807208E-02 
2291	 8.58878680282178E-02 
2292	 0.084549558355412 
2293	 8.34371731672888E-02 
2294	 8.24074597778478E-02 
2295	 8.18184121940427E-02 
2296	 0.081803344877848 
2297	 8.13952437016684E-02 
2298	 8.12920096562794E-02 
2299	 8.16722780336654E-02 
2300	 8.09156818706169E-02 
2301	 8.05174280549941E-02 
2302	 8.06905303074838E-02 
2303	 8.00851718904892E-02 
2304	 7.94620373824143E-02 
2305	 7.89828921318011E-02 
2306	 7.82401326381527E-02 
2307	 7.72771183215678E-02 
2308	 7.74975768232684E-02 
2309	 7.80468352138116E-02 
2310	 7.78291014319021E-02 
2311	 7.76076003178783E-02 
2312	 7.71728017661806E-02 
2313	 7.66008100770801E-02 
2314	 7.65888186856063E-02 
2315	 7.66099338726304E-02 
2316	 7.60584010770154E-02 
2317	 7.61593650588768E-02 
2318	 7.64625222148137E-02 
2319	 7.64977719088483E-02 
2320	 7.64851115438966E-02 
2321	 7.61046878752297E-02 
2322	 7.45644678115821E-02 
2323	 7.32531740384384E-02 
2324	 7.17809444255418E-02 
2325	 7.12534478674557E-02 
2326	 6.98966135273513E-02 
2327	 6.94006151204158E-02 
2328	 6.94240968865091E-02 
2329	 6.88906397434946E-02 
2330	 6.94151323830995E-02 
2331	 6.96006688568602E-02 
2332	 6.90425172398792E-02 
2333	 6.98751769581898E-02 
2334	 7.00794237122357E-02 
2335	 6.96522746587535E-02 
2336	 7.04816539656108E-02 
2337	 6.99988524386935E-02 
2338	 6.86507987756505E-02 
2339	 6.79541942367939E-02 
2340	 6.71290057121419E-02 
2341	 6.61662899986101E-02 
2342	 6.61237417678966E-02 
2343	 6.67214120113168E-02 
2344	 6.62708592742609E-02 
2345	 6.62089558905375E-02 
2346	 6.63300488858119E-02 
2347	 6.48708083425989E-02 
2348	 6.43272564977108E-02 
2349	 6.48268515558905E-02 
2350	 6.43494537026055E-02 
2351	 6.49521261809029E-02 
2352	 6.53352737459783E-02 
2353	 6.37583966981769E-02 
2354	 6.26598412804515E-02 
2355	 6.05751960919491E-02 
2356	 5.85920701699057E-02 
2357	 5.80999563241031E-02 
2358	 0.057490598088104 
2359	 5.86014469596481E-02 
2360	 5.92342892840802E-02 
2361	 5.79389456701047E-02 
2362	 5.82432294884323E-02 
2363	 5.85614521387417E-02 
2364	 5.78145394750708E-02 
2365	 5.80790838116664E-02 
2366	 5.87172503102294E-02 
2367	 5.85985978494598E-02 
2368	 5.83329446444106E-02 
2369	 5.93431976366259E-02 
2370	 0.058701350845759 
2371	 5.59091895614856E-02 
2372	 5.44498993675233E-02 
2373	 5.30790638386679E-02 
2374	 5.26104531831595E-02 
2375	 5.30580939238929E-02 
2376	 5.34855430688072E-02 
2377	 5.47636406850453E-02 
2378	 5.56225848628609E-02 
2379	 5.77184873509087E-02 
2380	 0.057780385321679 
2381	 5.53974088101013E-02 
2382	 5.46987848719683E-02 
2383	 5.30487339613474E-02 
2384	 5.20896256138405E-02 
2385	 5.39012084910009E-02 
2386	 5.42735136696487E-02 
2387	 5.34821666213396E-02 
2388	 5.30945132526042E-02 
2389	 5.26937308700117E-02 
2390	 5.15111266448538E-02 
2391	 4.88370373921998E-02 
2392	 4.77142398313831E-02 
2393	 4.75291649359403E-02 
2394	 4.74466939750042E-02 
2395	 4.88716146909361E-02 
2396	 0.049721994936581 
2397	 4.97251085994271E-02 
2398	 4.98951908880883E-02 
2399	 5.02964775772049E-02 
2400	 0.050318120049893 
2401	 5.08646983346505E-02 
2402	 4.89751239035591E-02 
2403	 4.68781416185105E-02 
2404	 4.63043170482456E-02 
2405	 4.51106297279655E-02 
2406	 4.38482620642018E-02 
2407	 4.58184493665926E-02 
2408	 4.71198213746261E-02 
2409	 4.55413544221821E-02 
2410	 0.047601760225345 
2411	 4.90473830051264E-02 
2412	 4.72022593715958E-02 
2413	 4.65028069130339E-02 
2414	 4.66797751622288E-02 
2415	 4.58129524916644E-02 
2416	 4.47221334272952E-02 
2417	 0.045994395584716 
2418	 4.74402262690483E-02 
2419	 4.89723711571191E-02 
2420	 5.09336556433664E-02 
2421	 5.03796370847515E-02 
2422	 4.98154021231678E-02 
2423	 4.72739338709377E-02 
2424	 4.24460711298359E-02 
2425	 4.17840775446303E-02 
2426	 4.15802784336483E-02 
2427	 4.10405710414777E-02 
2428	 4.37109658993309E-02 
2429	 4.52076147257148E-02 
2430	 4.61548712450893E-02 
2431	 4.63008250075827E-02 
2432	 4.36741556946604E-02 
2433	 4.47864370735007E-02 
2434	 4.39555747075798E-02 
2435	 4.39389575551134E-02 
2436	 4.39235119832941E-02 
2437	 3.93018004478818E-02 
2438	 3.83154375195558E-02 
2439	 4.33675326400523E-02 
2440	 4.27297049728318E-02 
2441	 3.79687374769747E-02 
2442	 3.71337454211962E-02 
2443	 3.46895267039677E-02 
2444	 3.45405683172366E-02 
2445	 4.28587487693988E-02 
2446	 4.33463497405007E-02 
2447	 3.70450715452554E-02 
2448	 3.28683057983439E-02 
2449	 2.34753194325552E-02 
2450	 2.36611571397764E-02 
2451	 3.32682337524473E-02 
2452	 3.61689342618527E-02 
2453	 4.03404281366922E-02 
2454	 3.98896968432288E-02 
2455	 0.032993650244388 
2456	 0.029784912596742 
2457	 2.62989138852836E-02 
2458	 2.55289847937927E-02 
2459	 0.028837250288675 
2460	 0.029532343540134 
2461	 2.97842583905267E-02 
2462	 3.04657871666452E-02 
2463	 2.56238006630549E-02 
2464	 2.73375741696777E-02 
2465	 0.038506998506811 
2466	 0.041565697351466 
2467	 4.63286237442351E-02 
2468	 4.81683826532325E-02 
2469	 0.038673415971312 
2470	 3.69726217111116E-02 
2471	 3.90540969988419E-02 
2472	 0.039753182160664 
2473	 4.72203103380083E-02 
2474	 0.042232372870526 
2475	 2.47280933298263E-02 
2476	 1.92171969488408E-02 
2477	 7.85903738504827E-03 
2478	 8.77842488268223E-03 
2479	 3.47351604020541E-02 
2480	 4.02259009435517E-02 
2481	 3.82863356813346E-02 
2482	 4.00972866091061E-02 
2483	 3.62449204991962E-02 
2484	 2.58897293141989E-02 
2485	 9.78396905339076E-03 
2486	-1.97783373061681E-03 
2487	-2.90962614732167E-02 
2488	-2.11106169419012E-02 
2489	 1.56628174172875E-02 
2490	 3.51709763009835E-02 
2491	 7.13194078653423E-02 
2492	 0.104119676885302 
2493	 9.30172882237338E-02 
2494	 6.82855177747735E-02 
2495	 0.046547800677425 
2496	 3.23474304457865E-02 
2497	 3.98344982447422E-02 
2498	 4.05363764948435E-02 
2499	 0.056622789293993 
2500	 3.98131472003131E-02 
