Wavelength	ref00036.asd
350	 2.30870707109126E-02 
351	 2.33068181387236E-02 
352	 2.29390503412048E-02 
353	 2.35417406334692E-02 
354	 2.36366896231353E-02 
355	 2.30085954476673E-02 
356	 2.21585108732903E-02 
357	 2.25543965468357E-02 
358	 2.28515792175744E-02 
359	 2.28072616161092E-02 
360	 2.26772345682109E-02 
361	 2.32949043055259E-02 
362	 2.29861767914767E-02 
363	 2.23652447769614E-02 
364	 0.0232227285804 
365	 2.28699153818794E-02 
366	 2.22411422608991E-02 
367	 2.21183175320296E-02 
368	 2.24411890520408E-02 
369	 0.022550406771396 
370	 2.26550192338353E-02 
371	 2.29580802344623E-02 
372	 0.022966369797476 
373	 2.26460256077708E-02 
374	 0.022442602912562 
375	 2.28743420697385E-02 
376	 2.30742062927259E-02 
377	 2.30891611750194E-02 
378	 0.023206717773136 
379	 2.38578365178924E-02 
380	 2.38408406765637E-02 
381	 2.36954018327698E-02 
382	 2.39409155901659E-02 
383	 0.023949776649766 
384	 2.40954977777809E-02 
385	 2.44107853157441E-02 
386	 2.47732717491297E-02 
387	 2.51175618335824E-02 
388	 2.55394747126277E-02 
389	 2.58939117443352E-02 
390	 2.58289994823314E-02 
391	 2.63030963794199E-02 
392	 2.66920076291413E-02 
393	 2.66961116118328E-02 
394	 2.74334535980322E-02 
395	 2.80305657945548E-02 
396	 0.028362870062797 
397	 2.86191521438609E-02 
398	 2.90915858107741E-02 
399	 2.95638325107842E-02 
400	 2.98777787070371E-02 
401	 2.99811361436942E-02 
402	 3.01602420592286E-02 
403	 3.06273946418523E-02 
404	 3.13624203926585E-02 
405	 3.19701504901002E-02 
406	 3.22660234602649E-02 
407	 3.25479075157842E-02 
408	 3.31736217406632E-02 
409	 3.38378517908677E-02 
410	 3.41552007763107E-02 
411	 3.43308388671898E-02 
412	 3.50238362500588E-02 
413	 3.57107737735147E-02 
414	 3.61387638686213E-02 
415	 3.63462250572313E-02 
416	 3.68582275570803E-02 
417	 3.74067682184649E-02 
418	 3.77305683689293E-02 
419	 3.77498955667504E-02 
420	 0.038227461947092 
421	 3.89057663889777E-02 
422	 3.94026322218136E-02 
423	 3.93559002001525E-02 
424	 3.97134605797541E-02 
425	 0.040177210184413 
426	 4.03984784977627E-02 
427	 4.03423601889056E-02 
428	 4.07808773645582E-02 
429	 4.11859395499546E-02 
430	 4.09057098708153E-02 
431	 4.12299710688343E-02 
432	 4.16745838421477E-02 
433	 4.19025778077971E-02 
434	 4.18399479154579E-02 
435	 4.21216188307168E-02 
436	 4.23111367531477E-02 
437	 4.22086215538298E-02 
438	 4.24715569053628E-02 
439	 4.27161438138473E-02 
440	 4.28671494329271E-02 
441	 4.29635696776102E-02 
442	 4.30485989412175E-02 
443	 4.32416557076779E-02 
444	 0.043487386037253 
445	 4.35835726212622E-02 
446	 4.38581890259958E-02 
447	 4.40947668070153E-02 
448	 0.044183889616724 
449	 4.45313594426193E-02 
450	 4.47819287006865E-02 
451	 4.49459487281544E-02 
452	 4.51745651557622E-02 
453	 4.54515450587602E-02 
454	 4.56020602014323E-02 
455	 4.56884205396629E-02 
456	 0.046051481871811 
457	 4.62528923020013E-02 
458	 4.63028720859619E-02 
459	 4.63350444538696E-02 
460	 0.046528214727796 
461	 4.66086966379164E-02 
462	 4.66136367915378E-02 
463	 4.67247990235017E-02 
464	 0.046749791358965 
465	 4.68061252471582E-02 
466	 4.69534699485799E-02 
467	 4.71223073150475E-02 
468	 4.71813397731629E-02 
469	 4.71720452131825E-02 
470	 4.71988176532797E-02 
471	 4.73834184311892E-02 
472	 4.75169189638455E-02 
473	 4.75988985567335E-02 
474	 4.77661161386759E-02 
475	 4.78421595649795E-02 
476	 4.80109017524653E-02 
477	 4.82984389662264E-02 
478	 4.83363796211021E-02 
479	 4.84660442475579E-02 
480	 4.86271770902914E-02 
481	 4.86848392524394E-02 
482	 4.88564589637654E-02 
483	 4.89581035981218E-02 
484	 4.90288722929877E-02 
485	 4.93273068957128E-02 
486	 4.95948982314255E-02 
487	 4.97798558328393E-02 
488	 4.99226593526717E-02 
489	 5.01826851653601E-02 
490	 5.04925353790347E-02 
491	 5.07826262780764E-02 
492	 5.10167918798618E-02 
493	 5.13738200140948E-02 
494	 5.17578413632213E-02 
495	 5.21341834410377E-02 
496	 5.25702019990619E-02 
497	 0.053109740315732 
498	 5.36649729998656E-02 
499	 5.41696414248892E-02 
500	 5.47185765320782E-02 
501	 5.55374723205229E-02 
502	 5.64717277447826E-02 
503	 5.71841655403666E-02 
504	 5.80815328318328E-02 
505	 5.91021055876438E-02 
506	 6.01546616027117E-02 
507	 6.11875527901408E-02 
508	 6.24057021384856E-02 
509	 6.37797722483747E-02 
510	 6.52040643852753E-02 
511	 6.65973116229323E-02 
512	 6.81861215193974E-02 
513	 0.069961589043351 
514	 7.17239461934303E-02 
515	 7.37118936576071E-02 
516	 7.59145782479239E-02 
517	 0.078252377030753 
518	 8.06181344659993E-02 
519	 8.31772728726447E-02 
520	 8.57086481262894E-02 
521	 8.79578431950692E-02 
522	 9.03645549994511E-02 
523	 9.28420090586382E-02 
524	 9.53045427662392E-02 
525	 9.76839926185905E-02 
526	 0.100171072709188 
527	 0.102655383676014 
528	 0.10498238943115 
529	 0.107072646675528 
530	 0.109027549602328 
531	 0.110902354089175 
532	 0.112710225168983 
533	 0.114275052054131 
534	 0.115776686396069 
535	 0.117229020112135 
536	 0.118304492309849 
537	 0.119540118453773 
538	 0.12075657255651 
539	 0.121668367519263 
540	 0.122600846531751 
541	 0.123521192554959 
542	 0.124364581288035 
543	 0.125061819513809 
544	 0.12579171350188 
545	 0.126544661609339 
546	 0.127275870040395 
547	 0.127939514727905 
548	 0.128540672107105 
549	 0.129066321399573 
550	 0.12950550752948 
551	 0.129897604588711 
552	 0.130201742242346 
553	 0.130375696802934 
554	 0.130383399860042 
555	 0.130299913293024 
556	 0.130069361772352 
557	 0.129649839198114 
558	 0.129152460815923 
559	 0.128620011607278 
560	 0.127969267097355 
561	 0.127059004004724 
562	 0.126076897303478 
563	 0.125058207780959 
564	 0.123987909567206 
565	 0.122817494529445 
566	 0.121492575003579 
567	 0.120137133999249 
568	 0.118869977239283 
569	 0.117480013370725 
570	 0.115977254283325 
571	 0.114444518319886 
572	 0.113009506267875 
573	 0.111569497079914 
574	 0.110242179885783 
575	 0.109065007395886 
576	 0.107805928177088 
577	 0.10659873319504 
578	 0.105524714427762 
579	 0.104604798594545 
580	 0.103647439986403 
581	 0.102744372619944 
582	 0.101921988694125 
583	 0.10108303286907 
584	 0.100446473075942 
585	 9.99421692954139E-02 
586	 9.94405965511242E-02 
587	 9.88884954001313E-02 
588	 9.84469340565161E-02 
589	 9.80999365236092E-02 
590	 9.76975553515676E-02 
591	 9.71251958119313E-02 
592	 0.096665449811668 
593	 9.64340028570418E-02 
594	 9.61966308462314E-02 
595	 9.58969690523841E-02 
596	 9.55643758691968E-02 
597	 9.52704899917457E-02 
598	 9.50958666249109E-02 
599	 9.48749804314211E-02 
600	 0.094580726616909 
601	 9.43303857137408E-02 
602	 9.40024418969857E-02 
603	 9.36497918555664E-02 
604	 9.33012055827988E-02 
605	 9.28254963082166E-02 
606	 0.092285734756971 
607	 9.17263091418612E-02 
608	 9.11684595235095E-02 
609	 9.04859581036969E-02 
610	 8.98065936278433E-02 
611	 8.91767634683578E-02 
612	 8.84917838349861E-02 
613	 8.77176054995955E-02 
614	 8.69657847280816E-02 
615	 8.63459051216245E-02 
616	 8.58071232965688E-02 
617	 8.51385868415772E-02 
618	 8.44381424015086E-02 
619	 8.39835655382237E-02 
620	 8.35696130636688E-02 
621	 8.32102708320695E-02 
622	 8.29047558034369E-02 
623	 8.25603954934909E-02 
624	 8.23223555502852E-02 
625	 8.21331599002869E-02 
626	 8.19166991659755E-02 
627	 8.19028979152783E-02 
628	 8.19236884939817E-02 
629	 8.18996800600205E-02 
630	 8.18582277969155E-02 
631	 8.18221947893307E-02 
632	 8.17566336522724E-02 
633	 8.16300711467935E-02 
634	 8.14517556840243E-02 
635	 8.12088310248172E-02 
636	 8.08383097453614E-02 
637	 8.02993505140006E-02 
638	 7.98415962938943E-02 
639	 7.92719589940332E-02 
640	 7.85552082821842E-02 
641	 0.077918750710553 
642	 7.71495534723326E-02 
643	 7.62736624956034E-02 
644	 7.54005381293274E-02 
645	 0.074742908808798 
646	 7.40341818883562E-02 
647	 7.32919760759062E-02 
648	 7.26893290661962E-02 
649	 7.20462957651057E-02 
650	 0.071484849623724 
651	 0.071076105224201 
652	 7.07309093737047E-02 
653	 7.03411970391917E-02 
654	 6.99310420545988E-02 
655	 6.95392314952178E-02 
656	 0.069130370057752 
657	 6.85674936503318E-02 
658	 6.79368538235564E-02 
659	 6.73668321437578E-02 
660	 6.66362061184427E-02 
661	 6.58906116827921E-02 
662	 0.06523853725952 
663	 6.45672384230742E-02 
664	 0.064022844910217 
665	 6.35215445108972E-02 
666	 6.29538459926802E-02 
667	 6.25316182051578E-02 
668	 6.21880370262057E-02 
669	 6.19058075553211E-02 
670	 0.061711968887004 
671	 6.14985911370348E-02 
672	 6.13551438383254E-02 
673	 6.13465590510673E-02 
674	 0.061386275243343 
675	 6.15695090838138E-02 
676	 6.17832410836974E-02 
677	 6.18807818274453E-02 
678	 6.20062103176385E-02 
679	 6.23379767403138E-02 
680	 6.28894254751049E-02 
681	 0.063500986750893 
682	 6.41859096399114E-02 
683	 6.49987637484913E-02 
684	 6.59858335201905E-02 
685	 6.71046378786598E-02 
686	 6.87007062816041E-02 
687	 0.070768237827045 
688	 7.29224913261437E-02 
689	 7.51401745003179E-02 
690	 7.75363682327616E-02 
691	 8.04120373109474E-02 
692	 8.40212005640002E-02 
693	 8.80515599122969E-02 
694	 9.25784068642074E-02 
695	 9.76082894664355E-02 
696	 0.10284901302684 
697	 0.108611104463369 
698	 0.114850492193256 
699	 0.121342116367956 
700	 0.128093554483834 
701	 0.135089055789343 
702	 0.142250508801529 
703	 0.149402114370536 
704	 0.156460636647724 
705	 0.163436742603263 
706	 0.170480492281267 
707	 0.177827056094527 
708	 0.185170095337471 
709	 0.192491490344611 
710	 0.199855115675334 
711	 0.207195200506171 
712	 0.214806964960758 
713	 0.222672885557616 
714	 0.230412338179289 
715	 0.238448494190386 
716	 0.246626206378988 
717	 0.255028614194929 
718	 0.263982538997481 
719	 0.273048039363846 
720	 0.281777220031414 
721	 0.290015926508441 
722	 0.297940770149589 
723	 0.305991581794411 
724	 0.314596317411454 
725	 0.323112771812712 
726	 0.331427066019264 
727	 0.33938230269189 
728	 0.34710549509894 
729	 0.354628608275548 
730	 0.362001274366053 
731	 0.369074526727285 
732	 0.375705202616953 
733	 0.381909844000997 
734	 0.387872058274589 
735	 0.393716378658565 
736	 0.399349313228898 
737	 0.40477236695879 
738	 0.409788128836488 
739	 0.414403619876472 
740	 0.418890822469615 
741	 0.422856382408635 
742	 0.426510283631534 
743	 0.430125362708837 
744	 0.433432049265292 
745	 0.43641770923642 
746	 0.439147117072874 
747	 0.441722534378523 
748	 0.444087632964058 
749	 0.446289630424397 
750	 0.448332705318746 
751	 0.45012405432446 
752	 0.451744532798506 
753	 0.453178300085996 
754	 0.454446880994244 
755	 0.455796040805159 
756	 0.456992202716364 
757	 0.457952821038173 
758	 0.458825532036431 
759	 0.460745518017512 
760	 0.463547334238147 
761	 0.466280417924414 
762	 0.466635022355909 
763	 0.466596961723015 
764	 0.466392832879533 
765	 0.465932471877512 
766	 0.465530580478952 
767	 0.465236367340078 
768	 0.465145808044392 
769	 0.465305344351799 
770	 0.465455767696694 
771	 0.465709509748494 
772	 0.466041419176277 
773	 0.466303991606722 
774	 0.466496933481488 
775	 0.466739734793517 
776	 0.46706058959611 
777	 0.467304155198484 
778	 0.46753007345762 
779	 0.467812917743992 
780	 0.468159097824251 
781	 0.468324292986066 
782	 0.468575445963031 
783	 0.468919250040381 
784	 0.469217203595578 
785	 0.469411051721309 
786	 0.469703048673735 
787	 0.470090082144824 
788	 0.470341407234294 
789	 0.470707115318578 
790	 0.471033089052872 
791	 0.471223803031747 
792	 0.471453125779404 
793	 0.471828238700614 
794	 0.472117375703638 
795	 0.472173983220681 
796	 0.472675509049139 
797	 0.472937975119402 
798	 0.473037216126451 
799	 0.473438062724555 
800	 0.473733389303945 
801	 0.473985395036316 
802	 0.474248542913051 
803	 0.474523432440604 
804	 0.474879056033616 
805	 0.475093266197874 
806	 0.475111522707027 
807	 0.475317984752981 
808	 0.475750554320489 
809	 0.476154918181811 
810	 0.476321507634505 
811	 0.476653268478397 
812	 0.476937408121733 
813	 0.477235217318674 
814	 0.477718497978872 
815	 0.478060729393662 
816	 0.478509479914035 
817	 0.478973136676984 
818	 0.479012880921125 
819	 0.479271489968833 
820	 0.479402656362376 
821	 0.479394525821979 
822	 0.480061976134606 
823	 0.480587995325011 
824	 0.480634813507108 
825	 0.480332982389141 
826	 0.480675869414814 
827	 0.480981578859434 
828	 0.48115075460943 
829	 0.481337010531409 
830	 0.481706859586432 
831	 0.481982972841436 
832	 0.482125883375774 
833	 0.48228717717251 
834	 0.482441245836155 
835	 0.482653787233248 
836	 0.482923622393791 
837	 0.483170054789925 
838	 0.483505588680351 
839	 0.483724977916145 
840	 0.483775660174475 
841	 0.48401923364937 
842	 0.484179081071972 
843	 0.484428389898228 
844	 0.484869164510186 
845	 0.484943622316229 
846	 0.485118247230712 
847	 0.485400756656846 
848	 0.4856161581367 
849	 0.485834559661058 
850	 0.486059973817329 
851	 0.486271471786648 
852	 0.486463641804591 
853	 0.486919258391533 
854	 0.487181757700573 
855	 0.487238656570259 
856	 0.487607412282718 
857	 0.487709829148615 
858	 0.487955657019193 
859	 0.48842880611818 
860	 0.488470904704171 
861	 0.48865895046145 
862	 0.48890185842975 
863	 0.489042731622288 
864	 0.489142029675558 
865	 0.489800586190551 
866	 0.490566562439567 
867	 0.490774175286872 
868	 0.490563908608444 
869	 0.490387510527761 
870	 0.490518593545033 
871	 0.490992751827243 
872	 0.491362686777639 
873	 0.491544632453665 
874	 0.491730016172835 
875	 0.492195271773472 
876	 0.492406657353533 
877	 0.492510828934278 
878	 0.492728986876934 
879	 0.493225339334604 
880	 0.493557575906315 
881	 0.493702531939025 
882	 0.493808338455087 
883	 0.494124749637314 
884	 0.49413057001672 
885	 0.494354150691072 
886	 0.494894056084447 
887	 0.494716443079812 
888	 0.494743268440756 
889	 0.494905396717927 
890	 0.495123004544936 
891	 0.495989206220463 
892	 0.496425985796854 
893	 0.496528892937802 
894	 0.496749943309668 
895	 0.497240984697561 
896	 0.497862884450585 
897	 0.498234810287707 
898	 0.498197182672996 
899	 0.499036537487986 
900	 0.49944885909679 
901	 0.499284217700309 
902	 0.499076109488352 
903	 0.498912023760191 
904	 0.499141053270186 
905	 0.499601154034857 
906	 0.499858966694049 
907	 0.499979695521651 
908	 0.500327082772228 
909	 0.500939086155024 
910	 0.501467238609642 
911	 0.501129561466077 
912	 0.501029492343494 
913	 0.501687734204744 
914	 0.502702372960177 
915	 0.502907921759802 
916	 0.502774172460937 
917	 0.502619342705049 
918	 0.502332201106546 
919	 0.50211771985459 
920	 0.502299415002259 
921	 0.50273335526115 
922	 0.502745030617729 
923	 0.502893444710189 
924	 0.502382228595865 
925	 0.501570876546611 
926	 0.502757328293849 
927	 0.502790034725887 
928	 0.502749193885985 
929	 0.50342515211883 
930	 0.503199180615078 
931	 0.503960030792853 
932	 0.504773499920767 
933	 0.504652400720694 
934	 0.504484993044522 
935	 0.504759593155779 
936	 0.504045789076232 
937	 0.502182463619063 
938	 0.50213268608248 
939	 0.501621961892614 
940	 0.501070136487843 
941	 0.501110549340067 
942	 0.50164062658401 
943	 0.501670851599429 
944	 0.50165989739399 
945	 0.501521651874766 
946	 0.499212856382575 
947	 0.499232720936178 
948	 0.499292749637884 
949	 0.497647722986783 
950	 0.497535195758632 
951	 0.496562177947026 
952	 0.495619066931189 
953	 0.495522572945402 
954	 0.49527502196517 
955	 0.495326538108857 
956	 0.49586951962282 
957	 0.496078195801198 
958	 0.493491159440805 
959	 0.49241815872547 
960	 0.492199136321533 
961	 0.492089241969511 
962	 0.493422927763217 
963	 0.492472665869595 
964	 0.491334966496536 
965	 0.491745616232562 
966	 0.492532492950698 
967	 0.493372441955474 
968	 0.492570233646544 
969	 0.490767494899792 
970	 0.49208499688802 
971	 0.491853974175975 
972	 0.491181975012531 
973	 0.491442000326463 
974	 0.492549006567988 
975	 0.492570521826683 
976	 0.492342046874919 
977	 0.49260187516557 
978	 0.49310802285841 
979	 0.492554595483557 
980	 0.491838642993933 
981	 0.492034381427819 
982	 0.493558980578702 
983	 0.493435118586902 
984	 0.492987236434474 
985	 0.492931584766345 
986	 0.493023293560289 
987	 0.494877291567262 
988	 0.495314117997143 
989	 0.49457921175468 
990	 0.495459847627967 
991	 0.496465700877818 
992	 0.496181913141266 
993	 0.495807357657909 
994	 0.497131330699272 
995	 0.495922233250807 
996	 0.497302532914655 
997	 0.499216323354236 
998	 0.497741312972371 
999	 0.497915917984129 
1000	 0.49811065813005 
1001	 0.509299636206014 
1002	 0.509685718541157 
1003	 0.510132077160779 
1004	 0.510441306174179 
1005	 0.510886264356568 
1006	 0.511566104158656 
1007	 0.512033062225169 
1008	 0.512293298984796 
1009	 0.512773762421226 
1010	 0.513366002942967 
1011	 0.513815488032905 
1012	 0.514333296902244 
1013	 0.514957373588349 
1014	 0.515254603230692 
1015	 0.515523289241266 
1016	 0.5159016495224 
1017	 0.516238751643653 
1018	 0.51662668792967 
1019	 0.517043515215918 
1020	 0.517555260895979 
1021	 0.518239505414467 
1022	 0.518655074684195 
1023	 0.518989274316309 
1024	 0.519435692772885 
1025	 0.519643515629499 
1026	 0.519952486587382 
1027	 0.520529677584411 
1028	 0.520946338872222 
1029	 0.521442578518715 
1030	 0.521810833966018 
1031	 0.522017795812986 
1032	 0.522490783550346 
1033	 0.522878348539426 
1034	 0.523166993849316 
1035	 0.523545773301401 
1036	 0.523990969643413 
1037	 0.524343550366629 
1038	 0.52469437219825 
1039	 0.525081461229596 
1040	 0.525217657995625 
1041	 0.525373924005855 
1042	 0.525402232934318 
1043	 0.525447602198214 
1044	 0.525657866163966 
1045	 0.525888239972942 
1046	 0.526159867559115 
1047	 0.526405676482714 
1048	 0.526637398844953 
1049	 0.526948471138628 
1050	 0.527289897777573 
1051	 0.52770969419828 
1052	 0.528057962898397 
1053	 0.528272966819049 
1054	 0.528367844578281 
1055	 0.52841348885958 
1056	 0.528487172050408 
1057	 0.528718443388011 
1058	 0.529027161059966 
1059	 0.529135629470336 
1060	 0.52939584980355 
1061	 0.529748522222098 
1062	 0.529839565021921 
1063	 0.530088102444719 
1064	 0.530361392482201 
1065	 0.530570894062324 
1066	 0.530657490031885 
1067	 0.530973952908998 
1068	 0.531139577758357 
1069	 0.53122130219452 
1070	 0.531495201960381 
1071	 0.531709616809865 
1072	 0.531977999173943 
1073	 0.532268554121173 
1074	 0.532272849040604 
1075	 0.532318634721028 
1076	 0.532593277573313 
1077	 0.532688468309069 
1078	 0.532807110896485 
1079	 0.53309055457511 
1080	 0.533232325650381 
1081	 0.533304092445167 
1082	 0.53338017266632 
1083	 0.533433344188251 
1084	 0.533405933913962 
1085	 0.533386129514342 
1086	 0.53343615893798 
1087	 0.533565316382783 
1088	 0.533673610897449 
1089	 0.533762791328627 
1090	 0.533799378178921 
1091	 0.533859559577984 
1092	 0.53402242028605 
1093	 0.534186099593878 
1094	 0.534301941330828 
1095	 0.534447666022939 
1096	 0.534526027635725 
1097	 0.534397050078994 
1098	 0.53438678282968 
1099	 0.534414422025855 
1100	 0.534525962423836 
1101	 0.53459537841157 
1102	 0.534586385730123 
1103	 0.534472127291605 
1104	 0.534452805746743 
1105	 0.534586179029522 
1106	 0.534751157434561 
1107	 0.53490914543494 
1108	 0.534913474750603 
1109	 0.534765115434146 
1110	 0.534617220269481 
1111	 0.534497990802465 
1112	 0.534400352643391 
1113	 0.534389291134671 
1114	 0.534427966862546 
1115	 0.534462318318432 
1116	 0.534629818122674 
1117	 0.534721130899879 
1118	 0.534778761323299 
1119	 0.534771820258383 
1120	 0.534636753282426 
1121	 0.534648110179941 
1122	 0.534593972550003 
1123	 0.534219517587514 
1124	 0.533736689506131 
1125	 0.533141947663169 
1126	 0.532474048194573 
1127	 0.531655119149281 
1128	 0.53085693494871 
1129	 0.530176019482012 
1130	 0.529273744295445 
1131	 0.528264933510205 
1132	 0.527193599312388 
1133	 0.526128786039585 
1134	 0.524833987280583 
1135	 0.523337916353259 
1136	 0.521990852990365 
1137	 0.520584444141338 
1138	 0.519097238664937 
1139	 0.517795041262874 
1140	 0.516474599201985 
1141	 0.515119328166633 
1142	 0.513705071293088 
1143	 0.512170588621831 
1144	 0.510551050510997 
1145	 0.508918224981146 
1146	 0.50706868575947 
1147	 0.505437562616851 
1148	 0.503950950396405 
1149	 0.502489876121308 
1150	 0.501146254207045 
1151	 0.499885656051316 
1152	 0.498766971153288 
1153	 0.497638244190697 
1154	 0.496622835952098 
1155	 0.495796121251438 
1156	 0.495036165285784 
1157	 0.494428370993345 
1158	 0.493878011408659 
1159	 0.493446610912045 
1160	 0.493100232815669 
1161	 0.49284547087634 
1162	 0.492593791023924 
1163	 0.492460219193275 
1164	 0.492231970847309 
1165	 0.491936533620414 
1166	 0.491728293667567 
1167	 0.491441327026969 
1168	 0.491310357129854 
1169	 0.491274497016043 
1170	 0.49133656056226 
1171	 0.491336685229154 
1172	 0.491400872647981 
1173	 0.491536573087873 
1174	 0.491481662664426 
1175	 0.491432020901255 
1176	 0.491506084250316 
1177	 0.491483626248529 
1178	 0.491322778207849 
1179	 0.491341483521438 
1180	 0.491470603603844 
1181	 0.491478031990901 
1182	 0.491523873898198 
1183	 0.491528092131867 
1184	 0.491409447018112 
1185	 0.491379628310748 
1186	 0.49140660752525 
1187	 0.491413559964447 
1188	 0.491426915961272 
1189	 0.491442747960625 
1190	 0.491430717144306 
1191	 0.491444881737644 
1192	 0.491494971757849 
1193	 0.491547360452364 
1194	 0.491647378716764 
1195	 0.49182356415924 
1196	 0.491914354761318 
1197	 0.491965562034695 
1198	 0.492093641260657 
1199	 0.492212934105323 
1200	 0.49239346244639 
1201	 0.49266391922851 
1202	 0.492904391374484 
1203	 0.493151668344946 
1204	 0.493386517342905 
1205	 0.493627231682461 
1206	 0.493875616177749 
1207	 0.494118849209944 
1208	 0.494347302315945 
1209	 0.494611798544256 
1210	 0.494788842322758 
1211	 0.494965201504623 
1212	 0.495259937484951 
1213	 0.495453030748744 
1214	 0.495603122824506 
1215	 0.495831607690913 
1216	 0.496040499022929 
1217	 0.4962940047885 
1218	 0.496641128418722 
1219	 0.496940986781385 
1220	 0.497225853089918 
1221	 0.497512156535356 
1222	 0.497830124534239 
1223	 0.498101819051044 
1224	 0.498322197107968 
1225	 0.498563689692507 
1226	 0.498746577036446 
1227	 0.499016573271554 
1228	 0.499366249861534 
1229	 0.499716442394742 
1230	 0.499988414965525 
1231	 0.50021650867654 
1232	 0.500459942957074 
1233	 0.500588892294795 
1234	 0.500873670469977 
1235	 0.501294765500082 
1236	 0.501580462073522 
1237	 0.501837863819137 
1238	 0.50211397746945 
1239	 0.502332420107546 
1240	 0.502608538262203 
1241	 0.502966041631806 
1242	 0.503251374594441 
1243	 0.503500436149994 
1244	 0.503762741011613 
1245	 0.504010295739314 
1246	 0.50425315504849 
1247	 0.50450773006281 
1248	 0.5047494558743 
1249	 0.504995512399685 
1250	 0.505206607426181 
1251	 0.505406402637405 
1252	 0.505555967809066 
1253	 0.505753192509703 
1254	 0.505921234580732 
1255	 0.506143290529663 
1256	 0.506446898132044 
1257	 0.506663614678987 
1258	 0.506883768013954 
1259	 0.50703580830491 
1260	 0.507123334109495 
1261	 0.507208232694455 
1262	 0.507217786378866 
1263	 0.507290238109978 
1264	 0.507365764849141 
1265	 0.507457828625805 
1266	 0.507648533566185 
1267	 0.507717719246583 
1268	 0.507713621298432 
1269	 0.507722939440516 
1270	 0.507668736685023 
1271	 0.507615706980215 
1272	 0.507562612555544 
1273	 0.507518212841295 
1274	 0.50748615861132 
1275	 0.507436629204303 
1276	 0.50740218932243 
1277	 0.507436557418825 
1278	 0.507349486541716 
1279	 0.507189111754496 
1280	 0.50706285087178 
1281	 0.506867844730586 
1282	 0.506750450937611 
1283	 0.50670176543414 
1284	 0.506600841422059 
1285	 0.50655154523224 
1286	 0.50639327518359 
1287	 0.506127029054954 
1288	 0.505921489999319 
1289	 0.505679663284609 
1290	 0.505453511747004 
1291	 0.505337220857993 
1292	 0.505091766043939 
1293	 0.504773396766802 
1294	 0.504422158882449 
1295	 0.504042727367817 
1296	 0.503530584991043 
1297	 0.503032286916716 
1298	 0.502490990334889 
1299	 0.501952368981068 
1300	 0.501371596228781 
1301	 0.500794462295293 
1302	 0.500223372206064 
1303	 0.499611363634968 
1304	 0.498951096581865 
1305	 0.498311543008549 
1306	 0.497743939109734 
1307	 0.496984868934754 
1308	 0.496133895024172 
1309	 0.495257934257514 
1310	 0.494228841753158 
1311	 0.493224229604794 
1312	 0.492268357147289 
1313	 0.4912063860057 
1314	 0.490030356442076 
1315	 0.488871215257199 
1316	 0.487667243114384 
1317	 0.486462766367536 
1318	 0.485264987177664 
1319	 0.484035272233308 
1320	 0.482723203244812 
1321	 0.481463626983845 
1322	 0.480200153207186 
1323	 0.478941295598063 
1324	 0.477572384633951 
1325	 0.476162311433472 
1326	 0.474696802856 
1327	 0.473044209414258 
1328	 0.471518093878577 
1329	 0.470137110574507 
1330	 0.468447619102804 
1331	 0.46658919722799 
1332	 0.464814189142275 
1333	 0.462802980580278 
1334	 0.461055131708211 
1335	 0.459586036038136 
1336	 0.458001505448128 
1337	 0.456287806376691 
1338	 0.454807190226228 
1339	 0.453327977302288 
1340	 0.451955945513555 
1341	 0.450657790834417 
1342	 0.449486850893068 
1343	 0.448357725496877 
1344	 0.447222195555643 
1345	 0.446091878526295 
1346	 0.445076944737571 
1347	 0.444188469881737 
1348	 0.443337043552442 
1349	 0.442637180335332 
1350	 0.442791661671988 
1351	 0.442185006973282 
1352	 0.441158640664731 
1353	 0.440480293967539 
1354	 0.44028777229411 
1355	 0.438869578674163 
1356	 0.43670922948823 
1357	 0.435693635246873 
1358	 0.433942645063902 
1359	 0.432865871398099 
1360	 0.446446012600195 
1361	 0.453179816483273 
1362	 0.446853386538234 
1363	 0.441924653289239 
1364	 0.423526786640367 
1365	 0.413543134461856 
1366	 0.414495620626727 
1367	 0.408083908034511 
1368	 0.406294379671966 
1369	 0.402827418004529 
1370	 0.395676556747036 
1371	 0.392544821546428 
1372	 0.393051206227816 
1373	 0.390788721897036 
1374	 0.386626909845765 
1375	 0.384166542261195 
1376	 0.383361453952125 
1377	 0.38006829229232 
1378	 0.377837617994713 
1379	 0.377753262170747 
1380	 0.373400895226375 
1381	 0.369486464197221 
1382	 0.357651136686192 
1383	 0.339636114500939 
1384	 0.328381691705606 
1385	 0.314610385116162 
1386	 0.30721453376888 
1387	 0.309135037683486 
1388	 0.302599956336709 
1389	 0.293875104081434 
1390	 0.287498239319887 
1391	 0.278259574275743 
1392	 0.273415183762438 
1393	 0.273074566541386 
1394	 0.268479690406534 
1395	 0.263853017756136 
1396	 0.258218432444856 
1397	 0.2497230446412 
1398	 0.243302723335127 
1399	 0.237561717208689 
1400	 0.231912288766384 
1401	 0.226582426168105 
1402	 0.221952736405182 
1403	 0.219347342230923 
1404	 0.214764568343967 
1405	 0.209851467415156 
1406	 0.205226673199849 
1407	 0.199893214520345 
1408	 0.195111686641341 
1409	 0.19055943895701 
1410	 0.186901145221916 
1411	 0.18473368123625 
1412	 0.183292155646154 
1413	 0.181538547857916 
1414	 0.180985607692674 
1415	 0.179205040375508 
1416	 0.176574296211725 
1417	 0.174876931223177 
1418	 0.173320159428195 
1419	 0.171936011918239 
1420	 0.17074481906536 
1421	 0.169734726344951 
1422	 0.169087613120327 
1423	 0.167913332013654 
1424	 0.166334262526233 
1425	 0.165455211033448 
1426	 0.164484550068953 
1427	 0.163762271424935 
1428	 0.163745324338771 
1429	 0.16324111448327 
1430	 0.162219158167819 
1431	 0.161688054889241 
1432	 0.161468122473697 
1433	 0.160987973004894 
1434	 0.160669768312106 
1435	 0.160164237457292 
1436	 0.159150124687264 
1437	 0.158576018507695 
1438	 0.158031572991014 
1439	 0.157824006646572 
1440	 0.158319206493919 
1441	 0.158297330912396 
1442	 0.158145275274794 
1443	 0.15804505507344 
1444	 0.157619448717117 
1445	 0.157218412657698 
1446	 0.15745072314156 
1447	 0.15758846925993 
1448	 0.157625858309145 
1449	 0.157786459676483 
1450	 0.157748012026258 
1451	 0.157411918241864 
1452	 0.157472474484563 
1453	 0.157676519568486 
1454	 0.157791700342902 
1455	 0.158035807706577 
1456	 0.158186260617141 
1457	 0.158183795594853 
1458	 0.158365247627371 
1459	 0.158589205011761 
1460	 0.158973508088795 
1461	 0.159590543499235 
1462	 0.160068292198313 
1463	 0.160667532832091 
1464	 0.161169259185236 
1465	 0.161397757240548 
1466	 0.162023095463612 
1467	 0.162858857047363 
1468	 0.16373304159466 
1469	 0.164797689940653 
1470	 0.165912240149699 
1471	 0.167026445733232 
1472	 0.168149842845774 
1473	 0.16934208023225 
1474	 0.17045529310488 
1475	 0.171454803851528 
1476	 0.17246362406225 
1477	 0.173272859486095 
1478	 0.174396047033661 
1479	 0.175693510165176 
1480	 0.176909856311601 
1481	 0.178198915354111 
1482	 0.179548552238804 
1483	 0.18080129205773 
1484	 0.182137277443506 
1485	 0.183643602666594 
1486	 0.185066982763103 
1487	 0.186415197911732 
1488	 0.187759229727156 
1489	 0.189139377267699 
1490	 0.190443274556954 
1491	 0.191625962592779 
1492	 0.192811036479803 
1493	 0.194117734396277 
1494	 0.195405803094648 
1495	 0.196765990679992 
1496	 0.198329751269354 
1497	 0.199700549796579 
1498	 0.201007793285436 
1499	 0.202346945406555 
1500	 0.203640234314705 
1501	 0.205098974079417 
1502	 0.206651951702085 
1503	 0.208193974688091 
1504	 0.209847961934822 
1505	 0.211424190361681 
1506	 0.212971605190257 
1507	 0.214474872344514 
1508	 0.215948396560372 
1509	 0.217427440293184 
1510	 0.218811489837454 
1511	 0.220341034528406 
1512	 0.221992029084002 
1513	 0.223551112178384 
1514	 0.225171658898332 
1515	 0.226703644693248 
1516	 0.228157263944431 
1517	 0.229645130857044 
1518	 0.231101599121308 
1519	 0.232629009472963 
1520	 0.234200451386589 
1521	 0.235756403569978 
1522	 0.237366719050333 
1523	 0.23894377476759 
1524	 0.240519602856742 
1525	 0.242052432573122 
1526	 0.243533098903099 
1527	 0.245083849357677 
1528	 0.246702615672157 
1529	 0.248202366026644 
1530	 0.249668099888786 
1531	 0.251171572809614 
1532	 0.252592790782377 
1533	 0.254046482101745 
1534	 0.255641910075882 
1535	 0.257100985076662 
1536	 0.25840178871474 
1537	 0.259806677123547 
1538	 0.261191234292483 
1539	 0.262636370270029 
1540	 0.264229121082619 
1541	 0.265701039279704 
1542	 0.267157314398065 
1543	 0.268563260737082 
1544	 0.269827886313559 
1545	 0.271183580429178 
1546	 0.27262162516991 
1547	 0.273964911213636 
1548	 0.275264169351903 
1549	 0.276607272251806 
1550	 0.277911721690136 
1551	 0.279221594435606 
1552	 0.280615057178798 
1553	 0.281960072604388 
1554	 0.283250731525519 
1555	 0.284535886734072 
1556	 0.28580865546091 
1557	 0.28707585779647 
1558	 0.288295728289223 
1559	 0.28955701615164 
1560	 0.29089104904029 
1561	 0.292158793429185 
1562	 0.293459903197627 
1563	 0.294686632357513 
1564	 0.295839769730984 
1565	 0.296931267381593 
1566	 0.298112798224786 
1567	 0.299178193668706 
1568	 0.300399200199582 
1569	 0.301726869055254 
1570	 0.302907526790792 
1571	 0.304097429843928 
1572	 0.305228489016505 
1573	 0.306203668600373 
1574	 0.307372853059708 
1575	 0.308636863519196 
1576	 0.309773416839184 
1577	 0.310917435746146 
1578	 0.312006410755513 
1579	 0.312991683900798 
1580	 0.314000035926762 
1581	 0.315023179306601 
1582	 0.315989761907937 
1583	 0.316887749990886 
1584	 0.317822810008445 
1585	 0.318741525337478 
1586	 0.319715412312985 
1587	 0.320727966883382 
1588	 0.321694456702921 
1589	 0.322696785227748 
1590	 0.323636083755792 
1591	 0.324505927192674 
1592	 0.32543210517499 
1593	 0.326376856633801 
1594	 0.327296683310629 
1595	 0.328239116888532 
1596	 0.32912458443048 
1597	 0.329950418534737 
1598	 0.330848343101137 
1599	 0.331768736752793 
1600	 0.332646237769381 
1601	 0.333550608268089 
1602	 0.33442204139423 
1603	 0.335260947980066 
1604	 0.336049253331706 
1605	 0.336804248348459 
1606	 0.33758347233123 
1607	 0.338272947122832 
1608	 0.339072218683079 
1609	 0.33996829368687 
1610	 0.340793651407502 
1611	 0.341667203355357 
1612	 0.342364247479457 
1613	 0.342956098082672 
1614	 0.343572883734598 
1615	 0.344069336393057 
1616	 0.344669572236168 
1617	 0.345319975887489 
1618	 0.345969843162488 
1619	 0.346594090271278 
1620	 0.347336931414945 
1621	 0.348229779781841 
1622	 0.348898359315783 
1623	 0.349574772069886 
1624	 0.350124192171434 
1625	 0.350467029442535 
1626	 0.350906192269894 
1627	 0.351289779215934 
1628	 0.351849668668098 
1629	 0.352503874054765 
1630	 0.353094632752496 
1631	 0.353850360155712 
1632	 0.354369089714408 
1633	 0.354673240638674 
1634	 0.355134956993754 
1635	 0.355616456385063 
1636	 0.356048527283944 
1637	 0.356480718222873 
1638	 0.356974523767253 
1639	 0.35744571546211 
1640	 0.357917698882953 
1641	 0.358498881710209 
1642	 0.358951616500956 
1643	 0.359290736320302 
1644	 0.35968640692388 
1645	 0.360068432463994 
1646	 0.360440238198351 
1647	 0.360789591820258 
1648	 0.361221779468814 
1649	 0.361695203297954 
1650	 0.36210927391518 
1651	 0.36255279465918 
1652	 0.362931542904208 
1653	 0.363302861620462 
1654	 0.363517094892271 
1655	 0.363648243870235 
1656	 0.363806078741025 
1657	 0.36378607450111 
1658	 0.364037053310411 
1659	 0.364336534767757 
1660	 0.364576682473769 
1661	 0.36479975186378 
1662	 0.364929135398058 
1663	 0.364929768520061 
1664	 0.364905746625193 
1665	 0.364854450760292 
1666	 0.364852570048241 
1667	 0.364938532358781 
1668	 0.365008846149768 
1669	 0.365119392961382 
1670	 0.365128515574714 
1671	 0.365112179007295 
1672	 0.365231988196281 
1673	 0.365317790628932 
1674	 0.365434940789634 
1675	 0.365507006508315 
1676	 0.365423674209071 
1677	 0.365260700324725 
1678	 0.365057589339365 
1679	 0.36499717287025 
1680	 0.36495041141454 
1681	 0.364827829867172 
1682	 0.364777916391552 
1683	 0.364682129885721 
1684	 0.364441298909798 
1685	 0.364249145897526 
1686	 0.364092677566298 
1687	 0.36390103780719 
1688	 0.363820297164878 
1689	 0.363730156505721 
1690	 0.363547532684379 
1691	 0.363374982054475 
1692	 0.363247197669903 
1693	 0.363031645843438 
1694	 0.362787146422196 
1695	 0.362499139508796 
1696	 0.362040663846276 
1697	 0.36170697224879 
1698	 0.36142591769451 
1699	 0.361110460685679 
1700	 0.360940084973294 
1701	 0.360625433486365 
1702	 0.360160059328004 
1703	 0.359744307771959 
1704	 0.359256035484143 
1705	 0.358761273296453 
1706	 0.358302307306727 
1707	 0.357845968257725 
1708	 0.357309579109667 
1709	 0.35687944884175 
1710	 0.356558878284179 
1711	 0.356178423549246 
1712	 0.35591019068294 
1713	 0.355441064787749 
1714	 0.354744253394721 
1715	 0.354209548758646 
1716	 0.353695787940702 
1717	 0.353123547587628 
1718	 0.352670677384312 
1719	 0.352079288508545 
1720	 0.351218463830423 
1721	 0.350579624184535 
1722	 0.349961637545833 
1723	 0.34953911487856 
1724	 0.349383301241127 
1725	 0.348974722260935 
1726	 0.348649003084301 
1727	 0.34808066812944 
1728	 0.347196225744772 
1729	 0.346557482476198 
1730	 0.345970861786803 
1731	 0.345231857310507 
1732	 0.344619861281359 
1733	 0.343853220202163 
1734	 0.342866023743911 
1735	 0.34208075605442 
1736	 0.341562721690697 
1737	 0.340997629354512 
1738	 0.34033364270741 
1739	 0.339711784692378 
1740	 0.338736032669304 
1741	 0.337664125126071 
1742	 0.336980180537454 
1743	 0.336213263680353 
1744	 0.335582311355758 
1745	 0.335045615207237 
1746	 0.334195179446902 
1747	 0.3333040462448 
1748	 0.332230392045366 
1749	 0.330991529145938 
1750	 0.329806334215578 
1751	 0.328655934118309 
1752	 0.327497948654487 
1753	 0.326513209896899 
1754	 0.325710268283885 
1755	 0.324773463820603 
1756	 0.323728739137917 
1757	 0.322711479636263 
1758	 0.32167690877557 
1759	 0.320718220911691 
1760	 0.31978261333696 
1761	 0.318694931379538 
1762	 0.317765096506386 
1763	 0.317004186721982 
1764	 0.316164555400366 
1765	 0.315380212470044 
1766	 0.314499356917346 
1767	 0.313475598045385 
1768	 0.31270740982873 
1769	 0.312103512750465 
1770	 0.311327637701038 
1771	 0.310541700853153 
1772	 0.309860951200386 
1773	 0.308982289728881 
1774	 0.308790181974086 
1775	 0.308475166593361 
1776	 0.307967081533989 
1777	 0.307669324040088 
1778	 0.307117906071401 
1779	 0.306487292724294 
1780	 0.306099791945936 
1781	 0.305633147897117 
1782	 0.305307291360179 
1783	 0.305144538827572 
1784	 0.304880369684085 
1785	 0.304701382597445 
1786	 0.30413192605967 
1787	 0.303451666689081 
1788	 0.303310182095372 
1789	 0.303086082364785 
1790	 0.302827669585671 
1791	 0.303139781750992 
1792	 0.303237672493573 
1793	 0.302999440244592 
1794	 0.30311932947843 
1795	 0.302737200157566 
1796	 0.302382410541078 
1797	 0.302513100470536 
1798	 0.302197078554696 
1799	 0.302890972308555 
1800	 0.303743244891703 
1801	 0.304852637204037 
1802	 0.305269150196928 
1803	 0.305656897358382 
1804	 0.305935584395415 
1805	 0.30577244117616 
1806	 0.30536082956467 
1807	 0.305314541341058 
1808	 0.303860893058773 
1809	 0.304144980478404 
1810	 0.304930793992145 
1811	 0.308294943280179 
1812	 0.30879305490133 
1813	 0.30811116933108 
1814	 0.308139641547765 
1815	 0.306130156053426 
1816	 0.305287987218728 
1817	 0.306319529097407 
1818	 0.307071536388509 
1819	 0.307888090023176 
1820	 0.308250442930256 
1821	 0.308931763206109 
1822	 0.311023741316692 
1823	 0.311074343362911 
1824	 0.308783718094308 
1825	 0.308022742440993 
1826	 0.305068856912695 
1827	 0.304247992299911 
1828	 0.305025947756782 
1829	 0.311573181184025 
1830	 0.3120332910406 
1831	 0.310185090543251 
1832	 0.310308562255482 
1833	 0.305894176438521 
1834	 0.298735762154073 
1835	 0.286393520373915 
1836	 0.282479867888078 
1837	 0.262288383245173 
1838	 0.268148276201581 
1839	 0.300309163423351 
1840	 0.397648965752088 
1841	 0.427739183000359 
1842	 0.428800691905272 
1843	 0.443876459914423 
1844	 0.440856643028383 
1845	 0.439184193375142 
1846	 0.454907906874658 
1847	 0.461818413786731 
1848	 0.460557814322229 
1849	 0.443236382102923 
1850	 0.416863608302358 
1851	 0.390413982019774 
1852	 0.344096370247377 
1853	 0.24216207283622 
1854	 0.220714462876724 
1855	 0.274251149612184 
1856	 0.254209180200305 
1857	 0.209797361390127 
1858	 0.209837150918447 
1859	 0.189715692030448 
1860	 0.113682326970738 
1861	 0.116991017879516 
1862	 0.179629785083688 
1863	 0.199913044104941 
1864	 0.242632112574167 
1865	 0.260596946169362 
1866	 0.24640639899148 
1867	 0.2375748325112 
1868	 0.231586653459433 
1869	 0.219453387432631 
1870	 0.212352079392285 
1871	 0.208948904258798 
1872	 0.200661119934886 
1873	 0.213933449875187 
1874	 0.187452496747588 
1875	 0.142474491378083 
1876	 0.131471244595346 
1877	 0.135915096817614 
1878	 0.108549975867134 
1879	 0.114232743563472 
1880	 0.111773328464407 
1881	 0.113187832731733 
1882	 0.111141407660568 
1883	 0.115301619569064 
1884	 0.130286196771017 
1885	 0.132875300535321 
1886	 0.129927657625086 
1887	 0.130791084336983 
1888	 0.123404805452036 
1889	 0.108250032083276 
1890	 0.102029989040787 
1891	 9.63606445778668E-02 
1892	 9.10869843307019E-02 
1893	 9.10076638600542E-02 
1894	 8.65580915305437E-02 
1895	 7.61453494890205E-02 
1896	 7.03350009689592E-02 
1897	 6.24533419202993E-02 
1898	 6.03818458171957E-02 
1899	 6.81413152968315E-02 
1900	 6.28954487544292E-02 
1901	 6.40409585671172E-02 
1902	 6.97013635746723E-02 
1903	 8.03025055674627E-02 
1904	 9.70398508423356E-02 
1905	 0.104495434120213 
1906	 0.112079163298229 
1907	 0.119541163099755 
1908	 9.86948768633429E-02 
1909	 9.02117397617342E-02 
1910	 7.41208570993241E-02 
1911	 5.96280140289452E-02 
1912	 6.23299782734228E-02 
1913	 7.01410969893644E-02 
1914	 7.08493962700491E-02 
1915	 8.28552198255795E-02 
1916	 7.96956830734173E-02 
1917	 0.065757361234746 
1918	 6.14882373860412E-02 
1919	 5.92461107761955E-02 
1920	 5.44129234240173E-02 
1921	 5.59436574996368E-02 
1922	 5.65931868076666E-02 
1923	 5.73924907629353E-02 
1924	 6.09127188746853E-02 
1925	 6.07562411143309E-02 
1926	 0.058575237473228 
1927	 5.75320284086931E-02 
1928	 0.056940251564189 
1929	 5.13603747767202E-02 
1930	 5.06073264122408E-02 
1931	 0.053345213159861 
1932	 5.41416297779771E-02 
1933	 5.61368579806686E-02 
1934	 5.61557166312044E-02 
1935	 5.37835373167942E-02 
1936	 5.36449178064727E-02 
1937	 5.39622608075409E-02 
1938	 5.39726605207727E-02 
1939	 5.43440365796799E-02 
1940	 5.51343059597755E-02 
1941	 5.53645696642581E-02 
1942	 5.70419459704559E-02 
1943	 5.79804173432022E-02 
1944	 5.85311442243781E-02 
1945	 5.94450805143095E-02 
1946	 5.88690631616221E-02 
1947	 5.89261628667559E-02 
1948	 5.91726658771285E-02 
1949	 0.059711960399432 
1950	 6.03053373640221E-02 
1951	 6.13119828541131E-02 
1952	 6.16083664741713E-02 
1953	 6.20909882376806E-02 
1954	 6.27958604545889E-02 
1955	 6.17879919288215E-02 
1956	 0.061409303579143 
1957	 6.22709146495118E-02 
1958	 6.27287545347314E-02 
1959	 6.31201986156904E-02 
1960	 6.40177367895948E-02 
1961	 6.55062261436134E-02 
1962	 6.55569216301894E-02 
1963	 6.60760902037004E-02 
1964	 6.66172307739705E-02 
1965	 6.71545251616945E-02 
1966	 6.78712267683872E-02 
1967	 6.85709360006512E-02 
1968	 6.87161093962951E-02 
1969	 6.90858138297662E-02 
1970	 6.93561338926762E-02 
1971	 6.99555932521799E-02 
1972	 7.07572388543191E-02 
1973	 7.14859966963871E-02 
1974	 7.20498254714469E-02 
1975	 7.23751920913751E-02 
1976	 7.30586289259746E-02 
1977	 7.38146095914363E-02 
1978	 7.40568949043972E-02 
1979	 7.46330816416637E-02 
1980	 7.52375797651624E-02 
1981	 7.57748117837177E-02 
1982	 7.63297371204822E-02 
1983	 7.74587065559708E-02 
1984	 7.76756482003255E-02 
1985	 7.76832978928863E-02 
1986	 7.78793837245646E-02 
1987	 7.77807825498798E-02 
1988	 7.86482503710005E-02 
1989	 0.079543161539837 
1990	 8.01439341431892E-02 
1991	 0.08142067534386 
1992	 8.26504745794768E-02 
1993	 8.32258340768711E-02 
1994	 8.34312663758494E-02 
1995	 8.38343392679356E-02 
1996	 8.39060175902872E-02 
1997	 8.38064313987238E-02 
1998	 8.42219449912784E-02 
1999	 8.56654650261568E-02 
2000	 8.72880451578774E-02 
2001	 8.85153943486071E-02 
2002	 8.98574704927518E-02 
2003	 0.090764974919221 
2004	 9.09739905691141E-02 
2005	 9.14193494833272E-02 
2006	 9.18865783084831E-02 
2007	 9.22367612949957E-02 
2008	 9.32589792455047E-02 
2009	 9.39659819758946E-02 
2010	 0.093886977670356 
2011	 9.42606184972138E-02 
2012	 9.45916084408697E-02 
2013	 9.58609672055971E-02 
2014	 9.74355458821054E-02 
2015	 9.85580835230987E-02 
2016	 9.93986546776077E-02 
2017	 9.98531706506999E-02 
2018	 0.10078955136689 
2019	 0.101482075131585 
2020	 0.102407096818652 
2021	 0.103049914919875 
2022	 0.103268779036915 
2023	 0.103213384317695 
2024	 0.103834244383904 
2025	 0.104607442457706 
2026	 0.105401708692671 
2027	 0.106394625197943 
2028	 0.106793895020548 
2029	 0.107195338943261 
2030	 0.108234342741391 
2031	 0.109107316264452 
2032	 0.109625170740809 
2033	 0.110028694022873 
2034	 0.110682306678353 
2035	 0.111090850784657 
2036	 0.111306071895422 
2037	 0.111989519363301 
2038	 0.112800035489471 
2039	 0.113572426587506 
2040	 0.114312867321324 
2041	 0.115263432392064 
2042	 0.11605838097622 
2043	 0.116119629482848 
2044	 0.116386723523808 
2045	 0.117068094064875 
2046	 0.1179726320127 
2047	 0.118942829095933 
2048	 0.11996493567415 
2049	 0.120732551487032 
2050	 0.121075793343756 
2051	 0.121084449286671 
2052	 0.121384110159274 
2053	 0.121805637638431 
2054	 0.122115567867254 
2055	 0.12296171686928 
2056	 0.123852329496635 
2057	 0.124617749629141 
2058	 0.125742773544709 
2059	 0.126702244812653 
2060	 0.127481992095738 
2061	 0.128172291351019 
2062	 0.128891065593024 
2063	 0.129105830684502 
2064	 0.129276167503293 
2065	 0.129528714979267 
2066	 0.129848915830525 
2067	 0.130909626743833 
2068	 0.131831019008506 
2069	 0.132043392803019 
2070	 0.13307211819218 
2071	 0.134366652081966 
2072	 0.135107675348847 
2073	 0.135535292177147 
2074	 0.136585791874566 
2075	 0.137254765435995 
2076	 0.137447217530029 
2077	 0.138063300474418 
2078	 0.138750382188313 
2079	 0.139748004476018 
2080	 0.140667300822883 
2081	 0.141340528698375 
2082	 0.14235894803087 
2083	 0.142905989155126 
2084	 0.143273754573454 
2085	 0.144282216843121 
2086	 0.145119408394994 
2087	 0.145757017496516 
2088	 0.146402364649703 
2089	 0.146890710239021 
2090	 0.146999999400286 
2091	 0.147392634638351 
2092	 0.148358963632183 
2093	 0.149866775083421 
2094	 0.15136871760118 
2095	 0.152465689764942 
2096	 0.153099590953569 
2097	 0.1530414527441 
2098	 0.153002507442131 
2099	 0.153455389035689 
2100	 0.154307845457923 
2101	 0.155362202181919 
2102	 0.156111214743441 
2103	 0.156804637640879 
2104	 0.157587797791847 
2105	 0.15817922635076 
2106	 0.158588934868642 
2107	 0.159491977008193 
2108	 0.160319395625554 
2109	 0.161035212929738 
2110	 0.16184135919291 
2111	 0.162567457896647 
2112	 0.163216828696908 
2113	 0.163865847939301 
2114	 0.164522751744386 
2115	 0.165183421625495 
2116	 0.165790029012515 
2117	 0.166486235927075 
2118	 0.167181734264659 
2119	 0.168078066450653 
2120	 0.169117994650637 
2121	 0.170165190873758 
2122	 0.171429260254737 
2123	 0.171865761329169 
2124	 0.172127974539751 
2125	 0.172526290843679 
2126	 0.172664761532086 
2127	 0.173156122732148 
2128	 0.173742148624648 
2129	 0.174214262168769 
2130	 0.174718002525919 
2131	 0.175123675132899 
2132	 0.175641312409821 
2133	 0.175923207594695 
2134	 0.176191052252823 
2135	 0.176235798641049 
2136	 0.176729151943287 
2137	 0.177318212542709 
2138	 0.177909217299186 
2139	 0.178594323949568 
2140	 0.178823183589673 
2141	 0.178875044970298 
2142	 0.179513190657431 
2143	 0.180477913505964 
2144	 0.18157687949374 
2145	 0.182763109689248 
2146	 0.183269624342654 
2147	 0.18364723571659 
2148	 0.183851866513906 
2149	 0.183609254020618 
2150	 0.18415847387162 
2151	 0.184621611408678 
2152	 0.185185587089114 
2153	 0.185706611529916 
2154	 0.186466632789788 
2155	 0.18674242828408 
2156	 0.187280166414786 
2157	 0.187427280995203 
2158	 0.18725275854171 
2159	 0.18717802309265 
2160	 0.187011101670168 
2161	 0.18731308713758 
2162	 0.188133078299085 
2163	 0.189015417117374 
2164	 0.189492546875412 
2165	 0.189854752499285 
2166	 0.1903321629502 
2167	 0.190777134926157 
2168	 0.190878163009732 
2169	 0.190611096248528 
2170	 0.190637800358694 
2171	 0.190595267514345 
2172	 0.190311862964661 
2173	 0.19048256557782 
2174	 0.19125389857136 
2175	 0.191925891123509 
2176	 0.192630256652491 
2177	 0.192987262339865 
2178	 0.193263671196063 
2179	 0.193046118821786 
2180	 0.192357570922236 
2181	 0.192892310024173 
2182	 0.193374534074427 
2183	 0.193320851558874 
2184	 0.193837700562672 
2185	 0.193795365563591 
2186	 0.194262507529322 
2187	 0.194509203597844 
2188	 0.194628969141267 
2189	 0.194753227206579 
2190	 0.195051135006596 
2191	 0.19472877161117 
2192	 0.194404660123368 
2193	 0.195377232381858 
2194	 0.195993718718097 
2195	 0.196014314769191 
2196	 0.196121529333905 
2197	 0.196029131040911 
2198	 0.195441545541709 
2199	 0.195386594137383 
2200	 0.196105712699164 
2201	 0.196931115641891 
2202	 0.197537620492923 
2203	 0.197489592450967 
2204	 0.197068293352818 
2205	 0.196095965404427 
2206	 0.195570032545847 
2207	 0.195830443733885 
2208	 0.1957978713169 
2209	 0.195846621693929 
2210	 0.195931455205695 
2211	 0.195988093555327 
2212	 0.195906942253906 
2213	 0.196273771213461 
2214	 0.196671608077258 
2215	 0.197067826768787 
2216	 0.197246214351337 
2217	 0.197443736600605 
2218	 0.197270432463863 
2219	 0.196637836843434 
2220	 0.19661012934909 
2221	 0.196127162977225 
2222	 0.194950731804658 
2223	 0.194566550297479 
2224	 0.194329927058489 
2225	 0.194301787372981 
2226	 0.195093340851432 
2227	 0.195553112091365 
2228	 0.195807481344922 
2229	 0.195634660985278 
2230	 0.19459525527124 
2231	 0.193958049285794 
2232	 0.193266087824814 
2233	 0.19264994035102 
2234	 0.191808239286622 
2235	 0.192258401660547 
2236	 0.192753001604763 
2237	 0.193087199852162 
2238	 0.193510704399127 
2239	 0.192855665102871 
2240	 0.191898384559186 
2241	 0.190762786339629 
2242	 0.189573812473712 
2243	 0.189335614166935 
2244	 0.188664768232562 
2245	 0.188333524627348 
2246	 0.188328915371122 
2247	 0.187459201316451 
2248	 0.186843991897469 
2249	 0.186046640324889 
2250	 0.185665019536756 
2251	 0.185709445366937 
2252	 0.184891126958199 
2253	 0.184485436867961 
2254	 0.184073286125819 
2255	 0.183027245521592 
2256	 0.182512127604427 
2257	 0.18269160008259 
2258	 0.18266861691069 
2259	 0.181820104884869 
2260	 0.180906966935788 
2261	 0.180278806574434 
2262	 0.180000579794916 
2263	 0.179845814461929 
2264	 0.179198888503186 
2265	 0.178254257288961 
2266	 0.17708814340248 
2267	 0.175856752075775 
2268	 0.175804183702361 
2269	 0.175714506997617 
2270	 0.175329747448213 
2271	 0.174510792433193 
2272	 0.173441622760971 
2273	 0.172324112522279 
2274	 0.170614930521701 
2275	 0.169589711162029 
2276	 0.168608160272325 
2277	 0.168684467625455 
2278	 0.169080162055766 
2279	 0.169034325718651 
2280	 0.169476157848295 
2281	 0.16839797649372 
2282	 0.167227520854261 
2283	 0.166254516547764 
2284	 0.164756970613575 
2285	 0.164425219576082 
2286	 0.164452054170918 
2287	 0.165152208990799 
2288	 0.165821120391327 
2289	 0.165807189093705 
2290	 0.165023681286053 
2291	 0.163930669378194 
2292	 0.162250764116788 
2293	 0.161640029413294 
2294	 0.162234148597592 
2295	 0.162638159070723 
2296	 0.162562198446028 
2297	 0.161625531650787 
2298	 0.160660160320023 
2299	 0.159889410505041 
2300	 0.158535024965339 
2301	 0.157909729883343 
2302	 0.157574655170369 
2303	 0.156076930234173 
2304	 0.155245780652494 
2305	 0.155177252896202 
2306	 0.153485542022905 
2307	 0.151759783972096 
2308	 0.151279842929784 
2309	 0.150301546878296 
2310	 0.149797469744722 
2311	 0.150210990999594 
2312	 0.148983993770506 
2313	 0.146785465114255 
2314	 0.1465641199382 
2315	 0.146071307756444 
2316	 0.145807309998881 
2317	 0.147405873658638 
2318	 0.146919232284652 
2319	 0.145380805770513 
2320	 0.144340464467283 
2321	 0.143662327949044 
2322	 0.142900322829195 
2323	 0.142636494892095 
2324	 0.14288501397758 
2325	 0.144017548533163 
2326	 0.144885998698579 
2327	 0.144001410346404 
2328	 0.142604980970764 
2329	 0.141452832786607 
2330	 0.139620619909761 
2331	 0.138843890936986 
2332	 0.14026415555339 
2333	 0.141017049519352 
2334	 0.140481078362322 
2335	 0.140309436938801 
2336	 0.139597110431884 
2337	 0.138239484779319 
2338	 0.137451782879083 
2339	 0.137061270221258 
2340	 0.136005318793112 
2341	 0.133895125431444 
2342	 0.13359696129436 
2343	 0.133750052978801 
2344	 0.133749022067126 
2345	 0.135022999016524 
2346	 0.133778506145453 
2347	 0.132751920044142 
2348	 0.132958693644951 
2349	 0.13162265689291 
2350	 0.130904886514877 
2351	 0.130154945688516 
2352	 0.128581802811921 
2353	 0.129021596071349 
2354	 0.13077072339879 
2355	 0.12948196489987 
2356	 0.127593622383922 
2357	 0.126938758717248 
2358	 0.124891839475136 
2359	 0.123304490719203 
2360	 0.122286826478676 
2361	 0.120777510842484 
2362	 0.120483184887429 
2363	 0.121086079874097 
2364	 0.121548188632652 
2365	 0.121166919950125 
2366	 0.120394584204337 
2367	 0.118642540668263 
2368	 0.117625359380964 
2369	 0.120521536328853 
2370	 0.121592162162013 
2371	 0.12147863724662 
2372	 0.122075273358964 
2373	 0.121821933529518 
2374	 0.120529820278904 
2375	 0.120238663842867 
2376	 0.119553588693416 
2377	 0.117479592676206 
2378	 0.115869901912269 
2379	 0.113978714290915 
2380	 0.112086167539824 
2381	 0.110583623563302 
2382	 0.109787823313657 
2383	 0.109409735806914 
2384	 0.10859349737954 
2385	 0.106667276603275 
2386	 0.105685406768755 
2387	 0.10579839860606 
2388	 0.105324881869213 
2389	 0.106061469698754 
2390	 0.105520681414499 
2391	 0.102828548476724 
2392	 0.101398947603289 
2393	 0.100792514832043 
2394	 9.94056704188961E-02 
2395	 9.69195420221219E-02 
2396	 9.78081142670762E-02 
2397	 0.101276626199534 
2398	 0.102023854259259 
2399	 0.104051717567816 
2400	 0.104096664922849 
2401	 0.101152422914004 
2402	 9.78167395586784E-02 
2403	 9.62020432752708E-02 
2404	 9.55954938578761E-02 
2405	 9.63197123080931E-02 
2406	 9.62995559439879E-02 
2407	 9.54355276412859E-02 
2408	 9.69322477144293E-02 
2409	 0.100671914285813 
2410	 0.101543130729814 
2411	 0.102573243046796 
2412	 0.104161382639932 
2413	 9.92040935097723E-02 
2414	 0.096942691048704 
2415	 9.70069344968232E-02 
2416	 9.55958483482633E-02 
2417	 9.57509580837452E-02 
2418	 9.21722278897279E-02 
2419	 8.84955168958804E-02 
2420	 8.67637588006225E-02 
2421	 0.082154605424685 
2422	 8.19899317650485E-02 
2423	 9.03400706344849E-02 
2424	 9.41050255086242E-02 
2425	 9.82019926294781E-02 
2426	 0.10398616642339 
2427	 9.86730508886462E-02 
2428	 9.32126173664029E-02 
2429	 9.27209140456912E-02 
2430	 8.87577503341648E-02 
2431	 8.40625742272909E-02 
2432	 8.37482633446526E-02 
2433	 8.31202313968085E-02 
2434	 8.14576995641698E-02 
2435	 0.081293912888278 
2436	 8.01455568224053E-02 
2437	 7.50991823638327E-02 
2438	 7.45782240055898E-02 
2439	 7.91550410253017E-02 
2440	 8.02684082356317E-02 
2441	 8.22295020111703E-02 
2442	 8.33225605910527E-02 
2443	 8.27326196975619E-02 
2444	 8.09503572092019E-02 
2445	 7.76649473166785E-02 
2446	 7.35611232500679E-02 
2447	 6.45674240446824E-02 
2448	 6.04837042016217E-02 
2449	 5.92521387720765E-02 
2450	 6.04516854190874E-02 
2451	 6.67517330948489E-02 
2452	 7.10529380504865E-02 
2453	 7.85264917238207E-02 
2454	 7.91418671546284E-02 
2455	 7.35306083581297E-02 
2456	 7.28866638259268E-02 
2457	 6.98810271563268E-02 
2458	 7.05229027755766E-02 
2459	 7.94761917727397E-02 
2460	 8.04062381742979E-02 
2461	 7.86947999048676E-02 
2462	 7.52839906416568E-02 
2463	 6.33395719447561E-02 
2464	 5.77879436190056E-02 
2465	 5.19203836154315E-02 
2466	 5.03108942397221E-02 
2467	 5.90536257543358E-02 
2468	 5.82624497893331E-02 
2469	 5.18583848630525E-02 
2470	 5.47015940708905E-02 
2471	 6.05778437988634E-02 
2472	 5.95200348238335E-02 
2473	 6.33952792652403E-02 
2474	 6.41329634602004E-02 
2475	 4.80127095470615E-02 
2476	 4.71800479773568E-02 
2477	 0.058416708139619 
2478	 6.76342911443488E-02 
2479	 9.36669391615874E-02 
2480	 0.10103747232231 
2481	 0.10480881021966 
2482	 0.100220172843143 
2483	 5.31138695674882E-02 
2484	 3.42344588197747E-02 
2485	 2.20421267129123E-02 
2486	 3.78335261894519E-02 
2487	 7.97403578458393E-02 
2488	 0.112150669143794 
2489	 0.135187083096313 
2490	 0.121285451351725 
2491	 0.113847471338783 
2492	 0.126677871046089 
2493	 0.118248715153335 
2494	 9.05381445656754E-02 
2495	 6.79969723316519E-02 
2496	 5.35183613589798E-02 
2497	 3.98734796987594E-02 
2498	 6.32333262331411E-02 
2499	 0.095489052569332 
2500	 0.130924991108786 
