Wavelength	ref00063.asd
350	 3.63650190821934E-02 
351	 0.036617427648779 
352	 3.60478930068402E-02 
353	 3.57075481455853E-02 
354	 0.036002949303416 
355	 3.64217512205277E-02 
356	 3.65681061024536E-02 
357	 3.66897541415576E-02 
358	 3.64425548142455E-02 
359	 3.65927809395738E-02 
360	 3.76953796888768E-02 
361	 3.81063847459169E-02 
362	 3.82796705691681E-02 
363	 3.83731936858475E-02 
364	 3.83285259760206E-02 
365	 3.84324977212043E-02 
366	 3.87742254987136E-02 
367	 3.91150074007061E-02 
368	 3.88059181201362E-02 
369	 0.039098622529778 
370	 3.96393228112058E-02 
371	 3.98538339742845E-02 
372	 0.039682163179944 
373	 0.039989744943939 
374	 4.04879796702461E-02 
375	 4.04240520409681E-02 
376	 4.04550520964467E-02 
377	 4.07688977020416E-02 
378	 4.14343539169456E-02 
379	 4.24093517003925E-02 
380	 4.19637370492859E-02 
381	 4.19047304731765E-02 
382	 4.33321416164061E-02 
383	 4.33543055824268E-02 
384	 4.34918162543639E-02 
385	 4.40196023216893E-02 
386	 4.46574650785692E-02 
387	 4.52787378040382E-02 
388	 4.56685513680048E-02 
389	 4.59513612451535E-02 
390	 4.65622978923609E-02 
391	 4.70503919640445E-02 
392	 4.75138137278068E-02 
393	 4.80092185876694E-02 
394	 4.82066927640584E-02 
395	 4.88718824863024E-02 
396	 4.98057795394952E-02 
397	 5.05176930004774E-02 
398	 5.10262850594643E-02 
399	 0.051417981998763 
400	 5.18659638089633E-02 
401	 5.25552802952268E-02 
402	 5.28713440034718E-02 
403	 5.32455470996122E-02 
404	 5.39154557223344E-02 
405	 5.44297793931062E-02 
406	 5.49505490976679E-02 
407	 5.55301088662757E-02 
408	 5.61727099532969E-02 
409	 5.68106311983358E-02 
410	 5.74186874920936E-02 
411	 5.80686111545025E-02 
412	 0.058882749583967 
413	 5.95190033508872E-02 
414	 5.99532145508247E-02 
415	 6.03593778877145E-02 
416	 6.12129206778979E-02 
417	 6.20478898099838E-02 
418	 6.25454917605305E-02 
419	 6.26660407345524E-02 
420	 6.33877343754721E-02 
421	 6.41972939455731E-02 
422	 0.064830275582083 
423	 6.53326321453199E-02 
424	 6.59966908977918E-02 
425	 6.65982940209855E-02 
426	 6.70311998146489E-02 
427	 6.76410081250964E-02 
428	 6.81971059005606E-02 
429	 6.86953758339501E-02 
430	 6.92220619380546E-02 
431	 6.99022534858397E-02 
432	 7.05137242888814E-02 
433	 7.09813873830018E-02 
434	 0.071385199799465 
435	 7.18535553312634E-02 
436	 7.23621895365007E-02 
437	 7.28749431748866E-02 
438	 7.33879996110097E-02 
439	 7.39818569195862E-02 
440	 7.45213481812255E-02 
441	 7.48933063822465E-02 
442	 7.55459250664034E-02 
443	 7.60831306443883E-02 
444	 7.64664412268815E-02 
445	 7.70225869057712E-02 
446	 7.74498925260597E-02 
447	 7.79140735932968E-02 
448	 7.85302476851358E-02 
449	 7.91050732875075E-02 
450	 7.95793777867375E-02 
451	 7.99962424853249E-02 
452	 8.04506737177221E-02 
453	 8.10060119119563E-02 
454	 8.15675348597803E-02 
455	 8.20725667284055E-02 
456	 8.25141013239959E-02 
457	 0.082954597830211 
458	 8.33797809600627E-02 
459	 8.37750737956321E-02 
460	 8.41777954694581E-02 
461	 8.45839364142513E-02 
462	 8.49833240227146E-02 
463	 8.53682869399419E-02 
464	 8.57967466106476E-02 
465	 8.62349225562819E-02 
466	 8.66353671609348E-02 
467	 0.086942406184098 
468	 8.73421494063721E-02 
469	 8.77757310553116E-02 
470	 8.81600909184922E-02 
471	 0.088617891967838 
472	 8.90433583197249E-02 
473	 8.94537584873961E-02 
474	 8.99381626583969E-02 
475	 9.03238507226746E-02 
476	 9.06610981975489E-02 
477	 9.10179890146451E-02 
478	 0.091432827555396 
479	 0.091891542665984 
480	 9.23560961132524E-02 
481	 0.092769959930131 
482	 0.09301297943659 
483	 9.33977410690247E-02 
484	 9.39812806179125E-02 
485	 9.45357113019293E-02 
486	 9.48313259222946E-02 
487	 9.52152237649757E-02 
488	 9.58841023045683E-02 
489	 9.63239665549985E-02 
490	 9.69196739282703E-02 
491	 9.75769257795746E-02 
492	 9.80538686343946E-02 
493	 9.85027508490043E-02 
494	 0.099073330501715 
495	 9.97607196725006E-02 
496	 0.100375185048661 
497	 0.101066989191229 
498	 0.101823800008821 
499	 0.102581539846261 
500	 0.103213597939906 
501	 0.104062917896589 
502	 0.105080241050706 
503	 0.105979063391639 
504	 0.106805115329232 
505	 0.107667390264446 
506	 0.108626662123509 
507	 0.109648656234215 
508	 0.110731991223208 
509	 0.111853536007145 
510	 0.112983193012708 
511	 0.114075954538036 
512	 0.115308424613056 
513	 0.116625965535085 
514	 0.117794076108001 
515	 0.119109068631333 
516	 0.12047835317646 
517	 0.121812147137325 
518	 0.123206747394035 
519	 0.124766609005724 
520	 0.126194904403191 
521	 0.127212808096041 
522	 0.128577271510579 
523	 0.129971649369495 
524	 0.131219888090016 
525	 0.132368381450576 
526	 0.133660700469144 
527	 0.134980523149374 
528	 0.136185369647649 
529	 0.137332585033618 
530	 0.138389742630836 
531	 0.139362036487727 
532	 0.14028540762891 
533	 0.141232769588498 
534	 0.142131117120778 
535	 0.142961786447984 
536	 0.143832016540603 
537	 0.144668669235127 
538	 0.145418466909453 
539	 0.146081495807199 
540	 0.146870282930268 
541	 0.147637298889552 
542	 0.148346503891343 
543	 0.149067035154147 
544	 0.149814883541888 
545	 0.1504701328631 
546	 0.151021610945984 
547	 0.151760270333707 
548	 0.152468800915626 
549	 0.15309836867945 
550	 0.153675486208815 
551	 0.154239277522633 
552	 0.154813315457507 
553	 0.155357174763675 
554	 0.155758631269189 
555	 0.156208902212002 
556	 0.156663394455891 
557	 0.157054875615556 
558	 0.157448612692395 
559	 0.157792668447666 
560	 0.158069888896468 
561	 0.158295981485203 
562	 0.158528191200438 
563	 0.158727366571765 
564	 0.15885339189809 
565	 0.158875487968082 
566	 0.158980025086298 
567	 0.159097103230011 
568	 0.159105868526497 
569	 0.159107426648611 
570	 0.159041609353273 
571	 0.159001794695448 
572	 0.159198124534687 
573	 0.159150901070681 
574	 0.159129608996832 
575	 0.159327820516932 
576	 0.159387437745596 
577	 0.159447246322094 
578	 0.159527756433479 
579	 0.159605378705922 
580	 0.159728369638591 
581	 0.159785429965097 
582	 0.159778447908259 
583	 0.15987277773511 
584	 0.159965616568306 
585	 0.160088920033664 
586	 0.160278287813379 
587	 0.160468917060385 
588	 0.160606774922137 
589	 0.160717768424955 
590	 0.160878912131102 
591	 0.16102403903824 
592	 0.161165502314055 
593	 0.16132766911875 
594	 0.161528830290085 
595	 0.161762318182812 
596	 0.162001182513946 
597	 0.162227030454983 
598	 0.162498738358332 
599	 0.162753343612926 
600	 0.163021188426424 
601	 0.163412908120476 
602	 0.163554118358363 
603	 0.163657652158701 
604	 0.163914076433503 
605	 0.164142539922308 
606	 0.1643027532671 
607	 0.164391018455634 
608	 0.164442760946256 
609	 0.164571808266789 
610	 0.164719584736094 
611	 0.164835826491515 
612	 0.164908588172234 
613	 0.165034302738173 
614	 0.165166065912339 
615	 0.165236406839827 
616	 0.165255976826203 
617	 0.165302824846109 
618	 0.165412937688698 
619	 0.165584470982914 
620	 0.165789511829282 
621	 0.166012190149153 
622	 0.166237806240413 
623	 0.166438491677115 
624	 0.166762095665124 
625	 0.167111917505314 
626	 0.167368600018568 
627	 0.167810099071233 
628	 0.168208463294389 
629	 0.168521882197722 
630	 0.168900248750303 
631	 0.169242611912248 
632	 0.169533302907223 
633	 0.169794121097058 
634	 0.170135088529974 
635	 0.170168371808042 
636	 0.170039569273041 
637	 0.170076221003749 
638	 0.169971305099642 
639	 0.169773552849034 
640	 0.169516091097618 
641	 0.169183522261152 
642	 0.168780085970831 
643	 0.168406051550177 
644	 0.168094801007269 
645	 0.167588888219006 
646	 0.167198529028228 
647	 0.166934839350799 
648	 0.166630927435978 
649	 0.16636539315599 
650	 0.16622701139387 
651	 0.166230262965211 
652	 0.166267062968063 
653	 0.166340328234405 
654	 0.166460365236538 
655	 0.166608819396747 
656	 0.166609568744382 
657	 0.166500848105493 
658	 0.16636745733352 
659	 0.166275283499347 
660	 0.166036625754534 
661	 0.165685634200054 
662	 0.165303139127639 
663	 0.164975426666204 
664	 0.164773680165854 
665	 0.164513088346229 
666	 0.164044038702093 
667	 0.163883731217222 
668	 0.163663410325282 
669	 0.16340274559618 
670	 0.163473009950665 
671	 0.163437087345683 
672	 0.163478390129357 
673	 0.163704705360945 
674	 0.163767364339046 
675	 0.164049392686522 
676	 0.16448149885481 
677	 0.164860816330431 
678	 0.165341151373988 
679	 0.165862768972933 
680	 0.166459345613527 
681	 0.16726991631328 
682	 0.168349692721965 
683	 0.169730982584486 
684	 0.171393818820891 
685	 0.173208918075489 
686	 0.175234048436812 
687	 0.17770453068228 
688	 0.180623118199363 
689	 0.183523929171073 
690	 0.186482703656098 
691	 0.189722709275002 
692	 0.193285298444183 
693	 0.196889384866181 
694	 0.200710655303786 
695	 0.204781786852602 
696	 0.208627790172458 
697	 0.212333248524855 
698	 0.216018834799665 
699	 0.219762841438337 
700	 0.223384963722043 
701	 0.226899837427018 
702	 0.230303020626731 
703	 0.233544070665458 
704	 0.236693063682077 
705	 0.239697171950466 
706	 0.242561479996973 
707	 0.245430627936892 
708	 0.248200312981156 
709	 0.250823718567897 
710	 0.25328744873385 
711	 0.255726927772679 
712	 0.258227131315504 
713	 0.260686732299786 
714	 0.262820369655512 
715	 0.265136302866379 
716	 0.267505436511782 
717	 0.269832298775889 
718	 0.2723599097477 
719	 0.274624339503635 
720	 0.276532662359479 
721	 0.278279834025609 
722	 0.279853940707503 
723	 0.281604747259769 
724	 0.28362830293023 
725	 0.285497821916263 
726	 0.287092564258091 
727	 0.288595369518284 
728	 0.290193052952968 
729	 0.291785241452707 
730	 0.293218346087179 
731	 0.294559799917368 
732	 0.29592527668229 
733	 0.297090641545224 
734	 0.298256748911541 
735	 0.299435503920748 
736	 0.300441552294069 
737	 0.301586764823792 
738	 0.302712229336927 
739	 0.303718598534838 
740	 0.304762379733567 
741	 0.305698051295732 
742	 0.306559747976692 
743	 0.307427050583197 
744	 0.308328928807621 
745	 0.309178946299305 
746	 0.309979915753034 
747	 0.310800202119411 
748	 0.311611937893004 
749	 0.312379307880085 
750	 0.313094981550446 
751	 0.313797085864785 
752	 0.314522536244627 
753	 0.315222514618193 
754	 0.3158643751949 
755	 0.316571717168985 
756	 0.317174334114841 
757	 0.317718126570702 
758	 0.318369443864133 
759	 0.318984473244814 
760	 0.319908804928445 
761	 0.321183983962814 
762	 0.321700575070669 
763	 0.322327866392721 
764	 0.322877040741931 
765	 0.323163653556037 
766	 0.323541082468507 
767	 0.323863094924367 
768	 0.324286651017934 
769	 0.324935832869668 
770	 0.325380881564298 
771	 0.325972315051378 
772	 0.326651561730907 
773	 0.327045599786854 
774	 0.327665214707904 
775	 0.328250134299713 
776	 0.328674503147202 
777	 0.329240394602543 
778	 0.329840668968401 
779	 0.330431383501448 
780	 0.33098308724197 
781	 0.331489757164213 
782	 0.331953551675465 
783	 0.332469906634446 
784	 0.333135349923017 
785	 0.333714922002148 
786	 0.334189707260769 
787	 0.334699326882613 
788	 0.335493906798035 
789	 0.336169433652037 
790	 0.336689168075038 
791	 0.337137046336071 
792	 0.337677383885202 
793	 0.338336222771086 
794	 0.338946815114 
795	 0.339385298695047 
796	 0.339972738317444 
797	 0.340556776978737 
798	 0.341135135328117 
799	 0.341768455058326 
800	 0.342245327656287 
801	 0.342761293868234 
802	 0.343361020692862 
803	 0.343887593869901 
804	 0.3444703020998 
805	 0.345033758528302 
806	 0.345585419244845 
807	 0.346406857520621 
808	 0.346927559251982 
809	 0.347351404881278 
810	 0.347998470403391 
811	 0.348594987858048 
812	 0.349275822512528 
813	 0.349974489782355 
814	 0.350534332046208 
815	 0.351109305682224 
816	 0.351787747492985 
817	 0.352496955488541 
818	 0.353025620003238 
819	 0.35349507261386 
820	 0.35391344366373 
821	 0.354326231338979 
822	 0.35486464863785 
823	 0.355441446999806 
824	 0.355999433164232 
825	 0.356506087272157 
826	 0.357032932207052 
827	 0.357545526923331 
828	 0.358004762755351 
829	 0.358394469425494 
830	 0.358916616152829 
831	 0.359429760501696 
832	 0.35990742470206 
833	 0.360416056306608 
834	 0.360957028646616 
835	 0.361280112702872 
836	 0.361554534179379 
837	 0.362403249083151 
838	 0.362873553203147 
839	 0.36322693911034 
840	 0.363781912818003 
841	 0.364497843508179 
842	 0.364988923346471 
843	 0.365371914870349 
844	 0.365832234552721 
845	 0.366220168170392 
846	 0.366688145030164 
847	 0.367157561319842 
848	 0.367511551602939 
849	 0.368013585689253 
850	 0.368506412911167 
851	 0.368967953312315 
852	 0.369491224537265 
853	 0.370092895745262 
854	 0.370629722654307 
855	 0.371084521141905 
856	 0.371591168539256 
857	 0.372157482104499 
858	 0.372587994262621 
859	 0.37289942084336 
860	 0.373454177501189 
861	 0.374092284896144 
862	 0.374521646993258 
863	 0.374684999317022 
864	 0.375185970835735 
865	 0.375774274043029 
866	 0.376349093114678 
867	 0.376859340133277 
868	 0.377300505996576 
869	 0.3776684071729 
870	 0.37815976715743 
871	 0.378895791561828 
872	 0.379123566193545 
873	 0.379521797717854 
874	 0.380045987743216 
875	 0.380253689298694 
876	 0.381255500915486 
877	 0.381839729886914 
878	 0.381835800102448 
879	 0.382267401894753 
880	 0.382792913765336 
881	 0.383248910888575 
882	 0.383644703332765 
883	 0.384193449534954 
884	 0.384953821443068 
885	 0.385458355524519 
886	 0.385578508281014 
887	 0.385969674699471 
888	 0.386451759555466 
889	 0.387019739644292 
890	 0.387601452671236 
891	 0.38785211410676 
892	 0.388642809122374 
893	 0.389340937347439 
894	 0.389327383198564 
895	 0.389900492885298 
896	 0.390531808280344 
897	 0.391138576795577 
898	 0.391787945126665 
899	 0.392351435406728 
900	 0.392773919426596 
901	 0.393097360804626 
902	 0.393437695804112 
903	 0.393997822790972 
904	 0.394216460077415 
905	 0.394419613276726 
906	 0.395274095553606 
907	 0.395672368842546 
908	 0.396293840161335 
909	 0.396987795829333 
910	 0.39696167770711 
911	 0.397130867757433 
912	 0.397516909866337 
913	 0.397981951241296 
914	 0.398368323728448 
915	 0.398916372716459 
916	 0.399516810571899 
917	 0.399936138148746 
918	 0.399962188612123 
919	 0.400548576365452 
920	 0.400769477880844 
921	 0.400725980242278 
922	 0.401963680671299 
923	 0.402025745093137 
924	 0.402085661608014 
925	 0.402764839763341 
926	 0.402838659948791 
927	 0.402921644258588 
928	 0.402940719514261 
929	 0.40312874659932 
930	 0.404506524090435 
931	 0.405548649605824 
932	 0.405681131673416 
933	 0.405298272492485 
934	 0.406175023561407 
935	 0.406045599779296 
936	 0.406511444686553 
937	 0.40803498310268 
938	 0.407175867238326 
939	 0.407732972819941 
940	 0.408208212386421 
941	 0.407402212312677 
942	 0.406870392508605 
943	 0.407638615892368 
944	 0.408019912858244 
945	 0.407241662533275 
946	 0.408072404048223 
947	 0.407580276985098 
948	 0.407633241454095 
949	 0.409068063478276 
950	 0.40810755206842 
951	 0.407795855023632 
952	 0.408292088833486 
953	 0.408839898616361 
954	 0.408447115477208 
955	 0.408500572285627 
956	 0.408885922328775 
957	 0.409179303749166 
958	 0.409179061889269 
959	 0.408316060493665 
960	 0.408566687943316 
961	 0.410111009328501 
962	 0.409120760211008 
963	 0.408814693879781 
964	 0.409185069500381 
965	 0.409782714977306 
966	 0.410651570052282 
967	 0.410330143843311 
968	 0.410153889835051 
969	 0.410774462898379 
970	 0.410879342996609 
971	 0.410231238536869 
972	 0.410223233968969 
973	 0.411125654806937 
974	 0.411235992275777 
975	 0.411348315417375 
976	 0.411825512505389 
977	 0.412238360622736 
978	 0.411555877966961 
979	 0.41268335672025 
980	 0.413226822143084 
981	 0.412518715651406 
982	 0.412537625754922 
983	 0.412670415642824 
984	 0.413026571002402 
985	 0.413578235291615 
986	 0.414172672546174 
987	 0.41520840120126 
988	 0.416144593589013 
989	 0.416603809877946 
990	 0.416677006575101 
991	 0.417858370027913 
992	 0.418151200122022 
993	 0.417472132753359 
994	 0.417292013837987 
995	 0.419280776235087 
996	 0.419395308824725 
997	 0.418542467478151 
998	 0.419308263198963 
999	 0.41945630913684 
1000	 0.418084622663059 
1001	 0.422414459894793 
1002	 0.422790760752277 
1003	 0.4231895119935 
1004	 0.42367918409833 
1005	 0.424101022385892 
1006	 0.42447738954152 
1007	 0.424878880945831 
1008	 0.425246107576617 
1009	 0.425704709318893 
1010	 0.42622447644812 
1011	 0.426718920924727 
1012	 0.427258624875772 
1013	 0.427726615637622 
1014	 0.428050619137533 
1015	 0.428309116094098 
1016	 0.428650257485388 
1017	 0.429027442769601 
1018	 0.429401573406676 
1019	 0.429893922949999 
1020	 0.430244415367397 
1021	 0.430443931204662 
1022	 0.430791678518148 
1023	 0.431112087994644 
1024	 0.431585951006836 
1025	 0.432144427926314 
1026	 0.432659065480376 
1027	 0.433156521828738 
1028	 0.43343804504746 
1029	 0.43372051567117 
1030	 0.434080933118428 
1031	 0.434406806814286 
1032	 0.434762771991471 
1033	 0.435152425864496 
1034	 0.435601404095259 
1035	 0.436019246548624 
1036	 0.436465478795829 
1037	 0.436916096105765 
1038	 0.437438979826903 
1039	 0.437702320558703 
1040	 0.437958478614173 
1041	 0.438218305356532 
1042	 0.438489250123216 
1043	 0.438782075625285 
1044	 0.439198538568095 
1045	 0.439647667394062 
1046	 0.439963084805223 
1047	 0.440265947385941 
1048	 0.440500673565082 
1049	 0.440692922002455 
1050	 0.440961105798386 
1051	 0.441265144344169 
1052	 0.441573137486806 
1053	 0.441839895831105 
1054	 0.442123071574621 
1055	 0.44236964488121 
1056	 0.442576202535049 
1057	 0.44275794254199 
1058	 0.443009375514112 
1059	 0.443325472939646 
1060	 0.443682418642275 
1061	 0.444138865070148 
1062	 0.444518401798792 
1063	 0.444786974067503 
1064	 0.444943500194032 
1065	 0.44514960429714 
1066	 0.44533078280392 
1067	 0.445596663825712 
1068	 0.445888558832892 
1069	 0.446247195236949 
1070	 0.446529820212902 
1071	 0.446684214537137 
1072	 0.446825983758807 
1073	 0.447036453018732 
1074	 0.447303999207078 
1075	 0.44767191665059 
1076	 0.448005252095465 
1077	 0.448205203036634 
1078	 0.448394826600109 
1079	 0.448553640352843 
1080	 0.448693796525798 
1081	 0.448892051586065 
1082	 0.449147816102804 
1083	 0.44935904110888 
1084	 0.449503400433438 
1085	 0.449793299374071 
1086	 0.450147274197147 
1087	 0.450496824088804 
1088	 0.45088352382039 
1089	 0.451160503973669 
1090	 0.451297509217595 
1091	 0.451400951953098 
1092	 0.45171191378034 
1093	 0.452026931743253 
1094	 0.4522388275888 
1095	 0.452603937557145 
1096	 0.452862346020981 
1097	 0.452934664684327 
1098	 0.45312927082048 
1099	 0.453381297477385 
1100	 0.453677978760267 
1101	 0.453814846478027 
1102	 0.454004259840925 
1103	 0.454365550418872 
1104	 0.454552784685511 
1105	 0.454754824277832 
1106	 0.455088627976897 
1107	 0.455347688056619 
1108	 0.455554287398923 
1109	 0.455878055104223 
1110	 0.456255255038516 
1111	 0.45659997995589 
1112	 0.45698010909012 
1113	 0.457290002828605 
1114	 0.457523084627333 
1115	 0.457841352095675 
1116	 0.458132486896194 
1117	 0.458451584037997 
1118	 0.458977108030421 
1119	 0.459630988452451 
1120	 0.460413158919218 
1121	 0.461139018803874 
1122	 0.461605271294574 
1123	 0.46194493796393 
1124	 0.462168652867848 
1125	 0.462295627862294 
1126	 0.462360691741796 
1127	 0.462508501088791 
1128	 0.462300532653184 
1129	 0.461697153958133 
1130	 0.461374343989157 
1131	 0.461034378767407 
1132	 0.460764511026982 
1133	 0.460638562456708 
1134	 0.460505708323981 
1135	 0.460162099210124 
1136	 0.459649785409744 
1137	 0.45917389701944 
1138	 0.458650336174533 
1139	 0.4582880423611 
1140	 0.457959612567937 
1141	 0.457507532799835 
1142	 0.457166417343345 
1143	 0.456824168662019 
1144	 0.456516476197088 
1145	 0.456069201104838 
1146	 0.455606417765143 
1147	 0.455098773531524 
1148	 0.454465797730981 
1149	 0.453924819247565 
1150	 0.453392886418123 
1151	 0.452969032128789 
1152	 0.452674356507638 
1153	 0.452298452652755 
1154	 0.451875653367952 
1155	 0.451500197649745 
1156	 0.451108558401807 
1157	 0.450746627565151 
1158	 0.450490910982616 
1159	 0.450452976251122 
1160	 0.450397151332192 
1161	 0.450428117558519 
1162	 0.45036121305973 
1163	 0.450304427446002 
1164	 0.450233320324329 
1165	 0.450088353807565 
1166	 0.450005641378567 
1167	 0.449906241998645 
1168	 0.449901994031087 
1169	 0.449925128062524 
1170	 0.45002006385059 
1171	 0.450213985667684 
1172	 0.450466594314502 
1173	 0.450580246430326 
1174	 0.450618566980912 
1175	 0.450681565371226 
1176	 0.450684249518842 
1177	 0.450756656016944 
1178	 0.450896655223758 
1179	 0.451024199021682 
1180	 0.451163469026272 
1181	 0.451294221327051 
1182	 0.451449469375294 
1183	 0.451581534574453 
1184	 0.45170864962152 
1185	 0.451801942582445 
1186	 0.451862208518509 
1187	 0.451946547361937 
1188	 0.452055286122037 
1189	 0.452068001378478 
1190	 0.452129656106288 
1191	 0.452163607309371 
1192	 0.452199356839671 
1193	 0.452243641800849 
1194	 0.452319384003027 
1195	 0.452445588204786 
1196	 0.452541972063871 
1197	 0.452612915309769 
1198	 0.452760832892779 
1199	 0.452884654982692 
1200	 0.453135773172396 
1201	 0.453578416755641 
1202	 0.453845728122525 
1203	 0.454143181554251 
1204	 0.454356222696693 
1205	 0.454350429521563 
1206	 0.454509299862558 
1207	 0.454727406840304 
1208	 0.45494916331055 
1209	 0.455289155898059 
1210	 0.455515767736631 
1211	 0.455743242852764 
1212	 0.45597593604549 
1213	 0.456199079287604 
1214	 0.456391906709507 
1215	 0.456655669100323 
1216	 0.456934672550362 
1217	 0.457232286881012 
1218	 0.457605528380907 
1219	 0.457912657066944 
1220	 0.458209431604358 
1221	 0.458476341825374 
1222	 0.458724074534157 
1223	 0.458944407238635 
1224	 0.459063774425435 
1225	 0.459316160534946 
1226	 0.459639186794023 
1227	 0.459916904325089 
1228	 0.460268393290336 
1229	 0.46057783473999 
1230	 0.460838138037448 
1231	 0.461069494470642 
1232	 0.461377324204662 
1233	 0.461750083866234 
1234	 0.462066792258581 
1235	 0.462402148297498 
1236	 0.462701238284694 
1237	 0.462932999498484 
1238	 0.463238998011447 
1239	 0.46361731010719 
1240	 0.463888321465499 
1241	 0.464116062866919 
1242	 0.464385540981693 
1243	 0.464616941459202 
1244	 0.46484728786922 
1245	 0.465135141767371 
1246	 0.46538416173282 
1247	 0.465525341519017 
1248	 0.465756305534262 
1249	 0.466071716049597 
1250	 0.466342280033228 
1251	 0.466645293229928 
1252	 0.466926682093083 
1253	 0.46716359300701 
1254	 0.467317693833205 
1255	 0.467590104427053 
1256	 0.467947477117457 
1257	 0.468147944238612 
1258	 0.468318118308403 
1259	 0.46851299826993 
1260	 0.468547611218803 
1261	 0.468750397677999 
1262	 0.46910267688663 
1263	 0.469412947125419 
1264	 0.469827098814962 
1265	 0.47008163760863 
1266	 0.470227593826927 
1267	 0.470436195929668 
1268	 0.470541910350368 
1269	 0.470702685907274 
1270	 0.470973041907149 
1271	 0.471185472460068 
1272	 0.471381750775235 
1273	 0.471540416863135 
1274	 0.471640007562966 
1275	 0.471663666646672 
1276	 0.47180652381154 
1277	 0.471946960721471 
1278	 0.47208410212872 
1279	 0.472326273166471 
1280	 0.472458974176453 
1281	 0.472512105000311 
1282	 0.472569585310363 
1283	 0.472611317631082 
1284	 0.4726508073695 
1285	 0.472656767525617 
1286	 0.472666495396339 
1287	 0.472657245191264 
1288	 0.472690156925413 
1289	 0.472749819382705 
1290	 0.472781236129561 
1291	 0.472877975628968 
1292	 0.472890561831936 
1293	 0.472764074734542 
1294	 0.472736771915185 
1295	 0.4727411445206 
1296	 0.472734257180942 
1297	 0.472728063700312 
1298	 0.472795893101805 
1299	 0.472766629953643 
1300	 0.47266828723538 
1301	 0.472589360671069 
1302	 0.472508346756965 
1303	 0.472392524162428 
1304	 0.472218745037363 
1305	 0.472106886646831 
1306	 0.471987894223101 
1307	 0.471902007312466 
1308	 0.471932141426311 
1309	 0.471820922554935 
1310	 0.471643687075593 
1311	 0.471466157759091 
1312	 0.471195225771941 
1313	 0.470960835661016 
1314	 0.470800474195661 
1315	 0.47054265040216 
1316	 0.470211580223405 
1317	 0.469891534915107 
1318	 0.469547339606435 
1319	 0.469158588309185 
1320	 0.468760770003308 
1321	 0.468299545356561 
1322	 0.467882377770214 
1323	 0.467391860466044 
1324	 0.46699764566728 
1325	 0.466707123614468 
1326	 0.466290610872312 
1327	 0.46581528081934 
1328	 0.465385889386741 
1329	 0.46494825835687 
1330	 0.464450006238154 
1331	 0.46396999496923 
1332	 0.463448287779584 
1333	 0.462839829872668 
1334	 0.462239273653941 
1335	 0.461604480326823 
1336	 0.461049193603482 
1337	 0.46047194412618 
1338	 0.459937073630199 
1339	 0.459508509623735 
1340	 0.459016461620123 
1341	 0.458378716745671 
1342	 0.457840198931443 
1343	 0.457222704013715 
1344	 0.456729784528842 
1345	 0.456415478666977 
1346	 0.456031986491484 
1347	 0.455740884365602 
1348	 0.455461648279113 
1349	 0.455465266703577 
1350	 0.45600723859569 
1351	 0.456023519055709 
1352	 0.456159529700931 
1353	 0.456403858964959 
1354	 0.455539255172726 
1355	 0.455502090482844 
1356	 0.458190803433205 
1357	 0.459795668880629 
1358	 0.458761382169101 
1359	 0.460923026753828 
1360	 0.469206762102719 
1361	 0.471934464035092 
1362	 0.462064941599099 
1363	 0.460916810120732 
1364	 0.451120764886431 
1365	 0.445490717313898 
1366	 0.46364266246017 
1367	 0.46608316976888 
1368	 0.454596871298556 
1369	 0.450428442732041 
1370	 0.449287260259256 
1371	 0.448675030393155 
1372	 0.448474681422948 
1373	 0.448818173343102 
1374	 0.453868868516757 
1375	 0.449910462270102 
1376	 0.444191867228332 
1377	 0.446565503327249 
1378	 0.446307858186511 
1379	 0.446140005156223 
1380	 0.443622226537715 
1381	 0.441562042658803 
1382	 0.438411610226515 
1383	 0.432828393371264 
1384	 0.427707502254051 
1385	 0.423406828572785 
1386	 0.420358661623004 
1387	 0.417828488953071 
1388	 0.414485023775609 
1389	 0.412382381435947 
1390	 0.409294558542517 
1391	 0.405172038495267 
1392	 0.401298465611082 
1393	 0.399527662807572 
1394	 0.39409851098518 
1395	 0.384029033953882 
1396	 0.379222038620016 
1397	 0.375549905954112 
1398	 0.371743593528256 
1399	 0.370577349184897 
1400	 0.36870583251148 
1401	 0.366768159876899 
1402	 0.363448450107441 
1403	 0.360008641575879 
1404	 0.356710201191988 
1405	 0.353129463109925 
1406	 0.348695302082026 
1407	 0.344994304096757 
1408	 0.342876478157588 
1409	 0.340668410724258 
1410	 0.33838137736961 
1411	 0.33575421938968 
1412	 0.333367647698151 
1413	 0.331157171212555 
1414	 0.328456788691101 
1415	 0.326803938098317 
1416	 0.325834736892496 
1417	 0.324638209011797 
1418	 0.323785858015136 
1419	 0.322322054666981 
1420	 0.320585180555917 
1421	 0.319253026164724 
1422	 0.317824432884224 
1423	 0.316501393168345 
1424	 0.315293642721205 
1425	 0.314287559453615 
1426	 0.313184302519888 
1427	 0.312278870851032 
1428	 0.31157736881428 
1429	 0.310972271804267 
1430	 0.310399079500971 
1431	 0.309821680417688 
1432	 0.309358356133086 
1433	 0.308921326808241 
1434	 0.308457952921997 
1435	 0.308033612011151 
1436	 0.307760845442293 
1437	 0.307405230962819 
1438	 0.3069448068566 
1439	 0.306547864112899 
1440	 0.306064199883375 
1441	 0.305801874266231 
1442	 0.305730728534265 
1443	 0.305651970113822 
1444	 0.305434092616503 
1445	 0.305305532373843 
1446	 0.305079235396446 
1447	 0.304895935726576 
1448	 0.304710722315379 
1449	 0.304582320902598 
1450	 0.304506571115694 
1451	 0.304390683757119 
1452	 0.304373686011538 
1453	 0.30446529734383 
1454	 0.304561618716211 
1455	 0.304706457353921 
1456	 0.304736796171043 
1457	 0.304739943449997 
1458	 0.304798539082594 
1459	 0.304749546946757 
1460	 0.304858958025259 
1461	 0.305167430786815 
1462	 0.30537534850098 
1463	 0.30553626417652 
1464	 0.305829453875094 
1465	 0.306077826830507 
1466	 0.306568420711717 
1467	 0.307314171084949 
1468	 0.308048840973998 
1469	 0.308968162605623 
1470	 0.309790102679191 
1471	 0.310540802491896 
1472	 0.311309563560649 
1473	 0.312090691455986 
1474	 0.312714943305474 
1475	 0.313131513596324 
1476	 0.31371661026114 
1477	 0.314187587496578 
1478	 0.314841074511276 
1479	 0.315769080146505 
1480	 0.316529724369091 
1481	 0.317186183748409 
1482	 0.317924514338495 
1483	 0.318606359740276 
1484	 0.319365274990574 
1485	 0.32024409050714 
1486	 0.321068049468808 
1487	 0.321875054019083 
1488	 0.322641477816452 
1489	 0.323480852897723 
1490	 0.324242664267071 
1491	 0.324938714957098 
1492	 0.325643659444986 
1493	 0.326244572600228 
1494	 0.326888044324681 
1495	 0.327599841171809 
1496	 0.328385171424234 
1497	 0.329145043174839 
1498	 0.329935559988138 
1499	 0.330760465309328 
1500	 0.331604175838391 
1501	 0.332497898465973 
1502	 0.333487385747772 
1503	 0.334382688288326 
1504	 0.335258382494446 
1505	 0.336160321867311 
1506	 0.33699788147841 
1507	 0.337945073551498 
1508	 0.339018160675303 
1509	 0.339929765938589 
1510	 0.340816504225053 
1511	 0.341678078784839 
1512	 0.34241614926554 
1513	 0.343270063964265 
1514	 0.344187105088109 
1515	 0.345097414575003 
1516	 0.346083468016779 
1517	 0.346974047093719 
1518	 0.347852375428804 
1519	 0.348681527291271 
1520	 0.349374128481014 
1521	 0.35021662214608 
1522	 0.351135774334026 
1523	 0.352010176939417 
1524	 0.352990852747498 
1525	 0.353850060226937 
1526	 0.354598965961929 
1527	 0.355382571248465 
1528	 0.356096649308908 
1529	 0.356906208771038 
1530	 0.357801095312073 
1531	 0.358635988158248 
1532	 0.359499467649233 
1533	 0.360346843878954 
1534	 0.361145765312355 
1535	 0.361952228570843 
1536	 0.36276370505967 
1537	 0.363591695996268 
1538	 0.364448625691493 
1539	 0.36524594578643 
1540	 0.366075423711577 
1541	 0.366823327738332 
1542	 0.367447948729207 
1543	 0.368110231620227 
1544	 0.368720597915211 
1545	 0.36938838043672 
1546	 0.370081874308741 
1547	 0.370805307613476 
1548	 0.371630486313595 
1549	 0.372369554642831 
1550	 0.373051080211574 
1551	 0.37377757640246 
1552	 0.374485404681993 
1553	 0.375192266117671 
1554	 0.376005494812859 
1555	 0.376712550948706 
1556	 0.377322765600805 
1557	 0.377933904303355 
1558	 0.378437971899714 
1559	 0.379017504174077 
1560	 0.379650726034883 
1561	 0.380274220572484 
1562	 0.381013490692114 
1563	 0.381630515018497 
1564	 0.382172859977405 
1565	 0.382641065859306 
1566	 0.383159458700379 
1567	 0.383808003534515 
1568	 0.384420941259546 
1569	 0.385173406847395 
1570	 0.385748483455053 
1571	 0.38620021025607 
1572	 0.386779879210177 
1573	 0.387362832312868 
1574	 0.387948877465913 
1575	 0.388584246030262 
1576	 0.389180256924465 
1577	 0.389738232858356 
1578	 0.390299687585394 
1579	 0.390855750032783 
1580	 0.391433785857077 
1581	 0.392020549922478 
1582	 0.392533980047955 
1583	 0.393014830258454 
1584	 0.393579912837133 
1585	 0.394109489899152 
1586	 0.394686998642416 
1587	 0.395392059289837 
1588	 0.39597320216855 
1589	 0.396481456335006 
1590	 0.397024397380658 
1591	 0.39756802279763 
1592	 0.398102274531155 
1593	 0.398623260929985 
1594	 0.399155065382717 
1595	 0.399665564927871 
1596	 0.400255961690782 
1597	 0.400930134284294 
1598	 0.40146869503207 
1599	 0.40200761840522 
1600	 0.402505976163834 
1601	 0.402854707282491 
1602	 0.403377555363832 
1603	 0.403985699662139 
1604	 0.40456909062281 
1605	 0.405246628120442 
1606	 0.405751881433825 
1607	 0.406122784879231 
1608	 0.406683683287595 
1609	 0.407264816307956 
1610	 0.407771501762339 
1611	 0.408388370138405 
1612	 0.408878103205491 
1613	 0.409161018027013 
1614	 0.409643897924854 
1615	 0.410298099787204 
1616	 0.410707008551755 
1617	 0.411001080811919 
1618	 0.411428344437104 
1619	 0.411779914058045 
1620	 0.412194936970671 
1621	 0.412776629200075 
1622	 0.413201717748394 
1623	 0.41351051686493 
1624	 0.413882338767047 
1625	 0.414256665604027 
1626	 0.414669676084736 
1627	 0.415092891571127 
1628	 0.415519219704505 
1629	 0.415986697759372 
1630	 0.416428810445111 
1631	 0.416899465369951 
1632	 0.417255845935604 
1633	 0.41761296616876 
1634	 0.417822006129707 
1635	 0.417818184210893 
1636	 0.418018438116624 
1637	 0.418203814852964 
1638	 0.418491120090482 
1639	 0.418939831500053 
1640	 0.419275039035409 
1641	 0.419583992506023 
1642	 0.419888369726 
1643	 0.420181968033385 
1644	 0.420463428332125 
1645	 0.420736543024292 
1646	 0.420995520715942 
1647	 0.421246996665302 
1648	 0.421450939721108 
1649	 0.42162796020979 
1650	 0.421801122699081 
1651	 0.421930663906701 
1652	 0.422085328406615 
1653	 0.422247880275079 
1654	 0.422402592412699 
1655	 0.422537495245037 
1656	 0.422724390803776 
1657	 0.423004120047088 
1658	 0.422849383480237 
1659	 0.422895749819985 
1660	 0.422825063049345 
1661	 0.422699045539865 
1662	 0.42295652282738 
1663	 0.423125895790933 
1664	 0.423197285341549 
1665	 0.423280181370994 
1666	 0.423248423230393 
1667	 0.423121955597101 
1668	 0.422956831287562 
1669	 0.422824767271999 
1670	 0.422700949737293 
1671	 0.4225380297715 
1672	 0.422465541752728 
1673	 0.422510254482794 
1674	 0.422526708585369 
1675	 0.422484813888186 
1676	 0.422375124269007 
1677	 0.422190191875385 
1678	 0.421915976419419 
1679	 0.421684729309891 
1680	 0.421454135438762 
1681	 0.421192037997421 
1682	 0.421042632314947 
1683	 0.420885374673961 
1684	 0.420671035495983 
1685	 0.420488149789023 
1686	 0.420397588671584 
1687	 0.420289835780748 
1688	 0.41996051611006 
1689	 0.419555511283786 
1690	 0.419052905389843 
1691	 0.418774385626876 
1692	 0.418939679063626 
1693	 0.418802216177836 
1694	 0.41861052131035 
1695	 0.418290281221741 
1696	 0.41760089047499 
1697	 0.417222826906229 
1698	 0.416957704091122 
1699	 0.416666089231989 
1700	 0.416587509799523 
1701	 0.416413451068379 
1702	 0.416165009308112 
1703	 0.415863984604783 
1704	 0.41551208727145 
1705	 0.415125202683338 
1706	 0.414699078352185 
1707	 0.414265648969317 
1708	 0.413745776061255 
1709	 0.413349949193443 
1710	 0.412955131168256 
1711	 0.412607493338457 
1712	 0.412468853228581 
1713	 0.412145802846572 
1714	 0.411723054177978 
1715	 0.411320929204888 
1716	 0.410824072511357 
1717	 0.410398827435894 
1718	 0.40999717321711 
1719	 0.409620862020943 
1720	 0.409281773684698 
1721	 0.408898882311053 
1722	 0.408515650203917 
1723	 0.408185151480841 
1724	 0.407863543106015 
1725	 0.407610535623861 
1726	 0.407461703523019 
1727	 0.407155136523326 
1728	 0.40670015997968 
1729	 0.406436891282384 
1730	 0.40617763123067 
1731	 0.406033073052098 
1732	 0.406074100643334 
1733	 0.405938911753101 
1734	 0.405763737325576 
1735	 0.405649344707254 
1736	 0.40546480135908 
1737	 0.405178499694212 
1738	 0.405039736206462 
1739	 0.404770619723862 
1740	 0.404386869576517 
1741	 0.404219284393178 
1742	 0.403870717756239 
1743	 0.403818792610561 
1744	 0.404038542447961 
1745	 0.403705618547807 
1746	 0.403517589654424 
1747	 0.403251508538162 
1748	 0.402429467794726 
1749	 0.401826712185932 
1750	 0.401274222150409 
1751	 0.400629608105628 
1752	 0.400179162661469 
1753	 0.399853147686547 
1754	 0.399581209182921 
1755	 0.398990625773758 
1756	 0.398324389331778 
1757	 0.398083504920787 
1758	 0.39772330183996 
1759	 0.397618330785666 
1760	 0.397410538500389 
1761	 0.396967669561294 
1762	 0.396554963248677 
1763	 0.396238214437559 
1764	 0.395916725266656 
1765	 0.395414591578203 
1766	 0.395146295862051 
1767	 0.39504600889352 
1768	 0.394939054135043 
1769	 0.395017110665577 
1770	 0.395025318497766 
1771	 0.394985038569125 
1772	 0.394804084133672 
1773	 0.394579456413807 
1774	 0.394098383716606 
1775	 0.393996685180616 
1776	 0.394006572138143 
1777	 0.393688149685372 
1778	 0.393552896496963 
1779	 0.393082824077693 
1780	 0.392834959985008 
1781	 0.393151906467938 
1782	 0.393266700844631 
1783	 0.393677791163265 
1784	 0.394071793650359 
1785	 0.393882333270078 
1786	 0.393746652733065 
1787	 0.393878729183381 
1788	 0.393956635841738 
1789	 0.39403209478103 
1790	 0.394271476356664 
1791	 0.394391267612809 
1792	 0.394397738604326 
1793	 0.394564794932032 
1794	 0.394621038044826 
1795	 0.394660415086794 
1796	 0.394602532829279 
1797	 0.394572770324089 
1798	 0.395460287417616 
1799	 0.396509954184666 
1800	 0.398426283732378 
1801	 0.398047790831942 
1802	 0.399846004470454 
1803	 0.400118538887276 
1804	 0.399805570511108 
1805	 0.400308602655703 
1806	 0.400373926162278 
1807	 0.400581272341028 
1808	 0.401608032516913 
1809	 0.403101855175234 
1810	 0.404313085907221 
1811	 0.405221020510547 
1812	 0.405513978270678 
1813	 0.405423648033935 
1814	 0.406242924952742 
1815	 0.406869065116181 
1816	 0.406708188170068 
1817	 0.406676644504923 
1818	 0.407257188711454 
1819	 0.407691810070788 
1820	 0.406151659574168 
1821	 0.405727548584793 
1822	 0.408330271707214 
1823	 0.408025485922975 
1824	 0.401433733214628 
1825	 0.401172085805377 
1826	 0.405508760021218 
1827	 0.409124876680605 
1828	 0.415537568515469 
1829	 0.433193876644775 
1830	 0.445681891632322 
1831	 0.460740612094881 
1832	 0.466451822011962 
1833	 0.45291129903279 
1834	 0.446171840820665 
1835	 0.404952881588776 
1836	 0.373753817792665 
1837	 0.373885410153687 
1838	 0.372625396242772 
1839	 0.378441324916265 
1840	 0.393023541203769 
1841	 0.397280286789876 
1842	 0.402849956044714 
1843	 0.414323351595468 
1844	 0.431203684472553 
1845	 0.432060465548564 
1846	 0.450075377345146 
1847	 0.441659086322936 
1848	 0.416551517406576 
1849	 0.339296199611827 
1850	 0.3293969271255 
1851	 0.328763358656519 
1852	 0.340353892421954 
1853	 0.431520076417321 
1854	 0.455505405252821 
1855	 0.452584257899555 
1856	 0.439448765734238 
1857	 0.397519885594216 
1858	 0.351210410318121 
1859	 0.337116731066549 
1860	 0.3175630316004 
1861	 0.32928537505349 
1862	 0.384873319205208 
1863	 0.394212222018125 
1864	 0.397137649153214 
1865	 0.402283026838269 
1866	 0.378971410955711 
1867	 0.364623853652886 
1868	 0.3582016036599 
1869	 0.3763916736701 
1870	 0.382052903357433 
1871	 0.381660169647182 
1872	 0.377970199107243 
1873	 0.377793768701404 
1874	 0.373557909339271 
1875	 0.368150997121888 
1876	 0.356738490435574 
1877	 0.335795297771846 
1878	 0.34220534567154 
1879	 0.328903514448332 
1880	 0.320907674798404 
1881	 0.319392468651386 
1882	 0.32374063295994 
1883	 0.31972963405506 
1884	 0.319024690131485 
1885	 0.313971777184802 
1886	 0.30270003175422 
1887	 0.293369382202661 
1888	 0.287056763242636 
1889	 0.278862210295236 
1890	 0.273277261125046 
1891	 0.268523269820779 
1892	 0.266468064002442 
1893	 0.26320004503408 
1894	 0.26408333788703 
1895	 0.277820329425796 
1896	 0.279584805092239 
1897	 0.270874578352342 
1898	 0.278050995305305 
1899	 0.274367825226686 
1900	 0.248508712134535 
1901	 0.242906078118956 
1902	 0.257737499859142 
1903	 0.255379004254656 
1904	 0.244655097646582 
1905	 0.256753283738623 
1906	 0.297733066844576 
1907	 0.285147726339048 
1908	 0.258201809208391 
1909	 0.265257849370115 
1910	 0.2292950127948 
1911	 0.206310178310688 
1912	 0.204418161003257 
1913	 0.218115179761989 
1914	 0.214449237129414 
1915	 0.213786909483986 
1916	 0.20973524416039 
1917	 0.200559431619051 
1918	 0.19686536731293 
1919	 0.193172536211035 
1920	 0.191798063994191 
1921	 0.193490745363901 
1922	 0.191217798567975 
1923	 0.193215318718776 
1924	 0.198526632580306 
1925	 0.201828977590392 
1926	 0.209697467310157 
1927	 0.210306406015161 
1928	 0.207919698313161 
1929	 0.202476539026302 
1930	 0.198509948546019 
1931	 0.193760989692193 
1932	 0.195106086304632 
1933	 0.197061210637529 
1934	 0.197694454960784 
1935	 0.199408043859857 
1936	 0.199141696977118 
1937	 0.195817502659242 
1938	 0.196807723603285 
1939	 0.198896828909954 
1940	 0.200204012346809 
1941	 0.20375445656618 
1942	 0.206113635548468 
1943	 0.206551601852401 
1944	 0.207161560731807 
1945	 0.207270208414723 
1946	 0.206919954988618 
1947	 0.206964400461064 
1948	 0.206932589038384 
1949	 0.207119325060305 
1950	 0.207420946814154 
1951	 0.207861933616594 
1952	 0.208674991053487 
1953	 0.209230330484265 
1954	 0.209952067993652 
1955	 0.210730441131572 
1956	 0.210992775254662 
1957	 0.211021650362203 
1958	 0.211484858222913 
1959	 0.211631495110397 
1960	 0.212751880485289 
1961	 0.214605698515074 
1962	 0.215777213272989 
1963	 0.216878752426875 
1964	 0.217808001317007 
1965	 0.2187006433331 
1966	 0.219703817901761 
1967	 0.220476582456023 
1968	 0.221177139341612 
1969	 0.221831154740403 
1970	 0.222278329185807 
1971	 0.222598184768956 
1972	 0.222751025142276 
1973	 0.22336741627681 
1974	 0.224191937168204 
1975	 0.224900306364093 
1976	 0.225814081778372 
1977	 0.226663094291106 
1978	 0.22710603735844 
1979	 0.227699682318467 
1980	 0.228883440851626 
1981	 0.230420910581203 
1982	 0.231379139029561 
1983	 0.232128131512866 
1984	 0.232849739576719 
1985	 0.23379655159202 
1986	 0.233950274538006 
1987	 0.234720300316884 
1988	 0.236093457417274 
1989	 0.236679444736732 
1990	 0.237495835657545 
1991	 0.238482171841683 
1992	 0.239266835030039 
1993	 0.239979405938023 
1994	 0.240515996971905 
1995	 0.24110369333942 
1996	 0.241582297011833 
1997	 0.241805930551371 
1998	 0.242602034068349 
1999	 0.244079346718796 
2000	 0.244962182038435 
2001	 0.245685035667115 
2002	 0.246518910859666 
2003	 0.246971751078358 
2004	 0.24816856006631 
2005	 0.250426553084924 
2006	 0.251922849565534 
2007	 0.253212899935025 
2008	 0.253839464701726 
2009	 0.254200840614632 
2010	 0.253886926486788 
2011	 0.253301658667735 
2012	 0.253523836089176 
2013	 0.254587553197518 
2014	 0.25542966867471 
2015	 0.256672207216314 
2016	 0.257950809805156 
2017	 0.258134628820347 
2018	 0.258483130335461 
2019	 0.258889289784058 
2020	 0.25919908144214 
2021	 0.259357416498135 
2022	 0.259937387074941 
2023	 0.260349558056272 
2024	 0.260825185629909 
2025	 0.261149556518719 
2026	 0.261658130156862 
2027	 0.26278730589162 
2028	 0.263462271759544 
2029	 0.264308448986832 
2030	 0.265044538621328 
2031	 0.26447826914691 
2032	 0.264422664609348 
2033	 0.264410483883537 
2034	 0.264455835783295 
2035	 0.264047962414185 
2036	 0.264589461774526 
2037	 0.264938448180246 
2038	 0.264991693613819 
2039	 0.265341047666937 
2040	 0.265576138655007 
2041	 0.265761756104733 
2042	 0.265828782085369 
2043	 0.266404949169453 
2044	 0.267155123722962 
2045	 0.267503065245337 
2046	 0.267628590878708 
2047	 0.268042949509322 
2048	 0.268147460957236 
2049	 0.267799771333985 
2050	 0.268326442586492 
2051	 0.268657744376927 
2052	 0.268493560350337 
2053	 0.268716556460076 
2054	 0.268535190381935 
2055	 0.268428548097347 
2056	 0.268832517655466 
2057	 0.269027315055785 
2058	 0.269170344024984 
2059	 0.269609490650029 
2060	 0.270302048966362 
2061	 0.270506270497246 
2062	 0.270659302840346 
2063	 0.271390848645567 
2064	 0.271248419708588 
2065	 0.271257027037033 
2066	 0.272065804824548 
2067	 0.272183664157049 
2068	 0.272283568333271 
2069	 0.272561725398554 
2070	 0.272597880120113 
2071	 0.272814923799216 
2072	 0.273209074528881 
2073	 0.273861537591526 
2074	 0.274538980478637 
2075	 0.274800982712252 
2076	 0.274583862492246 
2077	 0.274289271039456 
2078	 0.274252984027958 
2079	 0.27449314836333 
2080	 0.275086919806645 
2081	 0.27574046288528 
2082	 0.275901079370159 
2083	 0.275973461740649 
2084	 0.276191039898205 
2085	 0.276475949549355 
2086	 0.276996707712807 
2087	 0.277359575884743 
2088	 0.2776274673853 
2089	 0.277970923101373 
2090	 0.278754650756609 
2091	 0.279538822546142 
2092	 0.280406427059313 
2093	 0.281122498617354 
2094	 0.281203297394728 
2095	 0.280922325120713 
2096	 0.280699325037442 
2097	 0.280983498016983 
2098	 0.281594822740611 
2099	 0.281951095932667 
2100	 0.282208695755977 
2101	 0.282284238212446 
2102	 0.282731057279935 
2103	 0.283115451214275 
2104	 0.284180763440608 
2105	 0.285273251076583 
2106	 0.28603271236959 
2107	 0.28627974990423 
2108	 0.286412231111661 
2109	 0.286862227306847 
2110	 0.287248603973021 
2111	 0.287978840996342 
2112	 0.288828151889718 
2113	 0.289228079061542 
2114	 0.289584958764858 
2115	 0.289943932312766 
2116	 0.290041825460501 
2117	 0.290221131871518 
2118	 0.290286785368146 
2119	 0.290629396462929 
2120	 0.291056584988794 
2121	 0.29164473752929 
2122	 0.292580359716829 
2123	 0.293490910760067 
2124	 0.29402581525593 
2125	 0.294352314664723 
2126	 0.294642695095614 
2127	 0.294647226481382 
2128	 0.295217987854637 
2129	 0.295922104096618 
2130	 0.295979135175294 
2131	 0.296414657955526 
2132	 0.297037330998583 
2133	 0.297503064487801 
2134	 0.297962822352858 
2135	 0.298607376912858 
2136	 0.299127999795416 
2137	 0.299216703410905 
2138	 0.299540344514834 
2139	 0.300221063022864 
2140	 0.300351387063542 
2141	 0.300757741392942 
2142	 0.301304278138524 
2143	 0.301521796377104 
2144	 0.30209123127134 
2145	 0.302298248515777 
2146	 0.302290238910125 
2147	 0.302605492150083 
2148	 0.302632018336544 
2149	 0.303024366470849 
2150	 0.303354056435739 
2151	 0.303401483045475 
2152	 0.303061826164565 
2153	 0.303137226154568 
2154	 0.303038455375883 
2155	 0.303458194568533 
2156	 0.304246150940077 
2157	 0.304304571490551 
2158	 0.30467584392003 
2159	 0.304859306991223 
2160	 0.305042341998011 
2161	 0.305609293449412 
2162	 0.306401241402467 
2163	 0.30693618323726 
2164	 0.306358800107028 
2165	 0.306213152735802 
2166	 0.306375914105748 
2167	 0.306007137201546 
2168	 0.306083165768525 
2169	 0.307024132165863 
2170	 0.307313686091403 
2171	 0.307171837880322 
2172	 0.307434176743926 
2173	 0.307829692420388 
2174	 0.308640397259211 
2175	 0.309527009024504 
2176	 0.309640134778291 
2177	 0.30972410419484 
2178	 0.309216868756479 
2179	 0.308316853834461 
2180	 0.308374511159774 
2181	 0.308575590491619 
2182	 0.30896985211152 
2183	 0.309763267780743 
2184	 0.310124709629306 
2185	 0.309845038130973 
2186	 0.30915736549119 
2187	 0.309156502078027 
2188	 0.309379199415422 
2189	 0.309412381758669 
2190	 0.309752609154091 
2191	 0.310378409365293 
2192	 0.310355328356112 
2193	 0.310375872924445 
2194	 0.310952328696993 
2195	 0.311267795006101 
2196	 0.311235154385716 
2197	 0.310657301584049 
2198	 0.310427664727319 
2199	 0.31059885631368 
2200	 0.311064058712223 
2201	 0.311807746056049 
2202	 0.311877504818988 
2203	 0.312439428316244 
2204	 0.312388691410599 
2205	 0.311462088088222 
2206	 0.311154236322982 
2207	 0.310730995777097 
2208	 0.310528956628508 
2209	 0.310504432695922 
2210	 0.310733704048135 
2211	 0.311333854750533 
2212	 0.311924720225186 
2213	 0.311475128274367 
2214	 0.311304049030855 
2215	 0.311746716543054 
2216	 0.311534937086336 
2217	 0.31191917888435 
2218	 0.313271000133939 
2219	 0.313397734917745 
2220	 0.313137685550519 
2221	 0.313011098067828 
2222	 0.312650775442177 
2223	 0.312395307900523 
2224	 0.311956727988757 
2225	 0.312153082486521 
2226	 0.312511134244503 
2227	 0.312657856462303 
2228	 0.313314040109351 
2229	 0.31322043248192 
2230	 0.312546229661514 
2231	 0.312081550747913 
2232	 0.31138216227635 
2233	 0.310473344280264 
2234	 0.309353070674623 
2235	 0.30904755556519 
2236	 0.308343527903927 
2237	 0.308063995433494 
2238	 0.308317273139522 
2239	 0.30748821656123 
2240	 0.306041330996901 
2241	 0.30483601290106 
2242	 0.303593007253648 
2243	 0.302672277518304 
2244	 0.302308854370234 
2245	 0.301686732121286 
2246	 0.300619674764263 
2247	 0.299898469003429 
2248	 0.299364908117035 
2249	 0.298938433538968 
2250	 0.298891041001618 
2251	 0.297864303958862 
2252	 0.29618683011732 
2253	 0.295071224289621 
2254	 0.293792722968705 
2255	 0.292608471735536 
2256	 0.29167836510193 
2257	 0.291124973561941 
2258	 0.290636650328782 
2259	 0.290241987411486 
2260	 0.290151608353718 
2261	 0.290198742983694 
2262	 0.289096055745654 
2263	 0.287496280082255 
2264	 0.285452780110549 
2265	 0.283404816580132 
2266	 0.282753815018049 
2267	 0.28226097492328 
2268	 0.282378544822002 
2269	 0.283435204196583 
2270	 0.28292646318412 
2271	 0.28251223085344 
2272	 0.283013885669438 
2273	 0.2822185822471 
2274	 0.281565725062926 
2275	 0.28124751052126 
2276	 0.280066985744086 
2277	 0.279004714498659 
2278	 0.279000784100698 
2279	 0.27880499441387 
2280	 0.277560378213673 
2281	 0.277321532399773 
2282	 0.277432652957638 
2283	 0.276888248097759 
2284	 0.277349007854664 
2285	 0.277597720652316 
2286	 0.277405859683678 
2287	 0.276524500339165 
2288	 0.276177238453803 
2289	 0.275856110150278 
2290	 0.275914272355668 
2291	 0.2759832757348 
2292	 0.275976339363544 
2293	 0.275987709426305 
2294	 0.274675305434562 
2295	 0.272950125505116 
2296	 0.271504649229563 
2297	 0.270493208098389 
2298	 0.270357776329963 
2299	 0.270240790255099 
2300	 0.270140585767212 
2301	 0.269038510844163 
2302	 0.267231244571242 
2303	 0.265967557580685 
2304	 0.264991967694502 
2305	 0.265197359624652 
2306	 0.26521338787611 
2307	 0.265506440628781 
2308	 0.266185516995279 
2309	 0.264155662488724 
2310	 0.261766259924683 
2311	 0.260620616810602 
2312	 0.258937478642387 
2313	 0.258666474848464 
2314	 0.26127882834233 
2315	 0.262774371582821 
2316	 0.262328315923158 
2317	 0.262175976198684 
2318	 0.261018111942936 
2319	 0.25969947193739 
2320	 0.260047813864157 
2321	 0.260198644939928 
2322	 0.260778356352361 
2323	 0.260430426903349 
2324	 0.259565243967291 
2325	 0.259971658439473 
2326	 0.258946279316105 
2327	 0.258612083753874 
2328	 0.259615063219655 
2329	 0.258411231318267 
2330	 0.257998698822255 
2331	 0.25808557739236 
2332	 0.257292679321422 
2333	 0.257285187605202 
2334	 0.256258630948852 
2335	 0.255348158553091 
2336	 0.256272337585267 
2337	 0.25690642388116 
2338	 0.257805461665057 
2339	 0.259504172898908 
2340	 0.25811122870435 
2341	 0.255605547708541 
2342	 0.254910710829697 
2343	 0.253052139374071 
2344	 0.252819215610373 
2345	 0.254631772922096 
2346	 0.254559469052801 
2347	 0.254760046859352 
2348	 0.254336824373662 
2349	 0.251865946334142 
2350	 0.249885610409162 
2351	 0.247700289775283 
2352	 0.245324356720661 
2353	 0.244788789811935 
2354	 0.244362728912839 
2355	 0.244669554091958 
2356	 0.246755952870349 
2357	 0.247551612064974 
2358	 0.248317089464722 
2359	 0.248364221658299 
2360	 0.246525532041507 
2361	 0.244922062842701 
2362	 0.242901033092476 
2363	 0.242051106263832 
2364	 0.243503877605532 
2365	 0.245561342226938 
2366	 0.246941443060561 
2367	 0.247700136003327 
2368	 0.24708761306651 
2369	 0.244134490403014 
2370	 0.243051963330707 
2371	 0.244426309423968 
2372	 0.245062952356228 
2373	 0.247416532852207 
2374	 0.247917979074042 
2375	 0.246826632707555 
2376	 0.246000125266889 
2377	 0.244199431403667 
2378	 0.244431715508854 
2379	 0.246328575849116 
2380	 0.24639914435714 
2381	 0.24669605481407 
2382	 0.245427323562152 
2383	 0.241781291677141 
2384	 0.240058622708077 
2385	 0.237622145826632 
2386	 0.237184652338372 
2387	 0.239819485839504 
2388	 0.239947366572166 
2389	 0.240490457288063 
2390	 0.241574785402725 
2391	 0.240092097714102 
2392	 0.240510385470083 
2393	 0.243967974988759 
2394	 0.243719639148502 
2395	 0.241902418823124 
2396	 0.240956649143219 
2397	 0.238165865899696 
2398	 0.236146690768596 
2399	 0.235541178526447 
2400	 0.234217686637671 
2401	 0.231651403354456 
2402	 0.230966702808192 
2403	 0.231524375285336 
2404	 0.230807399689735 
2405	 0.230900768098294 
2406	 0.232467574021013 
2407	 0.233651960553513 
2408	 0.236002914420708 
2409	 0.238040521178387 
2410	 0.23530120642757 
2411	 0.232448351825527 
2412	 0.227934744216316 
2413	 0.225559729531935 
2414	 0.231920828320863 
2415	 0.235880315525254 
2416	 0.238514914720127 
2417	 0.242702458392601 
2418	 0.239422301044185 
2419	 0.233368934496572 
2420	 0.229904247903786 
2421	 0.224192052471775 
2422	 0.220233365010901 
2423	 0.220034761797731 
2424	 0.217937663078558 
2425	 0.217708036842072 
2426	 0.219384233730537 
2427	 0.219282039356459 
2428	 0.218586304829281 
2429	 0.21952180847829 
2430	 0.221193658048498 
2431	 0.220360886530936 
2432	 0.223678002078836 
2433	 0.225384502946191 
2434	 0.223321729023649 
2435	 0.21805267592779 
2436	 0.214240163394857 
2437	 0.207774498183425 
2438	 0.204639596040009 
2439	 0.202094902956254 
2440	 0.200947238722908 
2441	 0.204932109306787 
2442	 0.208831232812946 
2443	 0.218008599832674 
2444	 0.218467243008889 
2445	 0.207659340224935 
2446	 0.20391707311993 
2447	 0.194958067823235 
2448	 0.1953232982509 
2449	 0.215542674514368 
2450	 0.221216546990038 
2451	 0.224596436390485 
2452	 0.221987937516024 
2453	 0.204445031443983 
2454	 0.196129509079232 
2455	 0.186601572623292 
2456	 0.184544807928394 
2457	 0.193567102089604 
2458	 0.194122291434463 
2459	 0.194314633608874 
2460	 0.192589886624799 
2461	 0.183743538723033 
2462	 0.179824146962686 
2463	 0.179038357347297 
2464	 0.176314596804218 
2465	 0.171304957557331 
2466	 0.171774454527446 
2467	 0.174561889542322 
2468	 0.180620708225153 
2469	 0.196221877361763 
2470	 0.201849995223102 
2471	 0.20018802476057 
2472	 0.208723497659151 
2473	 0.226801121393098 
2474	 0.230428573917671 
2475	 0.236155408094719 
2476	 0.231688426930358 
2477	 0.19445840142831 
2478	 0.17334842806298 
2479	 0.154611381525404 
2480	 0.149623052116796 
2481	 0.158738908233446 
2482	 0.16792284738013 
2483	 0.207326510581717 
2484	 0.210277599388644 
2485	 0.181362649476082 
2486	 0.152129948347427 
2487	 0.125315322625885 
2488	 0.123653828126946 
2489	 0.124090337550092 
2490	 0.111340152873855 
2491	 0.101281736717617 
2492	 9.27839095302481E-02 
2493	 9.44827628193933E-02 
2494	 0.123780354340824 
2495	 0.124086769416644 
2496	 0.123774439133487 
2497	 0.133687654708165 
2498	 7.51674377299618E-02 
2499	 6.73647828643062E-02 
2500	 0.151710096301741 
