Wavelength	ref00117.asd
350	 1.2913845862369 
351	 1.29845402169986 
352	 1.34498354411008 
353	 1.2781785523398 
354	 1.31026845740239 
355	 1.34552898693301 
356	 1.30850449132091 
357	 1.28319774335172 
358	 1.29767163357966 
359	 1.31260487877901 
360	 1.28621150379231 
361	 1.27075752675727 
362	 1.26951766957148 
363	 1.27461714355725 
364	 1.27274316068153 
365	 1.27434937750492 
366	 1.27086423705096 
367	 1.26099771550561 
368	 1.25592691636848 
369	 1.24188304384798 
370	 1.23281181560428 
371	 1.23800936641126 
372	 1.23753520525258 
373	 1.22433963506012 
374	 1.20964606690128 
375	 1.21043562969196 
376	 1.21739077212298 
377	 1.21178364408837 
378	 1.1991593822881 
379	 1.21143954111942 
380	 1.19356110057889 
381	 1.17532673522824 
382	 1.18263838168516 
383	 1.18574227916593 
384	 1.18844086983878 
385	 1.18771565719775 
386	 1.18033930829274 
387	 1.177181880435 
388	 1.16377205128289 
389	 1.14944881975049 
390	 1.16365219899672 
391	 1.15474604395444 
392	 1.1471190587752 
393	 1.15550139041942 
394	 1.14339015395973 
395	 1.13838458391569 
396	 1.13739448412335 
397	 1.12950469455829 
398	 1.11753036064679 
399	 1.11273416422383 
400	 1.11188483857311 
401	 1.10210250858472 
402	 1.09987849621196 
403	 1.1008981178115 
404	 1.09847684690958 
405	 1.08583384772586 
406	 1.07891465421984 
407	 1.0764816604474 
408	 1.07245742747955 
409	 1.06849832629627 
410	 1.06512257858612 
411	 1.06086780020181 
412	 1.05322832864966 
413	 1.04727300942932 
414	 1.04419857172167 
415	 1.04208640172692 
416	 1.03377585220913 
417	 1.02849634449493 
418	 1.02493490677072 
419	 1.01960397342831 
420	 1.01629940248502 
421	 1.0140554316345 
422	 1.01213299123861 
423	 1.01017048340015 
424	 1.00720974547731 
425	 1.00377266625341 
426	 1.00147834075865 
427	 1.00414815956553 
428	 1.00449592190356 
429	 1.00309928209682 
430	 1.0024159151302 
431	 0.998657841512074 
432	 0.996089633555916 
433	 0.995758136862769 
434	 0.995730507755176 
435	 0.995474744051942 
436	 0.99973364520928 
437	 1.00785640459437 
438	 1.00608714518453 
439	 1.00878939034306 
440	 1.01303534535893 
441	 1.01284738660348 
442	 1.01989684915662 
443	 1.02581061210539 
444	 1.02948331016003 
445	 1.03726194656999 
446	 1.04411529941772 
447	 1.05167270551551 
448	 1.06100305055145 
449	 1.06914609137933 
450	 1.07453177910868 
451	 1.0796243634869 
452	 1.08775620755125 
453	 1.09542489167797 
454	 1.1029317716611 
455	 1.11044772137278 
456	 1.1175618354101 
457	 1.12306522521909 
458	 1.12795611223144 
459	 1.13328311376581 
460	 1.13858112577527 
461	 1.14415464228718 
462	 1.15005316692451 
463	 1.15608925114378 
464	 1.16156232187504 
465	 1.16575987397076 
466	 1.16940771766954 
467	 1.17532587807106 
468	 1.18000280863555 
469	 1.18320823582212 
470	 1.18576931114047 
471	 1.18865352299923 
472	 1.19033818204897 
473	 1.19192572544985 
474	 1.19584812892358 
475	 1.19753435005467 
476	 1.19889540432086 
477	 1.201306891381 
478	 1.20350206102949 
479	 1.20526634966137 
480	 1.20697145386651 
481	 1.20893964541697 
482	 1.20976373212756 
483	 1.21234656194581 
484	 1.2160948560451 
485	 1.21705818056453 
486	 1.21966941451159 
487	 1.22107829976067 
488	 1.21968939328 
489	 1.22052812677343 
490	 1.22142426778631 
491	 1.22205619964959 
492	 1.2228826547922 
493	 1.22477729379977 
494	 1.22505363384865 
495	 1.22378677098146 
496	 1.22459216493449 
497	 1.22456563235475 
498	 1.22406376813657 
499	 1.2239368549852 
500	 1.22423719277284 
501	 1.22346922131227 
502	 1.22124228432646 
503	 1.21812053618409 
504	 1.21604343339637 
505	 1.21355961095576 
506	 1.21071114617776 
507	 1.21069982057422 
508	 1.20810976901868 
509	 1.20424730452041 
510	 1.20170418367106 
511	 1.19918222233737 
512	 1.19562922628011 
513	 1.19111549420459 
514	 1.18665229832481 
515	 1.18308577492953 
516	 1.17998437250634 
517	 1.17632767474839 
518	 1.17031505525325 
519	 1.16375439208811 
520	 1.15741060841843 
521	 1.15116270318715 
522	 1.1424491913946 
523	 1.13569689991323 
524	 1.13101164085483 
525	 1.12359804294953 
526	 1.11765903249696 
527	 1.11169853911905 
528	 1.10410474863866 
529	 1.09665639920979 
530	 1.09022601118277 
531	 1.0842770503399 
532	 1.07770340191734 
533	 1.0727948492734 
534	 1.0678939144998 
535	 1.06215469617401 
536	 1.05670347701098 
537	 1.05170640063699 
538	 1.04764202569028 
539	 1.04474275757898 
540	 1.04226023886499 
541	 1.03939894008923 
542	 1.03611449863836 
543	 1.03302985169451 
544	 1.03052915629625 
545	 1.02866051543391 
546	 1.02759405271411 
547	 1.02816274863542 
548	 1.02837589584143 
549	 1.0286780368822 
550	 1.03012217624934 
551	 1.03054645891725 
552	 1.03166314892185 
553	 1.03395672326555 
554	 1.03614967321301 
555	 1.03665388409494 
556	 1.03747256986474 
557	 1.04016870768504 
558	 1.0416627768243 
559	 1.04371255421614 
560	 1.0459014763408 
561	 1.04681315773893 
562	 1.04990327332214 
563	 1.05226964649109 
564	 1.05305992208717 
565	 1.05648034077796 
566	 1.05893190302789 
567	 1.05984355473277 
568	 1.06002611414236 
569	 1.06155251231531 
570	 1.06347109449129 
571	 1.06516861450356 
572	 1.06651889775433 
573	 1.06757469184124 
574	 1.06935379131656 
575	 1.07236259878338 
576	 1.07535356948644 
577	 1.07924466117085 
578	 1.08450129761307 
579	 1.09133800815729 
580	 1.09973568014879 
581	 1.10897327105494 
582	 1.11943131635251 
583	 1.1330326554917 
584	 1.14790726305346 
585	 1.16385019529886 
586	 1.18087813835429 
587	 1.19833669795621 
588	 1.21736662681014 
589	 1.23803901606884 
590	 1.25925474032252 
591	 1.2811018310556 
592	 1.3034417745978 
593	 1.32604568320248 
594	 1.34693376957908 
595	 1.36923578479375 
596	 1.39227052103826 
597	 1.41427669179088 
598	 1.43479958217183 
599	 1.45496214812993 
600	 1.47515434635829 
601	 1.49488386687134 
602	 1.5143958883445 
603	 1.53379782697708 
604	 1.55298973118026 
605	 1.57162990798583 
606	 1.58923057853378 
607	 1.60679532528571 
608	 1.62550166338425 
609	 1.64177092222766 
610	 1.65690961583433 
611	 1.67191808340677 
612	 1.6867585464137 
613	 1.70102449560107 
614	 1.71486415443921 
615	 1.7281946152182 
616	 1.73967922670828 
617	 1.75134611051408 
618	 1.76297406346054 
619	 1.77303583673598 
620	 1.78216857075046 
621	 1.79097583582513 
622	 1.79978202619776 
623	 1.80837656413817 
624	 1.81689838305271 
625	 1.82464144884171 
626	 1.83106478431888 
627	 1.83804608481359 
628	 1.84488904181851 
629	 1.85156834338964 
630	 1.85868625734624 
631	 1.86494255515325 
632	 1.87048527220993 
633	 1.87601842080583 
634	 1.88291630983554 
635	 1.89022579706614 
636	 1.89753185410747 
637	 1.90467798842866 
638	 1.91195214321094 
639	 1.91987566774878 
640	 1.92824542804191 
641	 1.93573085857409 
642	 1.94397676835016 
643	 1.95224196780761 
644	 1.95966569555963 
645	 1.96662191897865 
646	 1.97382497830045 
647	 1.98114513717725 
648	 1.98802484081914 
649	 1.99565138156094 
650	 2.00271439703091 
651	 2.00850658994878 
652	 2.01411098634701 
653	 2.01902450408719 
654	 2.02357018087472 
655	 2.0287127777645 
656	 2.03669748284812 
657	 2.04383179950664 
658	 2.04891734883459 
659	 2.05440188715773 
660	 2.06190619335884 
661	 2.06949193351943 
662	 2.07593317732814 
663	 2.08280586407594 
664	 2.09090652656758 
665	 2.0987782076608 
666	 2.1049942167087 
667	 2.11239132394333 
668	 2.12000883393161 
669	 2.12715710250976 
670	 2.13369816344155 
671	 2.13998095110822 
672	 2.14581865348706 
673	 2.15109202621009 
674	 2.15629691068785 
675	 2.16132018644257 
676	 2.16533325493574 
677	 2.16787232890559 
678	 2.17222774960631 
679	 2.17675309649625 
680	 2.17989433643826 
681	 2.18071339201747 
682	 2.18259003070731 
683	 2.18267138221 
684	 2.17913061052545 
685	 2.17576802226401 
686	 2.17253149488956 
687	 2.16769706640659 
688	 2.1597701563683 
689	 2.15313598672649 
690	 2.14448576205021 
691	 2.13341933212282 
692	 2.12338926058367 
693	 2.11095347625669 
694	 2.09823809026231 
695	 2.08742566334025 
696	 2.07778697775788 
697	 2.06898289277682 
698	 2.05987587502254 
699	 2.04965251574384 
700	 2.04132780362099 
701	 2.03196954182849 
702	 2.02156541701938 
703	 2.01383706402575 
704	 2.0074537227969 
705	 2.0009677480781 
706	 1.99371009389038 
707	 1.98724949185392 
708	 1.98153766123822 
709	 1.97592254394698 
710	 1.9697592756274 
711	 1.96429580681225 
712	 1.95867373172468 
713	 1.95307586971835 
714	 1.94889575900532 
715	 1.94262129448247 
716	 1.93506792516844 
717	 1.92762000812011 
718	 1.92105701796965 
719	 1.91651071726744 
720	 1.91328451318902 
721	 1.90980809481991 
722	 1.90693675288243 
723	 1.90305986794349 
724	 1.8978476205504 
725	 1.89293166732191 
726	 1.88848359655754 
727	 1.88466744573001 
728	 1.88121877030195 
729	 1.87730305286242 
730	 1.8735661822163 
731	 1.87052965947141 
732	 1.86832818569041 
733	 1.86588966740417 
734	 1.8625692557578 
735	 1.85868958933571 
736	 1.85537470822728 
737	 1.85189457670959 
738	 1.84804198354672 
739	 1.84416523034144 
740	 1.84175681652512 
741	 1.83945822434707 
742	 1.83654271688828 
743	 1.83279808566728 
744	 1.82892436749191 
745	 1.82549953722496 
746	 1.82254112847958 
747	 1.81962343504686 
748	 1.81658194511052 
749	 1.8126516557545 
750	 1.8081568078467 
751	 1.80526558578095 
752	 1.80294698100432 
753	 1.80054110992808 
754	 1.79763693014046 
755	 1.79428382152378 
756	 1.79169030430666 
757	 1.78927964235937 
758	 1.78595661701871 
759	 1.78705074815888 
760	 1.78803910535313 
761	 1.78561854358755 
762	 1.78490757246135 
763	 1.786933591114 
764	 1.78808949408618 
765	 1.78732136101017 
766	 1.7897316586689 
767	 1.78980417488757 
768	 1.78946460854966 
769	 1.79150211193615 
770	 1.79278836645933 
771	 1.79388740398866 
772	 1.79553611756758 
773	 1.79821382485743 
774	 1.79872211176105 
775	 1.79939158268778 
776	 1.80130974029717 
777	 1.80204150154996 
778	 1.80263225543654 
779	 1.80344356961549 
780	 1.80450929910982 
781	 1.80536261036032 
782	 1.80626207478909 
783	 1.80711657639153 
784	 1.80758065569374 
785	 1.806942092807 
786	 1.80650242837234 
787	 1.80652249458001 
788	 1.80599505226515 
789	 1.8047455721763 
790	 1.80391879644435 
791	 1.80398060162051 
792	 1.80349201443022 
793	 1.80300519639699 
794	 1.8024847379435 
795	 1.80169756055847 
796	 1.80022386181085 
797	 1.79922687306889 
798	 1.79876230117529 
799	 1.79816913112484 
800	 1.79708614900642 
801	 1.79543055222447 
802	 1.7937573460063 
803	 1.79315349468331 
804	 1.79279898819459 
805	 1.79131473688454 
806	 1.78886495905584 
807	 1.78898414157984 
808	 1.78710445742246 
809	 1.78495638057311 
810	 1.78458969795991 
811	 1.78117785436217 
812	 1.77749268959811 
813	 1.77446858478247 
814	 1.77183918242369 
815	 1.7693478249549 
816	 1.7666332486537 
817	 1.7637680782454 
818	 1.76131635883033 
819	 1.76048855382923 
820	 1.76034206894858 
821	 1.75957427421752 
822	 1.75694271406691 
823	 1.7551987250501 
824	 1.7531581080179 
825	 1.74991037090284 
826	 1.74838495011073 
827	 1.74670067592918 
828	 1.74466672830468 
829	 1.74258247395433 
830	 1.73902582691502 
831	 1.73646087540667 
832	 1.73483028992567 
833	 1.73232439087546 
834	 1.73026109777216 
835	 1.72871282987618 
836	 1.72758397633041 
837	 1.72671549996376 
838	 1.72525078149615 
839	 1.72356949313256 
840	 1.72182048436212 
841	 1.71907584385732 
842	 1.71842651480278 
843	 1.71784973204403 
844	 1.71532290755662 
845	 1.7141133613528 
846	 1.71181256599641 
847	 1.70941631745196 
848	 1.70877828670717 
849	 1.70792440827395 
850	 1.70586699729042 
851	 1.70341463320182 
852	 1.70242699241454 
853	 1.70203740112419 
854	 1.70023402652875 
855	 1.6967377830514 
856	 1.6934897909328 
857	 1.69301750376683 
858	 1.69117276263895 
859	 1.6872939912793 
860	 1.68769121753868 
861	 1.68575565337338 
862	 1.68372988555988 
863	 1.68386447896704 
864	 1.68296328332803 
865	 1.68012685176692 
866	 1.67776240126711 
867	 1.67759333782804 
868	 1.67379972189695 
869	 1.67044760451378 
870	 1.66870470827943 
871	 1.66776114587734 
872	 1.66539641748675 
873	 1.66311945211707 
874	 1.66114992661765 
875	 1.65872345845578 
876	 1.65598036847472 
877	 1.65328255437229 
878	 1.65068993786457 
879	 1.64801605169842 
880	 1.64633035539794 
881	 1.64324701909563 
882	 1.63907065319021 
883	 1.6379764406694 
884	 1.63491146218553 
885	 1.63195545019049 
886	 1.63042622313767 
887	 1.62773750884445 
888	 1.62392121894128 
889	 1.62011566000177 
890	 1.61713884696447 
891	 1.61428064423277 
892	 1.61014698350811 
893	 1.6057893100607 
894	 1.60239032465135 
895	 1.59831192248352 
896	 1.59599487155158 
897	 1.59356189874774 
898	 1.58890786337519 
899	 1.58792789900467 
900	 1.58565381319892 
901	 1.5815411384828 
902	 1.57781826592255 
903	 1.57640129044382 
904	 1.57390154861999 
905	 1.56989210633632 
906	 1.56632627403522 
907	 1.56674252077408 
908	 1.56262060140965 
909	 1.55581723161238 
910	 1.55573767616782 
911	 1.55213376650167 
912	 1.54831898824185 
913	 1.54509776094695 
914	 1.54018300574208 
915	 1.53930477492329 
916	 1.53640154990166 
917	 1.53150699547106 
918	 1.53192246078753 
919	 1.52825125719091 
920	 1.52501711620346 
921	 1.52331880492474 
922	 1.51789544559884 
923	 1.5159748310697 
924	 1.51309315923497 
925	 1.50730173919468 
926	 1.50346124471716 
927	 1.49642436211547 
928	 1.49130845227277 
929	 1.48938498902771 
930	 1.48074915041734 
931	 1.47891567378506 
932	 1.47497365352166 
933	 1.46346183591143 
934	 1.46036869520282 
935	 1.45592760008937 
936	 1.44804429117368 
937	 1.43999397215246 
938	 1.43966308110343 
939	 1.4346427759978 
940	 1.43091915155315 
941	 1.43183136849351 
942	 1.42828379674775 
943	 1.42490604862109 
944	 1.42392078720748 
945	 1.42146728427574 
946	 1.40267445099242 
947	 1.39490366043839 
948	 1.38972315137051 
949	 1.37883925526417 
950	 1.3742983379536 
951	 1.36693909980708 
952	 1.35877467098644 
953	 1.35153584264958 
954	 1.34045796996955 
955	 1.33435434926104 
956	 1.33022862307631 
957	 1.32367752955226 
958	 1.31403415863981 
959	 1.30847376041584 
960	 1.3068392989901 
961	 1.30584108259793 
962	 1.30075212827558 
963	 1.30131309052875 
964	 1.29902947746355 
965	 1.29216310625602 
966	 1.29559480534478 
967	 1.2966067056078 
968	 1.29283222682756 
969	 1.28777236575315 
970	 1.28948350089885 
971	 1.29400263071574 
972	 1.29317557291691 
973	 1.28738020907058 
974	 1.2891394980886 
975	 1.28990116259071 
976	 1.28738407330846 
977	 1.28596102896444 
978	 1.29448840642132 
979	 1.29153651591769 
980	 1.2902325811662 
981	 1.29384040827106 
982	 1.29064571705591 
983	 1.2910431718356 
984	 1.2946705753609 
985	 1.29797798200245 
986	 1.29729880098938 
987	 1.30114676686168 
988	 1.30279056837749 
989	 1.30097316062503 
990	 1.30018811549606 
991	 1.30374212728315 
992	 1.30642558247519 
993	 1.31077043703475 
994	 1.32117330549551 
995	 1.32509552961138 
996	 1.31919668921348 
997	 1.3148943389903 
998	 1.32318667866499 
999	 1.32470258775724 
1000	 1.32581490446384 
1001	 1.36197718740324 
1002	 1.36429578200814 
1003	 1.36676252791064 
1004	 1.36934223781495 
1005	 1.37181834189743 
1006	 1.37473455322301 
1007	 1.37747640286721 
1008	 1.37996681366894 
1009	 1.38225110297869 
1010	 1.38462711887339 
1011	 1.38671084476014 
1012	 1.38821497812338 
1013	 1.39053960744762 
1014	 1.39334667227408 
1015	 1.3959629555237 
1016	 1.39842718187275 
1017	 1.40104688532123 
1018	 1.4039784709812 
1019	 1.40709015373966 
1020	 1.41020790048469 
1021	 1.41394197680713 
1022	 1.41677718757521 
1023	 1.41914394893409 
1024	 1.42139448136517 
1025	 1.42366026716914 
1026	 1.42658556443995 
1027	 1.42992376787136 
1028	 1.43288493809709 
1029	 1.43512892627512 
1030	 1.43727481584854 
1031	 1.43944642632179 
1032	 1.44126178206297 
1033	 1.44360892589626 
1034	 1.44669605210966 
1035	 1.44922903785364 
1036	 1.45157772178608 
1037	 1.45382782394321 
1038	 1.45588989342221 
1039	 1.45788742125166 
1040	 1.45950910606726 
1041	 1.46179041646233 
1042	 1.46465671989249 
1043	 1.46741204515686 
1044	 1.47017173213709 
1045	 1.47312740383808 
1046	 1.47529491129655 
1047	 1.47675292596044 
1048	 1.47893513016079 
1049	 1.48173145062836 
1050	 1.48428776058454 
1051	 1.48718028514527 
1052	 1.48980307708658 
1053	 1.49230505962569 
1054	 1.49471607173243 
1055	 1.4972557429913 
1056	 1.49999316231331 
1057	 1.50218094709591 
1058	 1.50453607835997 
1059	 1.50695624216928 
1060	 1.50869811576954 
1061	 1.51081895842493 
1062	 1.51263603267179 
1063	 1.51406549047757 
1064	 1.51611945858101 
1065	 1.51777835894521 
1066	 1.51918485047878 
1067	 1.52094216839435 
1068	 1.52291893857298 
1069	 1.52402780534991 
1070	 1.52606361557295 
1071	 1.52772294370515 
1072	 1.52807892281342 
1073	 1.5291300347664 
1074	 1.53011254515701 
1075	 1.53022867902666 
1076	 1.52991800615384 
1077	 1.52979634216996 
1078	 1.5299420820715 
1079	 1.52977520192729 
1080	 1.5301712942179 
1081	 1.53020561670888 
1082	 1.53025639014284 
1083	 1.52918359331814 
1084	 1.52865439146878 
1085	 1.52865901783923 
1086	 1.52798148541834 
1087	 1.52735212059385 
1088	 1.52708687018965 
1089	 1.5252302156199 
1090	 1.52282733511156 
1091	 1.52146845707215 
1092	 1.519347646235 
1093	 1.51703672364412 
1094	 1.51557050431145 
1095	 1.51366801870102 
1096	 1.5117069596629 
1097	 1.50998920095803 
1098	 1.50754087606342 
1099	 1.50458843540014 
1100	 1.50169962908392 
1101	 1.49853585374108 
1102	 1.49563906814367 
1103	 1.49341022287585 
1104	 1.49062250587181 
1105	 1.48771267367774 
1106	 1.48466226598876 
1107	 1.48114194241331 
1108	 1.47758919617285 
1109	 1.47376307420943 
1110	 1.46943856689006 
1111	 1.4649414004816 
1112	 1.45987628894471 
1113	 1.45505956051758 
1114	 1.45022264793389 
1115	 1.44458761494033 
1116	 1.43876148957141 
1117	 1.43207857316282 
1118	 1.42445040913116 
1119	 1.41502696522799 
1120	 1.40528396832249 
1121	 1.39603433129445 
1122	 1.38629718696724 
1123	 1.37771830803442 
1124	 1.36898175273719 
1125	 1.35870879792643 
1126	 1.34830861235653 
1127	 1.33845876077052 
1128	 1.32631254964244 
1129	 1.31401843983408 
1130	 1.30089186794359 
1131	 1.28714929315749 
1132	 1.27231250110209 
1133	 1.25700729500346 
1134	 1.24107623000406 
1135	 1.22443157989261 
1136	 1.2072900918848 
1137	 1.19142025746813 
1138	 1.17531581364405 
1139	 1.15835148122799 
1140	 1.14139714749002 
1141	 1.12337001361189 
1142	 1.10573204602781 
1143	 1.08853942002218 
1144	 1.07150910628248 
1145	 1.05442723686928 
1146	 1.03754687979986 
1147	 1.02091515616894 
1148	 1.00403667068655 
1149	 0.989147174980536 
1150	 0.976018791631135 
1151	 0.963516951140113 
1152	 0.952429807926549 
1153	 0.942291830240625 
1154	 0.933502805236422 
1155	 0.925720431559592 
1156	 0.919173755131403 
1157	 0.913946553522777 
1158	 0.908765169019386 
1159	 0.903183585060907 
1160	 0.898308556073794 
1161	 0.89364799669301 
1162	 0.889501198706974 
1163	 0.885775411001996 
1164	 0.882167020677321 
1165	 0.878619711853165 
1166	 0.875458194982964 
1167	 0.872440196970987 
1168	 0.869757954472276 
1169	 0.867548315949453 
1170	 0.865220878524011 
1171	 0.862933343322576 
1172	 0.860810183863377 
1173	 0.858617816883662 
1174	 0.856404803299857 
1175	 0.854087147776478 
1176	 0.851414433900795 
1177	 0.848872550080179 
1178	 0.84626305525962 
1179	 0.843557389373655 
1180	 0.840899311432387 
1181	 0.838059503803743 
1182	 0.834830572944114 
1183	 0.831958290397118 
1184	 0.8289594379197 
1185	 0.826367678441425 
1186	 0.824302740719296 
1187	 0.822034254546759 
1188	 0.81964999250306 
1189	 0.817856813502545 
1190	 0.815884569339962 
1191	 0.813758878223912 
1192	 0.812440389369741 
1193	 0.811228788673806 
1194	 0.810112542378841 
1195	 0.809436334617073 
1196	 0.808381515743815 
1197	 0.807039827098653 
1198	 0.806159871257789 
1199	 0.80542533081855 
1200	 0.804590295725083 
1201	 0.80390355673969 
1202	 0.803363908910075 
1203	 0.802588105397089 
1204	 0.802274885499637 
1205	 0.802410642795356 
1206	 0.802584522199507 
1207	 0.802836648096637 
1208	 0.803361568975869 
1209	 0.804012696223083 
1210	 0.80489337869999 
1211	 0.806416344775607 
1212	 0.808035750043756 
1213	 0.809981765528802 
1214	 0.812232290002863 
1215	 0.815008764896148 
1216	 0.818061958163266 
1217	 0.821521602676693 
1218	 0.825764227072019 
1219	 0.829693756353796 
1220	 0.833732986592879 
1221	 0.837871636069831 
1222	 0.842032647048963 
1223	 0.846368794936459 
1224	 0.851059290840051 
1225	 0.855489770696292 
1226	 0.860029512828404 
1227	 0.864338203188725 
1228	 0.868549378791824 
1229	 0.872411779995597 
1230	 0.876203009237723 
1231	 0.880148154477095 
1232	 0.883951277315942 
1233	 0.887753514668542 
1234	 0.891374875109555 
1235	 0.89498764177352 
1236	 0.898278100307095 
1237	 0.901360747261901 
1238	 0.904298141786716 
1239	 0.906997751033744 
1240	 0.909669299070748 
1241	 0.912263237197621 
1242	 0.91468396798485 
1243	 0.916874111803616 
1244	 0.919141236189789 
1245	 0.921499171442031 
1246	 0.923521209677968 
1247	 0.92545334844644 
1248	 0.927229349629053 
1249	 0.928723583061228 
1250	 0.930046932099245 
1251	 0.931204896852486 
1252	 0.932315170749455 
1253	 0.933358184156201 
1254	 0.934290369427675 
1255	 0.934962016481764 
1256	 0.935608418265939 
1257	 0.935938636916454 
1258	 0.935680133070873 
1259	 0.935842867646888 
1260	 0.936186380500794 
1261	 0.936227736766169 
1262	 0.93637525987276 
1263	 0.936145156622006 
1264	 0.935435566641907 
1265	 0.934863722893562 
1266	 0.934063978533696 
1267	 0.933438938597012 
1268	 0.93317379090758 
1269	 0.93242190113323 
1270	 0.931525556099453 
1271	 0.930535459373359 
1272	 0.929163965186349 
1273	 0.927777856301799 
1274	 0.92644936447951 
1275	 0.925260776067513 
1276	 0.923729131133618 
1277	 0.921999464210675 
1278	 0.920361474964806 
1279	 0.918668843023311 
1280	 0.916787606180234 
1281	 0.91494278221715 
1282	 0.912834248643265 
1283	 0.910353580041853 
1284	 0.908021841476796 
1285	 0.905693674049994 
1286	 0.903277348225021 
1287	 0.901069518489097 
1288	 0.898335791356661 
1289	 0.895232181173849 
1290	 0.892127373219029 
1291	 0.888559140841625 
1292	 0.885182150955428 
1293	 0.882222138905191 
1294	 0.878668695731614 
1295	 0.875072972024352 
1296	 0.870809989628366 
1297	 0.866372759739582 
1298	 0.861275511117599 
1299	 0.856545762255943 
1300	 0.851821586532359 
1301	 0.846724615892475 
1302	 0.841445127148821 
1303	 0.836130480477894 
1304	 0.830534903852568 
1305	 0.824836325334341 
1306	 0.819160223706017 
1307	 0.813259173807144 
1308	 0.807143741025588 
1309	 0.800732278513542 
1310	 0.793991529724659 
1311	 0.787350697328574 
1312	 0.78044766400573 
1313	 0.77352756744074 
1314	 0.766870208738199 
1315	 0.75987861595264 
1316	 0.752434674332728 
1317	 0.745196577151329 
1318	 0.73791678530586 
1319	 0.730645437605095 
1320	 0.723451654522947 
1321	 0.716160582586145 
1322	 0.708670746233712 
1323	 0.700838791368874 
1324	 0.69327722720634 
1325	 0.685568580871215 
1326	 0.677778201361964 
1327	 0.669981695607021 
1328	 0.661977042146417 
1329	 0.653559106414219 
1330	 0.64539860450069 
1331	 0.63734788708099 
1332	 0.629321696243628 
1333	 0.621240661814803 
1334	 0.613712080781119 
1335	 0.606482337534247 
1336	 0.599557043270746 
1337	 0.592861671020831 
1338	 0.586623909237668 
1339	 0.580331403503583 
1340	 0.574582947981417 
1341	 0.569123090797174 
1342	 0.563915453508185 
1343	 0.558674517285991 
1344	 0.553639524347344 
1345	 0.548828422664722 
1346	 0.54358177166204 
1347	 0.538680865450102 
1348	 0.533546952519605 
1349	 0.528489988038747 
1350	 0.523941121122723 
1351	 0.518612348038149 
1352	 0.514003040026164 
1353	 0.508516141340299 
1354	 0.50487191829533 
1355	 0.497588721535802 
1356	 0.490538922099752 
1357	 0.481139884458973 
1358	 0.469888747148211 
1359	 0.455909158513228 
1360	 0.460242346859482 
1361	 0.451772064887541 
1362	 0.447257329605619 
1363	 0.433172992585308 
1364	 0.404232417905791 
1365	 0.394070643885169 
1366	 0.41880953617677 
1367	 0.408054857812044 
1368	 0.397922985269628 
1369	 0.388601512989629 
1370	 0.363883754505272 
1371	 0.352018779526662 
1372	 0.346980583403448 
1373	 0.344756380809545 
1374	 0.348320259886438 
1375	 0.34594357803052 
1376	 0.333748461641041 
1377	 0.328646445026491 
1378	 0.319063281583981 
1379	 0.298810199416989 
1380	 0.288676886953047 
1381	 0.286429397593666 
1382	 0.277114533556388 
1383	 0.264702115525913 
1384	 0.259140004559206 
1385	 0.257668065863581 
1386	 0.250925914192053 
1387	 0.248461772087416 
1388	 0.239176557563027 
1389	 0.222396580674283 
1390	 0.21374643074588 
1391	 0.2050043282728 
1392	 0.200478894665655 
1393	 0.200832508715432 
1394	 0.198834985484963 
1395	 0.198626014119597 
1396	 0.195619418479078 
1397	 0.190695870989595 
1398	 0.185902831821146 
1399	 0.178378417072398 
1400	 0.174212612628875 
1401	 0.172118832121944 
1402	 0.169590651114185 
1403	 0.169470924094963 
1404	 0.167100119394133 
1405	 0.162176383916477 
1406	 0.159574652106127 
1407	 0.15789898513573 
1408	 0.157161825312607 
1409	 0.156198357697975 
1410	 0.154435961583623 
1411	 0.153331502922058 
1412	 0.151237559414151 
1413	 0.150774901298897 
1414	 0.151617061376048 
1415	 0.151152302016459 
1416	 0.150363932817252 
1417	 0.149749315186147 
1418	 0.148846256568098 
1419	 0.148383822461094 
1420	 0.147822954606284 
1421	 0.148217689580585 
1422	 0.149694957239698 
1423	 0.149600105951043 
1424	 0.149318982460284 
1425	 0.148917772170844 
1426	 0.147218983972345 
1427	 0.146764567328288 
1428	 0.147296846667681 
1429	 0.147302521694539 
1430	 0.147478730775755 
1431	 0.147200059087952 
1432	 0.146043548941514 
1433	 0.146020825954084 
1434	 0.14688703614176 
1435	 0.14684891971593 
1436	 0.146829483948669 
1437	 0.146832693536883 
1438	 0.145791783715979 
1439	 0.145663291985205 
1440	 0.146931412463125 
1441	 0.147250148959737 
1442	 0.14759480375733 
1443	 0.146974023501455 
1444	 0.146529512620381 
1445	 0.146552519141881 
1446	 0.147220634330515 
1447	 0.14783495923443 
1448	 0.14791050702965 
1449	 0.147840064620827 
1450	 0.147688927883061 
1451	 0.147118352840968 
1452	 0.147046177997636 
1453	 0.147080460720099 
1454	 0.147199798782757 
1455	 0.147516205612942 
1456	 0.147719822128482 
1457	 0.14800981468675 
1458	 0.148174926664553 
1459	 0.148273333625056 
1460	 0.148320706380396 
1461	 0.148377237746306 
1462	 0.148295095201538 
1463	 0.147899178661464 
1464	 0.147928830669995 
1465	 0.148106855126986 
1466	 0.148235119932466 
1467	 0.14862835532269 
1468	 0.148961536792629 
1469	 0.149168794760643 
1470	 0.14944424320982 
1471	 0.14984722468843 
1472	 0.150202257592399 
1473	 0.150366394220088 
1474	 0.150708257266821 
1475	 0.151295904886774 
1476	 0.151689157950992 
1477	 0.152056634043502 
1478	 0.152358408689447 
1479	 0.152335479572538 
1480	 0.152635750942105 
1481	 0.153019683076457 
1482	 0.153538971912056 
1483	 0.1544144926374 
1484	 0.155063228841183 
1485	 0.155535827305266 
1486	 0.156198613911376 
1487	 0.156882465079771 
1488	 0.157534436247896 
1489	 0.158409335526873 
1490	 0.158889813355308 
1491	 0.159491840214732 
1492	 0.160267749430509 
1493	 0.160663815545963 
1494	 0.161142212916811 
1495	 0.161706893987086 
1496	 0.162075587244951 
1497	 0.162762180466593 
1498	 0.163850898994189 
1499	 0.164535984150239 
1500	 0.165067441312498 
1501	 0.165796663609815 
1502	 0.166489116483421 
1503	 0.167216496550654 
1504	 0.168152380618196 
1505	 0.168826461182608 
1506	 0.169241932015536 
1507	 0.169987141891244 
1508	 0.170836403712233 
1509	 0.171577601866736 
1510	 0.172454201728475 
1511	 0.173200111846566 
1512	 0.173754736963166 
1513	 0.17448012633534 
1514	 0.175287700496319 
1515	 0.176069060800762 
1516	 0.176853841160902 
1517	 0.177704726419401 
1518	 0.178643119040819 
1519	 0.179511584765119 
1520	 0.180322035102011 
1521	 0.181255142126766 
1522	 0.182255268220193 
1523	 0.183197993295218 
1524	 0.184242285430777 
1525	 0.185211243307371 
1526	 0.185978217053613 
1527	 0.186951426919465 
1528	 0.188113030321364 
1529	 0.189146207007857 
1530	 0.19021600873967 
1531	 0.191256617366355 
1532	 0.19225227337594 
1533	 0.193172591306355 
1534	 0.193950385890608 
1535	 0.194945086695604 
1536	 0.195916693330888 
1537	 0.197022888188425 
1538	 0.198547368001219 
1539	 0.199734849761884 
1540	 0.200681471116849 
1541	 0.201778355312562 
1542	 0.202777229457229 
1543	 0.203869405946028 
1544	 0.205158137012148 
1545	 0.206361918796018 
1546	 0.207644540474432 
1547	 0.208714838408465 
1548	 0.209523636312643 
1549	 0.210543910881669 
1550	 0.21146278469327 
1551	 0.212531098329182 
1552	 0.214045108514382 
1553	 0.215232017083117 
1554	 0.216179209842337 
1555	 0.217240068679199 
1556	 0.218151060783091 
1557	 0.219154481365446 
1558	 0.22040301189964 
1559	 0.221501419972502 
1560	 0.222441586149894 
1561	 0.223486960383095 
1562	 0.224564481201053 
1563	 0.225610822564781 
1564	 0.22668724192246 
1565	 0.227849190120145 
1566	 0.228808064789339 
1567	 0.229810729567608 
1568	 0.230764179054184 
1569	 0.231644712163823 
1570	 0.2327064574936 
1571	 0.23374936892616 
1572	 0.235067275548002 
1573	 0.236696934654351 
1574	 0.237934133698953 
1575	 0.239176763693986 
1576	 0.240289229997263 
1577	 0.241042521303087 
1578	 0.242223614788139 
1579	 0.243667562039229 
1580	 0.244702766026062 
1581	 0.2456818440535 
1582	 0.246682077319031 
1583	 0.247405421390606 
1584	 0.248426432893368 
1585	 0.249746552876064 
1586	 0.250710107578732 
1587	 0.251488979880546 
1588	 0.252527200322072 
1589	 0.253598994225912 
1590	 0.254558114931467 
1591	 0.255669199251694 
1592	 0.256583324123379 
1593	 0.257191654058656 
1594	 0.258119027498375 
1595	 0.259240527095699 
1596	 0.260158416733454 
1597	 0.260993125368542 
1598	 0.262073547297336 
1599	 0.26319701583507 
1600	 0.264287881612616 
1601	 0.265650923877615 
1602	 0.266652476824631 
1603	 0.267311802800658 
1604	 0.268300242065097 
1605	 0.269421927707391 
1606	 0.270303493798985 
1607	 0.271234081849497 
1608	 0.271953283083274 
1609	 0.272281071112874 
1610	 0.273037787170414 
1611	 0.273896762815244 
1612	 0.274847635372755 
1613	 0.276172950329942 
1614	 0.276884885840893 
1615	 0.277283356999202 
1616	 0.27796670333735 
1617	 0.278439951141794 
1618	 0.279112170719279 
1619	 0.280194707515246 
1620	 0.280828929503222 
1621	 0.281032775006079 
1622	 0.281789404627462 
1623	 0.282768779559518 
1624	 0.28352547481958 
1625	 0.284465562616599 
1626	 0.285268601526914 
1627	 0.285838732460172 
1628	 0.286465513070992 
1629	 0.287269372885685 
1630	 0.287840083758395 
1631	 0.2881248149915 
1632	 0.288600477717482 
1633	 0.289118583218542 
1634	 0.289670099791793 
1635	 0.290281330414853 
1636	 0.290853781566921 
1637	 0.291380338916881 
1638	 0.292025532511845 
1639	 0.292861375497692 
1640	 0.29330253935019 
1641	 0.293535841703825 
1642	 0.294107397330172 
1643	 0.294595330007492 
1644	 0.294934990194717 
1645	 0.295545882806797 
1646	 0.295955625638996 
1647	 0.295969000646644 
1648	 0.296220386580747 
1649	 0.296710867586025 
1650	 0.296995205944795 
1651	 0.297074502900256 
1652	 0.297295040173677 
1653	 0.297608104800315 
1654	 0.297813359985991 
1655	 0.29809637687482 
1656	 0.297917286007602 
1657	 0.29747388924624 
1658	 0.297061827018003 
1659	 0.296666859213772 
1660	 0.296781688296789 
1661	 0.296948493911292 
1662	 0.296625919606356 
1663	 0.296039003825553 
1664	 0.295374907095863 
1665	 0.294602200268397 
1666	 0.293941293412043 
1667	 0.293503977871976 
1668	 0.292771109937698 
1669	 0.291975691576272 
1670	 0.291428694417254 
1671	 0.290614647678249 
1672	 0.289853028002929 
1673	 0.28906332642543 
1674	 0.287874499760901 
1675	 0.286608815783501 
1676	 0.285270062039281 
1677	 0.28392576693388 
1678	 0.282720855583862 
1679	 0.281577183636615 
1680	 0.280508467598939 
1681	 0.279290806011622 
1682	 0.277945482926314 
1683	 0.276805267925432 
1684	 0.275494297808458 
1685	 0.274201905288331 
1686	 0.273415876784891 
1687	 0.272402543815886 
1688	 0.271235533551449 
1689	 0.270319342108244 
1690	 0.269182490018342 
1691	 0.26819865676368 
1692	 0.267695117241272 
1693	 0.266901960529846 
1694	 0.26576485933987 
1695	 0.264929992324796 
1696	 0.264294742550816 
1697	 0.263359981996711 
1698	 0.262499085487739 
1699	 0.261457775129683 
1700	 0.259875395161629 
1701	 0.258859380211186 
1702	 0.258164698038353 
1703	 0.257394568016778 
1704	 0.25688200949515 
1705	 0.256145756116844 
1706	 0.255340225092253 
1707	 0.254389165501412 
1708	 0.253222906004168 
1709	 0.252291029170337 
1710	 0.251449017299512 
1711	 0.250396315571948 
1712	 0.249237857051619 
1713	 0.248292367407744 
1714	 0.247227506921546 
1715	 0.246351292728654 
1716	 0.245992359778567 
1717	 0.245200771712499 
1718	 0.244065392062448 
1719	 0.243145437610451 
1720	 0.242184158047308 
1721	 0.241289848544894 
1722	 0.240684785753946 
1723	 0.2397563322995 
1724	 0.238522415473919 
1725	 0.237368349849288 
1726	 0.235852162524313 
1727	 0.235134465562541 
1728	 0.234756580576405 
1729	 0.234794307773846 
1730	 0.235870936697734 
1731	 0.235529859406855 
1732	 0.235146082104513 
1733	 0.23423857324451 
1734	 0.233031554807982 
1735	 0.232582824038292 
1736	 0.23222393945178 
1737	 0.232233927516817 
1738	 0.232527420716453 
1739	 0.231800469510598 
1740	 0.23117388827053 
1741	 0.230874388771207 
1742	 0.230023385398643 
1743	 0.229907178361493 
1744	 0.230118084623608 
1745	 0.229578921767626 
1746	 0.228857828875218 
1747	 0.228122348551162 
1748	 0.227433329476277 
1749	 0.226472581390942 
1750	 0.225631299088141 
1751	 0.225254847900248 
1752	 0.224459828532152 
1753	 0.223400750073144 
1754	 0.222649206844226 
1755	 0.221919991601226 
1756	 0.221145991179822 
1757	 0.221313726441007 
1758	 0.220938701263249 
1759	 0.220347871362359 
1760	 0.219486128598783 
1761	 0.21786673003314 
1762	 0.217021421594568 
1763	 0.216230579992722 
1764	 0.215781472784894 
1765	 0.216413554330343 
1766	 0.216238420504022 
1767	 0.215787475469225 
1768	 0.215390407888189 
1769	 0.21434926668241 
1770	 0.214124460056107 
1771	 0.214477475798676 
1772	 0.214003973681865 
1773	 0.213681671506655 
1774	 0.212579046664048 
1775	 0.21211440770626 
1776	 0.211923385693515 
1777	 0.211236924682288 
1778	 0.211136975885112 
1779	 0.210206966905497 
1780	 0.209909002156656 
1781	 0.21019719398233 
1782	 0.209140140321474 
1783	 0.208732470099136 
1784	 0.208010678548425 
1785	 0.207847549301643 
1786	 0.208712804584704 
1787	 0.208146889425861 
1788	 0.208437262970002 
1789	 0.208007947538675 
1790	 0.206650255374124 
1791	 0.208041157755064 
1792	 0.208292282789033 
1793	 0.206822879581037 
1794	 0.205439810835173 
1795	 0.203474379274531 
1796	 0.203477831392394 
1797	 0.205558911111692 
1798	 0.208627068447598 
1799	 0.20978079901668 
1800	 0.207815067809334 
1801	 0.201400213914466 
1802	 0.197379333378111 
1803	 0.197434551818111 
1804	 0.200642266828479 
1805	 0.201269296877302 
1806	 0.203498170494346 
1807	 0.204485308831778 
1808	 0.204790407211842 
1809	 0.200912628100977 
1810	 0.199702009962694 
1811	 0.198366042539365 
1812	 0.198932936403178 
1813	 0.202872615319609 
1814	 0.203059262968843 
1815	 0.201406475894092 
1816	 0.201628947828641 
1817	 0.199554697494669 
1818	 0.197861381494746 
1819	 0.197260685027728 
1820	 0.20011657046726 
1821	 0.204555177828709 
1822	 0.212874252545194 
1823	 0.214431584274674 
1824	 0.216204587791384 
1825	 0.218652132582559 
1826	 0.207638002767866 
1827	 0.204291231125066 
1828	 0.205462954947883 
1829	 0.225801873020574 
1830	 0.228326390565996 
1831	 0.214560133636129 
1832	 0.221261045633131 
1833	 0.23820095554371 
1834	 0.251562679917045 
1835	 0.275723470007601 
1836	 0.320043352162816 
1837	 0.367300517244839 
1838	 0.395026547319721 
1839	 0.424020733762689 
1840	 0.511259231088194 
1841	 0.526431980567414 
1842	 0.454219001713251 
1843	 0.427208481063109 
1844	 0.41332172158186 
1845	 0.387664364604394 
1846	 0.324961757462557 
1847	 0.29868160979236 
1848	 0.284394576111082 
1849	 0.267450253518871 
1850	 0.283234671113756 
1851	 0.351230527639969 
1852	 0.381566729786391 
1853	 0.441907435866666 
1854	 0.437706990006124 
1855	 0.388780107375619 
1856	 0.355102147999153 
1857	 0.301454126575094 
1858	 0.246615835101839 
1859	 0.218201024475364 
1860	 0.192639727626015 
1861	 0.188755359320503 
1862	 0.200736422138235 
1863	 0.213646349317753 
1864	 0.250392775383266 
1865	 0.279506297794972 
1866	 0.334019491193018 
1867	 0.360969850321605 
1868	 0.364746986314919 
1869	 0.377392781642674 
1870	 0.405410025295032 
1871	 0.442587991644155 
1872	 0.429141109980029 
1873	 0.436992841827059 
1874	 0.389830839669602 
1875	 0.292181180940568 
1876	 0.234763313356801 
1877	 0.177813501965681 
1878	 0.136870160148373 
1879	 0.140908630103449 
1880	 0.138135622564458 
1881	 0.127311381536225 
1882	 0.130751709500947 
1883	 0.124584285035246 
1884	 8.87870179694509E-02 
1885	 8.52967087966709E-02 
1886	 0.095626921277419 
1887	 0.121564045332055 
1888	 0.118326678152293 
1889	 0.118073851323556 
1890	 0.125791958151601 
1891	 0.116459431838057 
1892	 0.125258976175815 
1893	 0.176654001610602 
1894	 0.204104925060611 
1895	 0.233374260019952 
1896	 0.23882905834213 
1897	 0.228357984797977 
1898	 0.178119048562803 
1899	 0.118457824706896 
1900	 6.00946644869396E-02 
1901	 3.66156247676909E-02 
1902	 0.11341671012664 
1903	 0.115002316187582 
1904	 9.99950895710192E-02 
1905	 0.113899653227168 
1906	 0.11058569417222 
1907	 0.110884721161061 
1908	 0.214422700524567 
1909	 0.256089174271814 
1910	 0.284145951164681 
1911	 0.268467809677366 
1912	 0.247293589340351 
1913	 0.197700978636481 
1914	 0.18131825352853 
1915	 0.167388045981739 
1916	 0.16114601039818 
1917	 0.164301194877616 
1918	 0.164056317741221 
1919	 0.144430331744288 
1920	 0.140428706660306 
1921	 0.138666461232269 
1922	 0.142462702973649 
1923	 0.150768393427083 
1924	 0.176172063274692 
1925	 0.17760827657408 
1926	 0.16859757349754 
1927	 0.167491473646553 
1928	 0.15697567036887 
1929	 0.15806446815279 
1930	 0.178333925248669 
1931	 0.181626010359592 
1932	 0.171886646614485 
1933	 0.170088348727252 
1934	 0.167200578886332 
1935	 0.157287351801011 
1936	 0.154098607906139 
1937	 0.160431224089568 
1938	 0.157822843676651 
1939	 0.151924446381725 
1940	 0.143994751724443 
1941	 0.139778375688743 
1942	 0.134844408784464 
1943	 0.134776189856862 
1944	 0.13873559949256 
1945	 0.139757028747598 
1946	 0.144321901733856 
1947	 0.145975256472638 
1948	 0.14560951744212 
1949	 0.145273569447432 
1950	 0.145813558751176 
1951	 0.142430023448609 
1952	 0.140252492815737 
1953	 0.138628589535221 
1954	 0.137808546464447 
1955	 0.139770897448592 
1956	 0.138384113319255 
1957	 0.139678359758662 
1958	 0.13959839295448 
1959	 0.136648042612225 
1960	 0.136012670969807 
1961	 0.136714393777344 
1962	 0.137717367535216 
1963	 0.136552448682759 
1964	 0.137809347956253 
1965	 0.138053715565108 
1966	 0.135577837772254 
1967	 0.135095762967479 
1968	 0.135246580106517 
1969	 0.134845475544119 
1970	 0.13525415972212 
1971	 0.134547146822116 
1972	 0.133123775441383 
1973	 0.131213033474997 
1974	 0.130611053821477 
1975	 0.128330197452082 
1976	 0.128469728154309 
1977	 0.129528853280313 
1978	 0.12917309162207 
1979	 0.130557836323365 
1980	 0.130008036654754 
1981	 0.128219411280914 
1982	 0.127510294227559 
1983	 0.127002341993538 
1984	 0.125872060000691 
1985	 0.126005593509549 
1986	 0.127090271562482 
1987	 0.128351107748923 
1988	 0.128269610960243 
1989	 0.12809120815968 
1990	 0.128665664051988 
1991	 0.127324211956533 
1992	 0.127494764307638 
1993	 0.128438637845368 
1994	 0.128211480235992 
1995	 0.1287045756387 
1996	 0.130403296125109 
1997	 0.131596897981871 
1998	 0.131501933323055 
1999	 0.130788949160552 
2000	 0.131084296798379 
2001	 0.132193533949398 
2002	 0.13200525037236 
2003	 0.135364507240279 
2004	 0.136209231484885 
2005	 0.13024539185682 
2006	 0.127728379380712 
2007	 0.125998801717103 
2008	 0.122896143259651 
2009	 0.122144005931318 
2010	 0.128298139450481 
2011	 0.130916958038126 
2012	 0.12955444021584 
2013	 0.128321748936646 
2014	 0.123809282453203 
2015	 0.120319142695917 
2016	 0.122145948365821 
2017	 0.123670494834443 
2018	 0.12559669999408 
2019	 0.126950858779913 
2020	 0.128761802685486 
2021	 0.128434379271247 
2022	 0.127945525480073 
2023	 0.127382201337344 
2024	 0.126729276639178 
2025	 0.12613078782625 
2026	 0.12632942714537 
2027	 0.126548752279621 
2028	 0.126993002624816 
2029	 0.127593918110022 
2030	 0.12711181380253 
2031	 0.127264447001059 
2032	 0.127392087395466 
2033	 0.12729567608305 
2034	 0.127264026083811 
2035	 0.128194185597452 
2036	 0.128310526872008 
2037	 0.128149968160525 
2038	 0.129254923009187 
2039	 0.130155887136058 
2040	 0.130203817047533 
2041	 0.130434845006624 
2042	 0.130041429941769 
2043	 0.128871067276528 
2044	 0.128729847253453 
2045	 0.129109030303904 
2046	 0.130480396839436 
2047	 0.130956967664027 
2048	 0.131324842603121 
2049	 0.131264888261241 
2050	 0.131050832502202 
2051	 0.131769449248106 
2052	 0.131959560281117 
2053	 0.131433100329776 
2054	 0.129642338961953 
2055	 0.12755990896349 
2056	 0.127898357535555 
2057	 0.129747806734907 
2058	 0.131643011367178 
2059	 0.132888438681318 
2060	 0.134074127345767 
2061	 0.134482208231882 
2062	 0.134619202472998 
2063	 0.135197381333689 
2064	 0.136414794432848 
2065	 0.135703911399657 
2066	 0.134807346878919 
2067	 0.134464478395879 
2068	 0.134425667258867 
2069	 0.135390735340485 
2070	 0.134683120419077 
2071	 0.13386915263974 
2072	 0.134159863686856 
2073	 0.134567649491114 
2074	 0.13481699598905 
2075	 0.135406643985672 
2076	 0.136634322951844 
2077	 0.137971156326507 
2078	 0.138266430118086 
2079	 0.139192752776147 
2080	 0.140249258827745 
2081	 0.138529564613999 
2082	 0.136618845784391 
2083	 0.137315575742172 
2084	 0.13751854564691 
2085	 0.13770597353742 
2086	 0.139072388373974 
2087	 0.139900560382197 
2088	 0.13996066276343 
2089	 0.140256244436728 
2090	 0.141535859548342 
2091	 0.142238760140476 
2092	 0.141888587418282 
2093	 0.141337794405579 
2094	 0.141092357427298 
2095	 0.140866843050995 
2096	 0.140682310054479 
2097	 0.140615059736948 
2098	 0.140209375763282 
2099	 0.139098294143881 
2100	 0.137900866731771 
2101	 0.138661530018021 
2102	 0.139141545014909 
2103	 0.139932874837748 
2104	 0.140089723122531 
2105	 0.141745503733385 
2106	 0.142105194222418 
2107	 0.141958176333789 
2108	 0.142997079146352 
2109	 0.142918069721397 
2110	 0.142917721898062 
2111	 0.142149170249272 
2112	 0.141133304443909 
2113	 0.141428371920539 
2114	 0.141608852402589 
2115	 0.142767287641371 
2116	 0.143725776478988 
2117	 0.144119508778619 
2118	 0.143832054953106 
2119	 0.143752399791722 
2120	 0.142887433290019 
2121	 0.143720571434633 
2122	 0.144850366935333 
2123	 0.144690760162268 
2124	 0.143871341114273 
2125	 0.143080639987069 
2126	 0.141543021468106 
2127	 0.140202902110618 
2128	 0.140945834943014 
2129	 0.14134097138969 
2130	 0.140892053289305 
2131	 0.141462528261673 
2132	 0.141890275075938 
2133	 0.142816191437321 
2134	 0.143444207167822 
2135	 0.14475867409004 
2136	 0.144879900731759 
2137	 0.144221750571968 
2138	 0.142392300684481 
2139	 0.140754972101694 
2140	 0.141137379604703 
2141	 0.141571160429621 
2142	 0.141858604917958 
2143	 0.14177506815942 
2144	 0.140713043211502 
2145	 0.141185021399793 
2146	 0.141949031649206 
2147	 0.141857202183734 
2148	 0.141798219581742 
2149	 0.141356437397265 
2150	 0.140762168366554 
2151	 0.140223155206678 
2152	 0.140459843003057 
2153	 0.140577734804999 
2154	 0.140711376990069 
2155	 0.139260017019201 
2156	 0.139061270158746 
2157	 0.140016020616679 
2158	 0.139949824341681 
2159	 0.140223188019518 
2160	 0.140217718910538 
2161	 0.139373625822454 
2162	 0.138302575312916 
2163	 0.137972647818991 
2164	 0.139435028571083 
2165	 0.139617095812093 
2166	 0.138498805882965 
2167	 0.138887056148377 
2168	 0.138867677584715 
2169	 0.13780541934351 
2170	 0.137530552807107 
2171	 0.138353540557672 
2172	 0.138021459442733 
2173	 0.136751384140255 
2174	 0.136295903703957 
2175	 0.136788919556594 
2176	 0.137295065729959 
2177	 0.136962850312986 
2178	 0.137510136515711 
2179	 0.13768735802008 
2180	 0.136868210901949 
2181	 0.136856590162796 
2182	 0.137020014450374 
2183	 0.136742357519482 
2184	 0.136303604735641 
2185	 0.136169334820006 
2186	 0.136818383427055 
2187	 0.137033070862006 
2188	 0.13670739738866 
2189	 0.1366053098305 
2190	 0.136732361779748 
2191	 0.136664300234929 
2192	 0.136378323122416 
2193	 0.137280234320569 
2194	 0.137661341696783 
2195	 0.138014539441683 
2196	 0.138510209186109 
2197	 0.137519731424616 
2198	 0.137074243153323 
2199	 0.136773601280848 
2200	 0.137062948853294 
2201	 0.137659007938724 
2202	 0.137927705339776 
2203	 0.138830775919557 
2204	 0.138210515875206 
2205	 0.138321524676452 
2206	 0.138485105151309 
2207	 0.138907065221183 
2208	 0.139732289026071 
2209	 0.140834707018862 
2210	 0.141082207989547 
2211	 0.141864825763867 
2212	 0.141851849549621 
2213	 0.14011612919237 
2214	 0.138738636829492 
2215	 0.137286233816806 
2216	 0.135184118213202 
2217	 0.134524608774476 
2218	 0.135915532083893 
2219	 0.136384069648112 
2220	 0.13724663882093 
2221	 0.138302272661945 
2222	 0.138621801751359 
2223	 0.138666770172367 
2224	 0.138116876744246 
2225	 0.138133004345261 
2226	 0.136675246565417 
2227	 0.135733439011774 
2228	 0.13734836082472 
2229	 0.137100835277103 
2230	 0.137035604363399 
2231	 0.138036549683556 
2232	 0.140369029060975 
2233	 0.141872072396172 
2234	 0.144002081920476 
2235	 0.145106863871323 
2236	 0.144832097816899 
2237	 0.141519300077821 
2238	 0.137998254766043 
2239	 0.136246119191636 
2240	 0.136229131415029 
2241	 0.138136657188991 
2242	 0.139586020378348 
2243	 0.140713452387649 
2244	 0.141099480588182 
2245	 0.141003646806152 
2246	 0.142742467326902 
2247	 0.144548222614066 
2248	 0.144747003001507 
2249	 0.143677649456374 
2250	 0.142035128653256 
2251	 0.140609559479195 
2252	 0.140413060416867 
2253	 0.141352827679401 
2254	 0.142756969731882 
2255	 0.143009478693884 
2256	 0.142635822094129 
2257	 0.141419382930911 
2258	 0.140889449363376 
2259	 0.139112276764097 
2260	 0.137799853406904 
2261	 0.136394930144993 
2262	 0.135578112328757 
2263	 0.138202706309016 
2264	 0.142317225573524 
2265	 0.148553949799888 
2266	 0.150827577221145 
2267	 0.147838673666737 
2268	 0.145095477873957 
2269	 0.14001106899262 
2270	 0.138686379039711 
2271	 0.142458877210719 
2272	 0.143048473256504 
2273	 0.143702685222876 
2274	 0.144187823741169 
2275	 0.142487917249623 
2276	 0.142224547238438 
2277	 0.140528980407042 
2278	 0.141161661692493 
2279	 0.142085152486294 
2280	 0.138320857387521 
2281	 0.137899484343761 
2282	 0.136879221213277 
2283	 0.133996361061023 
2284	 0.135820963255721 
2285	 0.139273369255838 
2286	 0.140368554442369 
2287	 0.140347465016144 
2288	 0.140345078511466 
2289	 0.13996723081901 
2290	 0.139323408684503 
2291	 0.141620496523104 
2292	 0.145248899681788 
2293	 0.148253866277582 
2294	 0.148418839797018 
2295	 0.146922839140444 
2296	 0.146880661072082 
2297	 0.145214094445828 
2298	 0.142837873738795 
2299	 0.142919561549547 
2300	 0.141681021296234 
2301	 0.141860960933908 
2302	 0.147926495473533 
2303	 0.1543508550624 
2304	 0.157124464224081 
2305	 0.158816069238873 
2306	 0.158475025561787 
2307	 0.153613288301367 
2308	 0.151106515878512 
2309	 0.150346427233474 
2310	 0.14996025936172 
2311	 0.150197096596435 
2312	 0.148519662633129 
2313	 0.148328898585378 
2314	 0.147300611527224 
2315	 0.147448845714947 
2316	 0.148710166697846 
2317	 0.147786500338156 
2318	 0.145062122762018 
2319	 0.142284511763878 
2320	 0.143497598958478 
2321	 0.145224743213933 
2322	 0.151797255496381 
2323	 0.154435577420748 
2324	 0.15749642965158 
2325	 0.153250643079586 
2326	 0.149115879489951 
2327	 0.146025040026671 
2328	 0.143704103335707 
2329	 0.149514988831246 
2330	 0.155944696035176 
2331	 0.155122048653715 
2332	 0.150815997155405 
2333	 0.141858061789222 
2334	 0.136814946764743 
2335	 0.137440453847449 
2336	 0.139535216660462 
2337	 0.14334385438119 
2338	 0.142510537479711 
2339	 0.14309421913137 
2340	 0.14613606432856 
2341	 0.1502338631997 
2342	 0.154710078762637 
2343	 0.15315422260881 
2344	 0.154964742454153 
2345	 0.159629652606375 
2346	 0.162383134178284 
2347	 0.163301813973742 
2348	 0.156061178048861 
2349	 0.148173885467557 
2350	 0.148019036437919 
2351	 0.147326670088186 
2352	 0.149679547211504 
2353	 0.156943874237169 
2354	 0.149304069578988 
2355	 0.140970134013115 
2356	 0.143009826830651 
2357	 0.139682020222829 
2358	 0.139668282247872 
2359	 0.140703058625122 
2360	 0.137038417110737 
2361	 0.137405608446489 
2362	 0.143175121423596 
2363	 0.151830476571581 
2364	 0.155583721567893 
2365	 0.155549381746912 
2366	 0.154143556304008 
2367	 0.147136523202086 
2368	 0.143411469248937 
2369	 0.141752094240414 
2370	 0.135872889901948 
2371	 0.135277019851586 
2372	 0.135065499616981 
2373	 0.135201965413146 
2374	 0.13886754599121 
2375	 0.149581787040294 
2376	 0.150998622057922 
2377	 0.150755228921025 
2378	 0.149360864379778 
2379	 0.134681533561225 
2380	 0.135468064135454 
2381	 0.151453363479184 
2382	 0.156870454599052 
2383	 0.165938551702719 
2384	 0.166350456885625 
2385	 0.152372268923004 
2386	 0.146293099095897 
2387	 0.141847446523722 
2388	 0.140157393996854 
2389	 0.142525687888237 
2390	 0.142245415749971 
2391	 0.141606086288877 
2392	 0.141089942840853 
2393	 0.13800621711086 
2394	 0.139591862907875 
2395	 0.144521885846165 
2396	 0.148390322435175 
2397	 0.155389258293704 
2398	 0.159333627925692 
2399	 0.164834163860531 
2400	 0.164941877135007 
2401	 0.159161798253945 
2402	 0.15750272710982 
2403	 0.152237862922807 
2404	 0.147618909187555 
2405	 0.160541921490266 
2406	 0.16379213532591 
2407	 0.161481766227871 
2408	 0.162655578556489 
2409	 0.148743625108066 
2410	 0.144914860917961 
2411	 0.156661009102734 
2412	 0.155128810500427 
2413	 0.15355413025557 
2414	 0.156585500507434 
2415	 0.146961929852477 
2416	 0.139220300517226 
2417	 0.150242360983576 
2418	 0.14620561067773 
2419	 0.147591508221341 
2420	 0.169208217431188 
2421	 0.160698494163338 
2422	 0.156022161887653 
2423	 0.156693876587434 
2424	 0.148592962187017 
2425	 0.153649531024921 
2426	 0.160262461995727 
2427	 0.164914610172061 
2428	 0.165611242571278 
2429	 0.163702110995126 
2430	 0.150100891127757 
2431	 0.14977723277245 
2432	 0.160323567077583 
2433	 0.149891402978935 
2434	 0.146553595181283 
2435	 0.128874486547997 
2436	 0.126152409618782 
2437	 0.146672636061725 
2438	 0.155951970233549 
2439	 0.167237731033577 
2440	 0.166880867139199 
2441	 0.147457167394569 
2442	 0.140569828926721 
2443	 0.130121718857871 
2444	 0.143273068957614 
2445	 0.190709834677743 
2446	 0.206706984406316 
2447	 0.224770400306653 
2448	 0.23048846239168 
2449	 0.193488758554889 
2450	 0.190490307401371 
2451	 0.210718331397817 
2452	 0.212003608110131 
2453	 0.218699015765792 
2454	 0.221499224040984 
2455	 0.216842173272725 
2456	 0.204296724277205 
2457	 0.172958971158883 
2458	 0.171905814148013 
2459	 0.1769608808131 
2460	 0.187216659636906 
2461	 0.238864470043058 
2462	 0.25773441866785 
2463	 0.254430092461636 
2464	 0.258936203685481 
2465	 0.25192935814342 
2466	 0.243955393406412 
2467	 0.23819842052844 
2468	 0.223230591719186 
2469	 0.193200615155446 
2470	 0.186244513484483 
2471	 0.179154771053605 
2472	 0.177020043170681 
2473	 0.199253000025888 
2474	 0.211657632606599 
2475	 0.228990647712207 
2476	 0.23274905247523 
2477	 0.219703180967462 
2478	 0.257637692459075 
2479	 0.32955602641773 
2480	 0.353290359119246 
2481	 0.370906114978752 
2482	 0.426562842299035 
2483	 0.482107327614582 
2484	 0.481069272386963 
2485	 0.544389215650755 
2486	 0.402784912519371 
2487	 0.283174641559544 
2488	 0.324009709464329 
2489	 0.322887891500415 
2490	 0.223494191346652 
2491	 0.298408364654502 
2492	 0.52537480502308 
2493	 0.662237295089103 
2494	 0.652929282812246 
2495	 0.486004089452811 
2496	 0.366339939127103 
2497	 5.65549191219868E-02 
2498	-4.25738088766974E-02 
2499	 3.64190514893272E-02 
2500	-6.24262185863306E-02 
