Wavelength	ref00085.asd
350	 1.50200345817787E-02 
351	 1.55060574617126E-02 
352	 1.56809953998707E-02 
353	 1.54896181119005E-02 
354	 1.60312043048291E-02 
355	 0.016261088106574 
356	 1.55851550866042E-02 
357	 1.50822792693384E-02 
358	 1.45006485213921E-02 
359	 1.44896916912024E-02 
360	 1.53947513846093E-02 
361	 1.53703057931285E-02 
362	 1.54590302775796E-02 
363	 1.56704148365959E-02 
364	 1.53601960970921E-02 
365	 1.51184149529402E-02 
366	 1.50514375664808E-02 
367	 1.51557919917377E-02 
368	 1.53829236146246E-02 
369	 1.52739288629487E-02 
370	 0.015115547238068 
371	 1.52501707775855E-02 
372	 1.57086634587141E-02 
373	 1.53894359186396E-02 
374	 1.49080060485062E-02 
375	 1.54732614437786E-02 
376	 1.55062981082804E-02 
377	 1.54382886911198E-02 
378	 1.55735351799624E-02 
379	 1.58330526978864E-02 
380	 1.57839573601367E-02 
381	 1.57201892284053E-02 
382	 1.58874133951841E-02 
383	 1.59542639954109E-02 
384	 1.60502747595112E-02 
385	 1.61350867950596E-02 
386	 1.61298125803367E-02 
387	 1.61270980658514E-02 
388	 1.65825892999906E-02 
389	 1.72460781345292E-02 
390	 1.71899604263614E-02 
391	 1.71526149456607E-02 
392	 1.70122594208293E-02 
393	 1.67053100900317E-02 
394	 1.65606834349027E-02 
395	 1.72769632235021E-02 
396	 1.79068306243205E-02 
397	 1.74520332386742E-02 
398	 0.017857744100982 
399	 1.78532389759333E-02 
400	 1.74838420768173E-02 
401	 1.78871813149731E-02 
402	 1.79566085711773E-02 
403	 1.77447533052798E-02 
404	 1.75873739989654E-02 
405	 1.80720270492988E-02 
406	 0.018378437054348 
407	 1.83531458387347E-02 
408	 1.81535167933863E-02 
409	 1.81900516308006E-02 
410	 0.01819862062457 
411	 1.82337479849857E-02 
412	 0.018595959565905 
413	 1.85422380546422E-02 
414	 1.83447515361434E-02 
415	 1.83433353778074E-02 
416	 1.86950746928992E-02 
417	 1.88860306529347E-02 
418	 1.87943121608229E-02 
419	 1.85458721777149E-02 
420	 0.018652165101652 
421	 1.87658615356372E-02 
422	 1.87657511420401E-02 
423	 1.87620702265917E-02 
424	 1.86284785537936E-02 
425	 1.85467691744538E-02 
426	 1.86293233529941E-02 
427	 1.87597610837128E-02 
428	 1.87162652826352E-02 
429	 1.85846816243674E-02 
430	 1.85617421219401E-02 
431	 1.87410950206913E-02 
432	 1.87983734507871E-02 
433	 0.01871091639336 
434	 1.87300609918377E-02 
435	 1.89019681011599E-02 
436	 1.89488086372495E-02 
437	 1.87750417717314E-02 
438	 1.87388894641149E-02 
439	 1.88520735080914E-02 
440	 1.89511057245145E-02 
441	 1.88827480254483E-02 
442	 1.89543227663412E-02 
443	 1.90556006507217E-02 
444	 1.91288396299238E-02 
445	 0.019194761296238 
446	 1.94014477332874E-02 
447	 1.94752904427992E-02 
448	 1.93360914822598E-02 
449	 1.95650085161045E-02 
450	 0.019711379497004 
451	 1.97693584315949E-02 
452	 0.019888510450766 
453	 1.99102951251172E-02 
454	 1.99548199704664E-02 
455	 2.00369924667722E-02 
456	 2.00292434705953E-02 
457	 0.020172759755055 
458	 2.02516738293528E-02 
459	 0.020121982458147 
460	 2.01474254835597E-02 
461	 2.02921312961562E-02 
462	 2.03667745417167E-02 
463	 2.01705944728044E-02 
464	 2.02054665375475E-02 
465	 0.020275287509684 
466	 2.02604585621012E-02 
467	 2.02710723028671E-02 
468	 2.02163304602659E-02 
469	 2.01864596798819E-02 
470	 2.02610981319759E-02 
471	 2.02910133844913E-02 
472	 2.03014093246252E-02 
473	 2.03218729460738E-02 
474	 2.03767990733127E-02 
475	 2.04122112000407E-02 
476	 2.04207528041988E-02 
477	 2.04210717802418E-02 
478	 2.04637100113152E-02 
479	 2.05577121914892E-02 
480	 2.06681858073087E-02 
481	 2.07485898178935E-02 
482	 2.07863405638846E-02 
483	 2.08381189362352E-02 
484	 2.09278891068548E-02 
485	 0.021040613634531 
486	 2.11389965198179E-02 
487	 2.12178576811354E-02 
488	 0.021291250309502 
489	 2.13883624678516E-02 
490	 2.16136981668447E-02 
491	 2.18550667781371E-02 
492	 2.19625617630656E-02 
493	 2.21937191829493E-02 
494	 2.24892043719886E-02 
495	 2.28122757735385E-02 
496	 2.31841654669334E-02 
497	 2.35520887603913E-02 
498	 2.39250668771553E-02 
499	 2.43165015558165E-02 
500	 2.46800262482764E-02 
501	 2.51926393320958E-02 
502	 2.58661048457319E-02 
503	 2.66038957916901E-02 
504	 0.027436874190117 
505	 2.81026649872809E-02 
506	 2.86272418793982E-02 
507	 2.95490378024879E-02 
508	 3.04634087224994E-02 
509	 3.13855935438231E-02 
510	 3.24248248035773E-02 
511	 3.35251454160213E-02 
512	 3.47105442545495E-02 
513	 3.59587080919849E-02 
514	 3.72127482484684E-02 
515	 3.84795493831712E-02 
516	 4.00034717468843E-02 
517	 4.18145079866964E-02 
518	 4.33560939658507E-02 
519	 4.49788930371566E-02 
520	 4.67367810284645E-02 
521	 4.85291896171977E-02 
522	 5.00399448181944E-02 
523	 5.16191014651809E-02 
524	 5.33395646017684E-02 
525	 5.49016197489766E-02 
526	 5.64422722404486E-02 
527	 5.80211471156772E-02 
528	 5.96015547351266E-02 
529	 0.0609058212751 
530	 6.20383175170794E-02 
531	 6.30776659667219E-02 
532	 6.40901898322738E-02 
533	 6.51277338027186E-02 
534	 6.60838639795717E-02 
535	 6.69004705616035E-02 
536	 6.76364778290058E-02 
537	 6.82783511369677E-02 
538	 6.88811895149776E-02 
539	 6.94902445430355E-02 
540	 7.00203109709459E-02 
541	 7.05466785654582E-02 
542	 7.10194645967368E-02 
543	 7.13043889846364E-02 
544	 7.17801515729099E-02 
545	 7.22549114431994E-02 
546	 0.072574421021064 
547	 7.28783727688133E-02 
548	 7.32827210057206E-02 
549	 7.36586297483158E-02 
550	 0.07382851080156 
551	 7.40582751529453E-02 
552	 7.42703364779595E-02 
553	 7.43729264898637E-02 
554	 7.42916694332183E-02 
555	 7.42118299868682E-02 
556	 7.41256828230633E-02 
557	 7.39580773716383E-02 
558	 7.35739933627108E-02 
559	 7.32105534264061E-02 
560	 7.28296435326071E-02 
561	 7.22319812585067E-02 
562	 7.16005132373998E-02 
563	 7.08455444095019E-02 
564	 6.99590021182897E-02 
565	 6.91507454389526E-02 
566	 6.81787393147442E-02 
567	 0.067147929749418 
568	 6.62187959066525E-02 
569	 6.52290267317349E-02 
570	 6.42189684117263E-02 
571	 6.32536700876501E-02 
572	 6.23983684642895E-02 
573	 6.15000377905218E-02 
574	 6.06252683698374E-02 
575	 5.98320760432693E-02 
576	 5.90793465431496E-02 
577	 5.83245194571388E-02 
578	 5.75430336221718E-02 
579	 5.67472022164924E-02 
580	 5.61259769817565E-02 
581	 5.55378660748265E-02 
582	 5.48926646681423E-02 
583	 5.42053853562416E-02 
584	 5.37697705656941E-02 
585	 5.34192399153974E-02 
586	 5.29602990473271E-02 
587	 5.25889281358931E-02 
588	 5.23155393760396E-02 
589	 0.052029015766128 
590	 5.15696792387999E-02 
591	 5.12711238570566E-02 
592	 5.09676979292882E-02 
593	 5.05720964256533E-02 
594	 0.050291378324264 
595	 4.99431743405266E-02 
596	 4.95620103002627E-02 
597	 0.049241282452815 
598	 0.048985910032666 
599	 4.87513562857164E-02 
600	 4.85354903252312E-02 
601	 4.83767415074209E-02 
602	 4.81645869224551E-02 
603	 4.79284804614357E-02 
604	 4.76844168555147E-02 
605	 4.73115747662006E-02 
606	 4.70394939544943E-02 
607	 4.67687607391118E-02 
608	 4.62949114325213E-02 
609	 4.59646955257716E-02 
610	 4.56337041984927E-02 
611	 4.52551429352283E-02 
612	 4.49822585844652E-02 
613	 4.45893624250928E-02 
614	 0.044106541235209 
615	 4.36292668607958E-02 
616	 0.04319332101675 
617	 4.28129405627927E-02 
618	 4.24833114056201E-02 
619	 4.21782253527403E-02 
620	 4.18812115306929E-02 
621	 4.16134194162634E-02 
622	 4.13895659701728E-02 
623	 4.12013545383634E-02 
624	 4.10450029097577E-02 
625	 4.09250237752885E-02 
626	 0.04085246828963 
627	 4.08618878565147E-02 
628	 4.08521657769074E-02 
629	 4.07853018606952E-02 
630	 4.06963096704329E-02 
631	 4.07089865061726E-02 
632	 4.06209007710328E-02 
633	 4.03129215038463E-02 
634	 4.00313304543154E-02 
635	 3.97464008500229E-02 
636	 3.93524894859113E-02 
637	 3.87442564167425E-02 
638	 3.81046683952853E-02 
639	 3.74048189087441E-02 
640	 0.036654444022397 
641	 3.59525939001155E-02 
642	 0.035147508241545 
643	 0.034296934708929 
644	 3.35033312034047E-02 
645	 3.28652840559475E-02 
646	 3.22369264983038E-02 
647	 3.16544409295426E-02 
648	 3.12363226394797E-02 
649	 3.07452819758337E-02 
650	 3.02551341779818E-02 
651	 2.98951325859743E-02 
652	 2.97962365466778E-02 
653	 2.97138515090946E-02 
654	 2.95909208422844E-02 
655	 2.94440922492616E-02 
656	 2.93717763476483E-02 
657	 2.92032147697519E-02 
658	 2.88623068275343E-02 
659	 2.83701586489497E-02 
660	 2.80968043156745E-02 
661	 2.77491208817495E-02 
662	 2.72207847563823E-02 
663	 2.69195852373892E-02 
664	 2.65801723304952E-02 
665	 2.61766213974046E-02 
666	 2.57776501299787E-02 
667	 2.55118966816315E-02 
668	 2.52247714524769E-02 
669	 2.49628704452838E-02 
670	 2.49345867177394E-02 
671	 2.47311489885232E-02 
672	 2.46319198861586E-02 
673	 2.47743021642161E-02 
674	 2.46489368871553E-02 
675	 2.47271991683163E-02 
676	 2.49257953356922E-02 
677	 2.50058519179527E-02 
678	 2.51641338614339E-02 
679	 2.54224714004588E-02 
680	 2.57878462978276E-02 
681	 2.62565503967718E-02 
682	 2.67115409692896E-02 
683	 2.73738034181996E-02 
684	 2.83551113785597E-02 
685	 2.92792514947025E-02 
686	 3.05696249685652E-02 
687	 3.23243994771071E-02 
688	 3.42858376613688E-02 
689	 3.62168976978422E-02 
690	 3.84103985563796E-02 
691	 4.10704309374386E-02 
692	 4.40870786335763E-02 
693	 4.77609979565757E-02 
694	 5.18100941555125E-02 
695	 5.59859916695166E-02 
696	 6.05921587327283E-02 
697	 6.54798433633514E-02 
698	 7.07239572612538E-02 
699	 7.64260039705957E-02 
700	 8.23557979949377E-02 
701	 8.85518021804264E-02 
702	 9.49363603089845E-02 
703	 0.101262898805694 
704	 0.107713425150135 
705	 0.114334789303028 
706	 0.121174228938123 
707	 0.12815020768387 
708	 0.135297312740195 
709	 0.142575823904291 
710	 0.149882516903714 
711	 0.157326287862526 
712	 0.164977122939328 
713	 0.172824020755952 
714	 0.180777717680913 
715	 0.188911233476331 
716	 0.197452997112988 
717	 0.20667641736041 
718	 0.216020394669724 
719	 0.225056771882122 
720	 0.233165644998449 
721	 0.24021367810557 
722	 0.246999491102706 
723	 0.254543663599099 
724	 0.263052086090473 
725	 0.270862070015039 
726	 0.277956448441142 
727	 0.28450446291172 
728	 0.290875474015198 
729	 0.297144975715245 
730	 0.302961104944148 
731	 0.308226784025343 
732	 0.312969697745167 
733	 0.316909072935892 
734	 0.320810377357441 
735	 0.324976315688472 
736	 0.329118558992877 
737	 0.332805512030595 
738	 0.33614138608924 
739	 0.339296249835189 
740	 0.342189092869459 
741	 0.344864048471389 
742	 0.347322037548986 
743	 0.349556460893946 
744	 0.351697882588689 
745	 0.353655184235082 
746	 0.355407810823419 
747	 0.356999650568444 
748	 0.35850170702645 
749	 0.359867458886151 
750	 0.361081673148496 
751	 0.362205142292853 
752	 0.363334303476216 
753	 0.364368193561814 
754	 0.365206580347292 
755	 0.365936156560664 
756	 0.366734589987859 
757	 0.367619893633933 
758	 0.368546657895537 
759	 0.369637392837043 
760	 0.371737397334102 
761	 0.374695277697996 
762	 0.375098172940998 
763	 0.37446526617308 
764	 0.373863520393529 
765	 0.373569180255271 
766	 0.372950252293032 
767	 0.372617421938193 
768	 0.372557635497327 
769	 0.372616740057303 
770	 0.372785436960279 
771	 0.372988652550668 
772	 0.373214968283696 
773	 0.373503321266999 
774	 0.373820105554154 
775	 0.3740645207744 
776	 0.3742171204967 
777	 0.374407419557727 
778	 0.374655400940506 
779	 0.37498318961697 
780	 0.375379217089866 
781	 0.375772615612099 
782	 0.375996071758496 
783	 0.376184733402559 
784	 0.376576337790186 
785	 0.376851372651974 
786	 0.377250585490254 
787	 0.37779748085371 
788	 0.378247564152175 
789	 0.378782575530937 
790	 0.37930020079763 
791	 0.379660648238554 
792	 0.379736924817215 
793	 0.379962082911003 
794	 0.380286032324867 
795	 0.38054648782022 
796	 0.380847283337685 
797	 0.381238229077263 
798	 0.381656377434464 
799	 0.381992621175026 
800	 0.382345819072605 
801	 0.382661200867523 
802	 0.382924067744665 
803	 0.383184113134665 
804	 0.383441114605393 
805	 0.38365026587484 
806	 0.383840832918411 
807	 0.384209866957548 
808	 0.384644834174175 
809	 0.385113320328895 
810	 0.385678041091599 
811	 0.386684095515383 
812	 0.387741928304997 
813	 0.388881263929423 
814	 0.390282534590757 
815	 0.391282135516744 
816	 0.391986639848241 
817	 0.392485514904332 
818	 0.392754189306404 
819	 0.392344433149 
820	 0.391975125855068 
821	 0.392130147080525 
822	 0.392596368561156 
823	 0.39309793056204 
824	 0.393333282341673 
825	 0.393209692887968 
826	 0.393153729455843 
827	 0.393234750420656 
828	 0.393460031564321 
829	 0.393774078892602 
830	 0.394102756880155 
831	 0.394123548800678 
832	 0.393947739815478 
833	 0.393964682576741 
834	 0.393918025569264 
835	 0.393891078001935 
836	 0.393962521806179 
837	 0.394147416969218 
838	 0.394119216852624 
839	 0.394157291005551 
840	 0.394444272277167 
841	 0.394737932533717 
842	 0.395032353647036 
843	 0.39519707026831 
844	 0.395205441676828 
845	 0.395443372352216 
846	 0.395665766118523 
847	 0.395934594302056 
848	 0.396360295988723 
849	 0.396541093641044 
850	 0.396815907613893 
851	 0.39726971804743 
852	 0.397713571840243 
853	 0.397666874765663 
854	 0.397688509331903 
855	 0.398099968866111 
856	 0.398752025261713 
857	 0.39909319723574 
858	 0.398997499771673 
859	 0.398818009320761 
860	 0.399466621622719 
861	 0.399908556693547 
862	 0.400126613221344 
863	 0.40029714536253 
864	 0.400389366810633 
865	 0.400539156384241 
866	 0.400773325919793 
867	 0.401114609358267 
868	 0.401793073831371 
869	 0.402120504220851 
870	 0.402148698594429 
871	 0.402268004376375 
872	 0.402486544371943 
873	 0.402723442325892 
874	 0.402889332109709 
875	 0.402954552346401 
876	 0.403278941118837 
877	 0.403701808874046 
878	 0.404029944556828 
879	 0.404152884292915 
880	 0.404588633497871 
881	 0.40490654883018 
882	 0.404949478660231 
883	 0.405114225535093 
884	 0.405389067332712 
885	 0.405631561601151 
886	 0.405742851973317 
887	 0.405761607298281 
888	 0.406195022297495 
889	 0.406750950573856 
890	 0.407104707800802 
891	 0.407385761844313 
892	 0.408247077400313 
893	 0.409285266895109 
894	 0.41003613251202 
895	 0.411290967367419 
896	 0.411909440871786 
897	 0.412267843161018 
898	 0.413187402913433 
899	 0.414143449303836 
900	 0.414258710981757 
901	 0.41404909595509 
902	 0.414508119991589 
903	 0.414885816028219 
904	 0.414924746241716 
905	 0.414744782692255 
906	 0.414703922813246 
907	 0.415007760653428 
908	 0.415779095054502 
909	 0.416685035347462 
910	 0.417123477213219 
911	 0.417597643576571 
912	 0.417970248263245 
913	 0.417970429086836 
914	 0.417457289852202 
915	 0.418145897141983 
916	 0.418201927259513 
917	 0.417272112688344 
918	 0.417082105814576 
919	 0.417261498476106 
920	 0.417054828907523 
921	 0.416462266006032 
922	 0.416452833377254 
923	 0.416386530840007 
924	 0.416894605520502 
925	 0.418056386091318 
926	 0.418822256490561 
927	 0.419838438161102 
928	 0.420910944293947 
929	 0.422111072668734 
930	 0.424318835417245 
931	 0.427156124799655 
932	 0.429325554599841 
933	 0.430091090123906 
934	 0.430812544562075 
935	 0.432010330994256 
936	 0.432928868357503 
937	 0.43297243093639 
938	 0.432634019086134 
939	 0.432052077239508 
940	 0.430302887895702 
941	 0.427688322175849 
942	 0.427064841413226 
943	 0.426813801245996 
944	 0.425828474960482 
945	 0.424427985861837 
946	 0.42564696232056 
947	 0.425343454747933 
948	 0.42433219664056 
949	 0.423866201857218 
950	 0.423170470567054 
951	 0.420575384564659 
952	 0.419445867610543 
953	 0.4208621215297 
954	 0.418870384183296 
955	 0.417625447327319 
956	 0.415823272052667 
957	 0.413281040933817 
958	 0.414368313699483 
959	 0.41149579670286 
960	 0.409684122842996 
961	 0.411464009680426 
962	 0.40968507360942 
963	 0.407314682953633 
964	 0.405527115900235 
965	 0.404633591814307 
966	 0.404075312693884 
967	 0.403994085709326 
968	 0.402984934770786 
969	 0.401358014144269 
970	 0.402164460480328 
971	 0.401264425338353 
972	 0.400190481340036 
973	 0.400120493120229 
974	 0.400062349960912 
975	 0.39955646343068 
976	 0.399651047693882 
977	 0.399999324294442 
978	 0.398522411839909 
979	 0.398522326208778 
980	 0.399309236946568 
981	 0.399678007413935 
982	 0.398915792625563 
983	 0.398617410691577 
984	 0.398287761272553 
985	 0.398282892613343 
986	 0.39940483337669 
987	 0.39778044730026 
988	 0.398033233012396 
989	 0.399349629427837 
990	 0.397615264169223 
991	 0.400263598894578 
992	 0.400847793202475 
993	 0.399799476382841 
994	 0.401141489305954 
995	 0.399848532160087 
996	 0.399090850461034 
997	 0.399613771801161 
998	 0.400706526755861 
999	 0.402426643761605 
1000	 0.40241830771737 
1001	 0.398725356057584 
1002	 0.399258042800428 
1003	 0.399770027420273 
1004	 0.40047002898449 
1005	 0.400944881065025 
1006	 0.401216369416767 
1007	 0.401616372222418 
1008	 0.401995293191543 
1009	 0.402430379123601 
1010	 0.40293926192615 
1011	 0.403392450727949 
1012	 0.403792260936206 
1013	 0.404244566506825 
1014	 0.404626117433861 
1015	 0.404880163865233 
1016	 0.40520518076252 
1017	 0.405577623890809 
1018	 0.405981564788382 
1019	 0.406428017522849 
1020	 0.406884214801601 
1021	 0.407391432092946 
1022	 0.4078748906632 
1023	 0.408332385638651 
1024	 0.408851660964572 
1025	 0.409427378495429 
1026	 0.409793913495079 
1027	 0.41006786621167 
1028	 0.410499405514717 
1029	 0.410777336967159 
1030	 0.410959210475532 
1031	 0.411400888851333 
1032	 0.411713845141657 
1033	 0.412078719853128 
1034	 0.412579518615207 
1035	 0.413053649775053 
1036	 0.413498235099256 
1037	 0.413931597892164 
1038	 0.414411488813555 
1039	 0.414771606787964 
1040	 0.41502157630433 
1041	 0.415208018013581 
1042	 0.415417146109037 
1043	 0.415656977113295 
1044	 0.416072303842974 
1045	 0.416474451728742 
1046	 0.416852983419825 
1047	 0.417303118410134 
1048	 0.417445647003793 
1049	 0.417586177283531 
1050	 0.41784698833598 
1051	 0.418163484390523 
1052	 0.418308204688584 
1053	 0.418657032120131 
1054	 0.419032667356825 
1055	 0.419165024850531 
1056	 0.419381833563961 
1057	 0.419539025934984 
1058	 0.419616753847566 
1059	 0.419902151798991 
1060	 0.420146690896112 
1061	 0.420179561848505 
1062	 0.420217908610871 
1063	 0.420264363819044 
1064	 0.420256082302541 
1065	 0.420384872723438 
1066	 0.420672427628036 
1067	 0.421030571845262 
1068	 0.421264888734301 
1069	 0.421451827136744 
1070	 0.421470008425992 
1071	 0.421439448653463 
1072	 0.421391977613293 
1073	 0.421382913466136 
1074	 0.421477627667986 
1075	 0.421523854634634 
1076	 0.421502114609594 
1077	 0.421398655248006 
1078	 0.421354863264089 
1079	 0.421406439101901 
1080	 0.421527697577725 
1081	 0.421572537346048 
1082	 0.421653913065247 
1083	 0.421581917817163 
1084	 0.421540977054287 
1085	 0.421494398903278 
1086	 0.42144785100863 
1087	 0.421491430952769 
1088	 0.421556419024747 
1089	 0.421611769169449 
1090	 0.421633904773167 
1091	 0.421712712265402 
1092	 0.421885288295918 
1093	 0.421997599286701 
1094	 0.422167024736799 
1095	 0.422505636139014 
1096	 0.422730326924221 
1097	 0.422800232183398 
1098	 0.423040353631407 
1099	 0.423399092806862 
1100	 0.423608729114229 
1101	 0.423873420704 
1102	 0.424100171188965 
1103	 0.424195679421601 
1104	 0.424427099468031 
1105	 0.424695265427164 
1106	 0.425094617115513 
1107	 0.425718277799029 
1108	 0.426329302542083 
1109	 0.427062091488121 
1110	 0.427903663134818 
1111	 0.428814613376015 
1112	 0.429814321817773 
1113	 0.430979404509527 
1114	 0.432403777519859 
1115	 0.433850091309953 
1116	 0.435489233881329 
1117	 0.437201529053021 
1118	 0.438836348941839 
1119	 0.440545520731142 
1120	 0.442292117589627 
1121	 0.443729412970294 
1122	 0.44478835737548 
1123	 0.445426579109221 
1124	 0.445628948163197 
1125	 0.44545616359681 
1126	 0.444761135912924 
1127	 0.443735034659428 
1128	 0.442218791232862 
1129	 0.440061613792589 
1130	 0.437951102882916 
1131	 0.435578302883396 
1132	 0.433341386313565 
1133	 0.431087137430634 
1134	 0.428759160656571 
1135	 0.426656500370772 
1136	 0.424497350329903 
1137	 0.42223585441433 
1138	 0.420100379832663 
1139	 0.418096662100938 
1140	 0.416150674099942 
1141	 0.414400653728112 
1142	 0.412781136535223 
1143	 0.410984318655565 
1144	 0.409244855709844 
1145	 0.407184837634964 
1146	 0.404919454401841 
1147	 0.402569888266113 
1148	 0.40010281262149 
1149	 0.39764958211388 
1150	 0.395314694369709 
1151	 0.39287085785356 
1152	 0.390460949057589 
1153	 0.388011026163365 
1154	 0.385622432881602 
1155	 0.383396525957688 
1156	 0.381365848518839 
1157	 0.379467115838563 
1158	 0.377715979979442 
1159	 0.376119017823759 
1160	 0.374714270862639 
1161	 0.373443449064735 
1162	 0.372323907926821 
1163	 0.371348913494152 
1164	 0.370472320953253 
1165	 0.369744149390838 
1166	 0.368993276571752 
1167	 0.368211963754409 
1168	 0.367561765761958 
1169	 0.366952988202226 
1170	 0.366416888435296 
1171	 0.365966967284529 
1172	 0.365702987368298 
1173	 0.365406364150702 
1174	 0.364994104821367 
1175	 0.364654702078946 
1176	 0.36434881675969 
1177	 0.364066200408473 
1178	 0.363843155070903 
1179	 0.363596186714662 
1180	 0.363339573229353 
1181	 0.363110740732186 
1182	 0.36291330953238 
1183	 0.362663198676487 
1184	 0.362450450972008 
1185	 0.362181655721865 
1186	 0.361861740574068 
1187	 0.361518592995499 
1188	 0.361154516419343 
1189	 0.360721284994764 
1190	 0.3603565594105 
1191	 0.360076955541405 
1192	 0.359868980223354 
1193	 0.359760597900371 
1194	 0.359616876809856 
1195	 0.359455057946258 
1196	 0.359386380997603 
1197	 0.359378609045108 
1198	 0.359362683488434 
1199	 0.359437403249275 
1200	 0.359436640595264 
1201	 0.359332592198262 
1202	 0.359363733625376 
1203	 0.359461568869285 
1204	 0.359533639083684 
1205	 0.359715372783198 
1206	 0.359819450542633 
1207	 0.359824679883462 
1208	 0.35988061728627 
1209	 0.359981814867024 
1210	 0.359998755289846 
1211	 0.360059474495394 
1212	 0.360152946112656 
1213	 0.360286213767047 
1214	 0.360468384015201 
1215	 0.36061235753921 
1216	 0.3607667718147 
1217	 0.360941530306759 
1218	 0.361099353686155 
1219	 0.361271557693958 
1220	 0.361466247876001 
1221	 0.361692021039907 
1222	 0.361958494206166 
1223	 0.362166724404681 
1224	 0.362382380226703 
1225	 0.362607472272031 
1226	 0.362763052532099 
1227	 0.362954868144422 
1228	 0.363196894585885 
1229	 0.363425274008403 
1230	 0.363680425447278 
1231	 0.363994306030138 
1232	 0.364221653898709 
1233	 0.364443337787992 
1234	 0.364694052217293 
1235	 0.364886407529983 
1236	 0.365133549386975 
1237	 0.3654375912828 
1238	 0.36574864367121 
1239	 0.366097469078975 
1240	 0.366378550780598 
1241	 0.366680892167016 
1242	 0.366949940565728 
1243	 0.367091244184079 
1244	 0.367334605868627 
1245	 0.367663157143598 
1246	 0.367940523678604 
1247	 0.368240838052793 
1248	 0.36851624681532 
1249	 0.368734996323535 
1250	 0.368985427623254 
1251	 0.369286250864842 
1252	 0.369528395642862 
1253	 0.369750205962641 
1254	 0.369962503061568 
1255	 0.370174824619485 
1256	 0.370344385766768 
1257	 0.370533460447274 
1258	 0.370756259539306 
1259	 0.370933785551759 
1260	 0.371076961625076 
1261	 0.371230573241357 
1262	 0.371323249156714 
1263	 0.371519700583493 
1264	 0.371824939190813 
1265	 0.37201673181716 
1266	 0.372255237636642 
1267	 0.372400680240305 
1268	 0.372404265704383 
1269	 0.372423993544737 
1270	 0.372405093205236 
1271	 0.372398695751044 
1272	 0.372403610684106 
1273	 0.372359067816641 
1274	 0.372292374681573 
1275	 0.372217331755272 
1276	 0.372129326701912 
1277	 0.372001981371404 
1278	 0.371868007500107 
1279	 0.37174615997398 
1280	 0.371582935254615 
1281	 0.371351936131876 
1282	 0.371174782221112 
1283	 0.371057359276476 
1284	 0.370831453295056 
1285	 0.370579410341037 
1286	 0.370298273463633 
1287	 0.369933971235061 
1288	 0.3695751650721 
1289	 0.369215844287142 
1290	 0.368836580745256 
1291	 0.368411098446113 
1292	 0.367993459723064 
1293	 0.367581540972173 
1294	 0.367149856140147 
1295	 0.366706578702371 
1296	 0.366254710912422 
1297	 0.365736783538711 
1298	 0.365208842815642 
1299	 0.364564104463909 
1300	 0.363793904245102 
1301	 0.363103384925966 
1302	 0.36235788402475 
1303	 0.36164632292889 
1304	 0.361031538698894 
1305	 0.360262350580549 
1306	 0.359363086650032 
1307	 0.35855488428271 
1308	 0.357754399497359 
1309	 0.356883507605409 
1310	 0.356070257823121 
1311	 0.355135909720402 
1312	 0.354043137927272 
1313	 0.352981786877361 
1314	 0.351910521740689 
1315	 0.350800034989778 
1316	 0.349686024657557 
1317	 0.348504542588488 
1318	 0.347219884174299 
1319	 0.345971128183628 
1320	 0.34463334085256 
1321	 0.343340118524776 
1322	 0.342164732793903 
1323	 0.341063920061761 
1324	 0.339936827907026 
1325	 0.338873405396747 
1326	 0.337778089323668 
1327	 0.336660132538294 
1328	 0.335502836353463 
1329	 0.334395590445965 
1330	 0.333131556153146 
1331	 0.331756712010944 
1332	 0.330357538793072 
1333	 0.328863884519525 
1334	 0.327418281774974 
1335	 0.325865160550016 
1336	 0.324498012743606 
1337	 0.323060015495561 
1338	 0.321920754626099 
1339	 0.320910229651163 
1340	 0.320140459259803 
1341	 0.319675354667893 
1342	 0.319302730686439 
1343	 0.319225410764997 
1344	 0.319235957402157 
1345	 0.319403546868348 
1346	 0.319909901222879 
1347	 0.32089244133003 
1348	 0.32231011172051 
1349	 0.32384745842016 
1350	 0.326352164605026 
1351	 0.328794851441261 
1352	 0.331433972636996 
1353	 0.334832817285105 
1354	 0.338757222785031 
1355	 0.344011742101853 
1356	 0.349179511384334 
1357	 0.357219928056747 
1358	 0.365064244320931 
1359	 0.37637580955841 
1360	 0.379541873028652 
1361	 0.391644543409271 
1362	 0.394713216084518 
1363	 0.403473574812933 
1364	 0.41096340234509 
1365	 0.410507070104903 
1366	 0.393347195859341 
1367	 0.385182858910638 
1368	 0.382477751160902 
1369	 0.375756113043999 
1370	 0.366439797996941 
1371	 0.363930572504683 
1372	 0.364270403591744 
1373	 0.361061997000167 
1374	 0.356787391582602 
1375	 0.358925604243059 
1376	 0.354009138531849 
1377	 0.34248297455038 
1378	 0.336128737157848 
1379	 0.329640016253769 
1380	 0.323552914995377 
1381	 0.321312827525623 
1382	 0.310368033360717 
1383	 0.29606243489858 
1384	 0.284004259734766 
1385	 0.269363005313478 
1386	 0.258391115905268 
1387	 0.252316625930084 
1388	 0.243891130473302 
1389	 0.23435758931827 
1390	 0.227317363366189 
1391	 0.220333344737159 
1392	 0.215369977191513 
1393	 0.215276895138846 
1394	 0.208414862611436 
1395	 0.198421714543575 
1396	 0.190903973163391 
1397	 0.180734725058005 
1398	 0.172349042556427 
1399	 0.166511403868234 
1400	 0.160424205801641 
1401	 0.153973605348641 
1402	 0.147791949127111 
1403	 0.142405142608066 
1404	 0.137699964363594 
1405	 0.132836498657219 
1406	 0.129673170342619 
1407	 0.126895782431461 
1408	 0.123458247466093 
1409	 0.119081317433233 
1410	 0.114615626935248 
1411	 0.111207553569869 
1412	 0.107959162774845 
1413	 0.105329778577695 
1414	 0.103257264506728 
1415	 0.101288623394479 
1416	 9.94893885223907E-02 
1417	 9.78349067075918E-02 
1418	 9.65138109977042E-02 
1419	 9.50088112680236E-02 
1420	 9.35006716545513E-02 
1421	 9.20153629568488E-02 
1422	 9.02113581418093E-02 
1423	 8.91262767273003E-02 
1424	 8.83579402692957E-02 
1425	 8.75177063133463E-02 
1426	 8.70363471114399E-02 
1427	 8.63349558296361E-02 
1428	 8.52559414715896E-02 
1429	 8.45013560535792E-02 
1430	 8.39487342735643E-02 
1431	 8.32794573700668E-02 
1432	 0.082617909874317 
1433	 8.20429618318626E-02 
1434	 8.13708904725444E-02 
1435	 8.08073286494432E-02 
1436	 8.03877711864472E-02 
1437	 8.00173632451473E-02 
1438	 7.97380615194612E-02 
1439	 7.94437013154288E-02 
1440	 7.93045696896629E-02 
1441	 0.078981244185265 
1442	 7.86323371737969E-02 
1443	 7.80980801714697E-02 
1444	 7.75394833387625E-02 
1445	 0.077097450887548 
1446	 7.65906806762747E-02 
1447	 7.62179280407869E-02 
1448	 7.58465706770846E-02 
1449	 7.54938021863662E-02 
1450	 7.51774631188698E-02 
1451	 7.49028501994661E-02 
1452	 7.46879832860098E-02 
1453	 7.44278983020742E-02 
1454	 7.44041117573706E-02 
1455	 7.45508152216126E-02 
1456	 7.45465828695237E-02 
1457	 7.46498077974158E-02 
1458	 7.45906309087164E-02 
1459	 7.42248089127538E-02 
1460	 0.074288998921093 
1461	 7.44797637323909E-02 
1462	 7.47821130753751E-02 
1463	 7.54998898815555E-02 
1464	 7.59385300365297E-02 
1465	 7.61939703783707E-02 
1466	 7.67142164233291E-02 
1467	 7.73475278382475E-02 
1468	 7.79281619209039E-02 
1469	 7.87214223906695E-02 
1470	 7.93148015082891E-02 
1471	 7.94921382252457E-02 
1472	 8.00669671424053E-02 
1473	 8.08951259995186E-02 
1474	 8.14772511845072E-02 
1475	 8.20849476600651E-02 
1476	 8.26662157476937E-02 
1477	 8.29979387239247E-02 
1478	 8.34723620053575E-02 
1479	 8.41137678413352E-02 
1480	 8.46617694192744E-02 
1481	 8.50777617163918E-02 
1482	 8.56316055788083E-02 
1483	 8.62043690667096E-02 
1484	 8.68274318821815E-02 
1485	 8.76014572487233E-02 
1486	 8.82683512914886E-02 
1487	 8.88476173417674E-02 
1488	 8.95134161507717E-02 
1489	 9.00631281495461E-02 
1490	 9.05162128814477E-02 
1491	 9.11603448233495E-02 
1492	 9.17015365020711E-02 
1493	 9.22035158470918E-02 
1494	 9.28840265227822E-02 
1495	 9.34940278333669E-02 
1496	 0.094043455270471 
1497	 9.47304053553392E-02 
1498	 9.54991996614585E-02 
1499	 9.62954025586996E-02 
1500	 9.72022243462851E-02 
1501	 9.80102970515887E-02 
1502	 9.88215340947618E-02 
1503	 0.099642560264482 
1504	 0.100399070832422 
1505	 0.101245897046135 
1506	 0.102168039117436 
1507	 0.103048661415096 
1508	 0.103935262331219 
1509	 0.104816324567512 
1510	 0.105661145016429 
1511	 0.106578532272612 
1512	 0.107561408587844 
1513	 0.10847615325225 
1514	 0.109401894832167 
1515	 0.1103336143378 
1516	 0.111201066067669 
1517	 0.112161372203358 
1518	 0.113228849712369 
1519	 0.114214036842745 
1520	 0.115186319990138 
1521	 0.116181074079746 
1522	 0.117200269573358 
1523	 0.118142061008138 
1524	 0.119068764046621 
1525	 0.119984096821996 
1526	 0.120771140621395 
1527	 0.12169464342398 
1528	 0.122717653337176 
1529	 0.12370996908211 
1530	 0.124776725087502 
1531	 0.12577763368165 
1532	 0.126726016691032 
1533	 0.127704415425314 
1534	 0.128653842002039 
1535	 0.129647484917539 
1536	 0.130715398528475 
1537	 0.131715499004886 
1538	 0.13267529057416 
1539	 0.133678040830991 
1540	 0.134652902921994 
1541	 0.135661302644154 
1542	 0.136791748577858 
1543	 0.137800472304024 
1544	 0.138718228504524 
1545	 0.13967937130363 
1546	 0.140553134401454 
1547	 0.14151922314658 
1548	 0.142637348677686 
1549	 0.143638786426346 
1550	 0.144597793058437 
1551	 0.14557936951394 
1552	 0.146487328224957 
1553	 0.147437977208226 
1554	 0.148517670419123 
1555	 0.149477247680323 
1556	 0.150351229600053 
1557	 0.151238786988079 
1558	 0.15199438282274 
1559	 0.152863502709064 
1560	 0.15387653712215 
1561	 0.154804068107871 
1562	 0.155771828417663 
1563	 0.156687743510557 
1564	 0.157485557211156 
1565	 0.158317854057283 
1566	 0.159266995254793 
1567	 0.160110674018478 
1568	 0.160990730662102 
1569	 0.161910420288118 
1570	 0.162772741974576 
1571	 0.163577831883271 
1572	 0.164431330786247 
1573	 0.165286735838082 
1574	 0.166140067421928 
1575	 0.166997156684463 
1576	 0.167838867785595 
1577	 0.168675413477695 
1578	 0.169457154735685 
1579	 0.17018655273786 
1580	 0.170969149003904 
1581	 0.171727743946063 
1582	 0.172506371854105 
1583	 0.173339819647253 
1584	 0.174105366281813 
1585	 0.174829879319194 
1586	 0.175571230715555 
1587	 0.176298957788546 
1588	 0.177055989800586 
1589	 0.177844629152211 
1590	 0.178565420092938 
1591	 0.179281744356926 
1592	 0.179973373200694 
1593	 0.180603995942598 
1594	 0.181276250256513 
1595	 0.181942993059482 
1596	 0.182680190980945 
1597	 0.183469687847272 
1598	 0.184201274083979 
1599	 0.18499955499431 
1600	 0.185666492912962 
1601	 0.186184360889753 
1602	 0.18687808244174 
1603	 0.18763284784935 
1604	 0.188287064840733 
1605	 0.189017884930185 
1606	 0.18958807249134 
1607	 0.18994342172592 
1608	 0.190505534318298 
1609	 0.191079525620178 
1610	 0.1917274188219 
1611	 0.19252604870894 
1612	 0.193154248083022 
1613	 0.193773687890645 
1614	 0.194297970245579 
1615	 0.194667836295649 
1616	 0.195175000288168 
1617	 0.195684788331 
1618	 0.196226092884096 
1619	 0.196864438582044 
1620	 0.197385553314809 
1621	 0.197842568111377 
1622	 0.19835846507459 
1623	 0.198876038428996 
1624	 0.199353960628234 
1625	 0.19986902616253 
1626	 0.200291354495031 
1627	 0.200575767928916 
1628	 0.201029594519467 
1629	 0.201538323964242 
1630	 0.202058308035137 
1631	 0.202741063768577 
1632	 0.203148814810194 
1633	 0.203393267810349 
1634	 0.203757257493055 
1635	 0.204022877571418 
1636	 0.204401148856138 
1637	 0.20490969414159 
1638	 0.205359528777481 
1639	 0.205839473430837 
1640	 0.206149953431102 
1641	 0.20638872151825 
1642	 0.206655060558921 
1643	 0.206760982306682 
1644	 0.207027560975892 
1645	 0.207446297757004 
1646	 0.207745013238334 
1647	 0.207974566894015 
1648	 0.208316157434864 
1649	 0.208738776029127 
1650	 0.208963955311493 
1651	 0.209151046772297 
1652	 0.209385623056877 
1653	 0.209480066063828 
1654	 0.209699495991817 
1655	 0.210060192384322 
1656	 0.210321547395691 
1657	 0.210554492648335 
1658	 0.210664388522175 
1659	 0.210867811821402 
1660	 0.21090555009269 
1661	 0.210846879108202 
1662	 0.211038814524827 
1663	 0.211190958881932 
1664	 0.211338684775563 
1665	 0.211606890536458 
1666	 0.211666300352609 
1667	 0.21168790842376 
1668	 0.211836037890855 
1669	 0.211780064163145 
1670	 0.211874815073785 
1671	 0.212134109216324 
1672	 0.212167160862259 
1673	 0.212311796767818 
1674	 0.212345137600276 
1675	 0.212250699516928 
1676	 0.212343744533127 
1677	 0.212348612432149 
1678	 0.212422427409472 
1679	 0.212441263690737 
1680	 0.212256602797817 
1681	 0.212216781443547 
1682	 0.212012736596382 
1683	 0.211694059776358 
1684	 0.211603839144017 
1685	 0.211546708476582 
1686	 0.211625292984414 
1687	 0.211722779930956 
1688	 0.211513817832531 
1689	 0.211205538062072 
1690	 0.210839795283278 
1691	 0.210625669209687 
1692	 0.210662582567642 
1693	 0.210551362938556 
1694	 0.210418297551812 
1695	 0.210240714942195 
1696	 0.209969033500493 
1697	 0.209694336794499 
1698	 0.209392086705334 
1699	 0.209126843449418 
1700	 0.208869786236322 
1701	 0.208592283680497 
1702	 0.208258151450258 
1703	 0.208005815731367 
1704	 0.207791789403185 
1705	 0.207545264479751 
1706	 0.2074114765701 
1707	 0.207149932247676 
1708	 0.206776875465204 
1709	 0.206440846288438 
1710	 0.206079212192519 
1711	 0.205743805671754 
1712	 0.205412285436821 
1713	 0.205041316684643 
1714	 0.204641933437213 
1715	 0.204242984986389 
1716	 0.20382730461762 
1717	 0.203478080110934 
1718	 0.203160013280218 
1719	 0.202820752602819 
1720	 0.202555240683242 
1721	 0.202150219822739 
1722	 0.201636270694732 
1723	 0.201141083787253 
1724	 0.200584260392779 
1725	 0.200019995138805 
1726	 0.199474670505038 
1727	 0.198965550264229 
1728	 0.198390446204347 
1729	 0.197941240733205 
1730	 0.197566318094215 
1731	 0.197099346375706 
1732	 0.196674779217873 
1733	 0.196166231884046 
1734	 0.195951747073803 
1735	 0.195753590373796 
1736	 0.195394251328341 
1737	 0.194982620850553 
1738	 0.194438309981362 
1739	 0.193692597270033 
1740	 0.193092898658951 
1741	 0.192647723397728 
1742	 0.192047618459484 
1743	 0.191586834946562 
1744	 0.191122811554181 
1745	 0.190529854311725 
1746	 0.189987016734922 
1747	 0.189372472423103 
1748	 0.188712596848834 
1749	 0.187969469633739 
1750	 0.187200040721666 
1751	 0.186488462848221 
1752	 0.185946669327861 
1753	 0.18561381130689 
1754	 0.185161475044595 
1755	 0.184506399153954 
1756	 0.183743664858955 
1757	 0.182822961639633 
1758	 0.182171597030209 
1759	 0.181979208785377 
1760	 0.181449663813693 
1761	 0.180645110649723 
1762	 0.18015955715762 
1763	 0.179688057142988 
1764	 0.179241642546974 
1765	 0.179204685327895 
1766	 0.17883268178163 
1767	 0.177986227172306 
1768	 0.177567034012923 
1769	 0.177321326845585 
1770	 0.176985947409395 
1771	 0.176829672973839 
1772	 0.176605348383374 
1773	 0.176243077710782 
1774	 0.176171763876342 
1775	 0.176353105012893 
1776	 0.17627871264126 
1777	 0.17589535431598 
1778	 0.175732417050256 
1779	 0.17537270932354 
1780	 0.175111122019188 
1781	 0.175081458942571 
1782	 0.175089011820304 
1783	 0.175463068152742 
1784	 0.175742237614022 
1785	 0.176044812444618 
1786	 0.176370342160819 
1787	 0.176486732807935 
1788	 0.176943269526628 
1789	 0.177401149091362 
1790	 0.177640266333199 
1791	 0.177526818562829 
1792	 0.177654789574715 
1793	 0.178407207778326 
1794	 0.179273952296664 
1795	 0.180460566623561 
1796	 0.181476436855517 
1797	 0.182016259609465 
1798	 0.182600501988155 
1799	 0.183639747391038 
1800	 0.184785285281951 
1801	 0.183051929441343 
1802	 0.18468775009946 
1803	 0.186063406689427 
1804	 0.187241229359306 
1805	 0.188793359374999 
1806	 0.190720907877342 
1807	 0.192302783209769 
1808	 0.194387037987273 
1809	 0.195725336970986 
1810	 0.196521001864363 
1811	 0.195641512073877 
1812	 0.196518127557119 
1813	 0.196767319257428 
1814	 0.198801074480557 
1815	 0.20520327725596 
1816	 0.208124526703829 
1817	 0.209337890676496 
1818	 0.211635051793627 
1819	 0.213371343783433 
1820	 0.212731123424237 
1821	 0.211685401700058 
1822	 0.210522583299932 
1823	 0.209502553401232 
1824	 0.202657958017498 
1825	 0.201200148919882 
1826	 0.206649247243555 
1827	 0.210465544973152 
1828	 0.21602372609438 
1829	 0.225438976759309 
1830	 0.238919173223456 
1831	 0.260356918328793 
1832	 0.281491377498658 
1833	 0.320461425298589 
1834	 0.352129052846016 
1835	 0.347036810268619 
1836	 0.361397816933062 
1837	 0.357876381838327 
1838	 0.35291708575106 
1839	 0.344895819605494 
1840	 0.345783242405691 
1841	 0.326723676361453 
1842	 0.276465668749734 
1843	 0.268056856162662 
1844	 0.279093540932222 
1845	 0.280151030783191 
1846	 0.316543648470573 
1847	 0.313107746784635 
1848	 0.290850412943421 
1849	 0.221843541095786 
1850	 0.212579031109593 
1851	 0.199888466511618 
1852	 0.212850975157126 
1853	 0.304776592093838 
1854	 0.339580920133041 
1855	 0.366419994518315 
1856	 0.356735432140353 
1857	 0.301429634849284 
1858	 0.266053078270786 
1859	 0.248135941967924 
1860	 0.228472843403851 
1861	 0.209928737137547 
1862	 0.188349646316853 
1863	 0.189111513450951 
1864	 0.19899214998161 
1865	 0.202916920331071 
1866	 0.219587267346078 
1867	 0.271117988211449 
1868	 0.272594334582971 
1869	 0.247187035229711 
1870	 0.227972702413607 
1871	 0.196895216750362 
1872	 0.180188689339042 
1873	 0.155207956101944 
1874	 0.151199192319095 
1875	 0.182913487145279 
1876	 0.1764535170328 
1877	 0.156837693296997 
1878	 0.151718524610193 
1879	 0.140606122513588 
1880	 0.123492285996271 
1881	 0.115727208691939 
1882	 0.114983938568637 
1883	 0.10909332789887 
1884	 0.102816309503537 
1885	 9.56560990457829E-02 
1886	 8.15182962353896E-02 
1887	 7.84337508004302E-02 
1888	 7.84352730137017E-02 
1889	 8.16353705210178E-02 
1890	 8.58775418645479E-02 
1891	 0.101751584556703 
1892	 0.101586323908036 
1893	 0.092229486706122 
1894	 8.65947843024567E-02 
1895	 7.12446169994609E-02 
1896	 6.27237628695339E-02 
1897	 5.81530218342604E-02 
1898	 5.25524744553962E-02 
1899	 0.053205630898038 
1900	 6.22769253993576E-02 
1901	 6.61627231762122E-02 
1902	 7.92336494440169E-02 
1903	 8.65585039129669E-02 
1904	 8.34161830272784E-02 
1905	 8.16553820611404E-02 
1906	 9.18141103712142E-02 
1907	 7.26085151692846E-02 
1908	 5.35994951092851E-02 
1909	 0.054948859309024 
1910	 0.040756812111338 
1911	 4.99642322400211E-02 
1912	 5.43283073039001E-02 
1913	 5.87324504909767E-02 
1914	 5.88099599580495E-02 
1915	 6.13639805441689E-02 
1916	 5.88419962774739E-02 
1917	 5.32018871540432E-02 
1918	 5.26540352028347E-02 
1919	 4.37161873641239E-02 
1920	 4.03980547317594E-02 
1921	 3.89370725749296E-02 
1922	 3.79656907603782E-02 
1923	 3.77689593600093E-02 
1924	 3.98306745880933E-02 
1925	 4.04942505244262E-02 
1926	 4.16899130788687E-02 
1927	 0.040274221793081 
1928	 3.69497267658986E-02 
1929	 3.91281827117843E-02 
1930	 3.45911910702673E-02 
1931	 2.54464277781934E-02 
1932	 2.30407156237744E-02 
1933	 2.13792823609905E-02 
1934	 2.16000730007378E-02 
1935	 2.54789903161654E-02 
1936	 2.76846739325505E-02 
1937	 3.11062075220693E-02 
1938	 3.11564905618608E-02 
1939	 2.98085371949442E-02 
1940	 2.88676942802268E-02 
1941	 2.59388524747259E-02 
1942	 2.48228314178668E-02 
1943	 2.59613381668555E-02 
1944	 2.64172504758591E-02 
1945	 2.75481801069634E-02 
1946	 2.82150212740721E-02 
1947	 2.85813678200458E-02 
1948	 2.87026622484582E-02 
1949	 2.88690694216152E-02 
1950	 2.92423281951218E-02 
1951	 2.83064378781116E-02 
1952	 2.88455045054097E-02 
1953	 2.77566963216775E-02 
1954	 2.68356549369637E-02 
1955	 2.77054891319502E-02 
1956	 2.70244592186553E-02 
1957	 2.70600025880414E-02 
1958	 2.72227232560916E-02 
1959	 2.73968747835379E-02 
1960	 2.73922213729057E-02 
1961	 0.027301138356299 
1962	 2.80660953625481E-02 
1963	 2.81821276829602E-02 
1964	 2.86270140242634E-02 
1965	 2.89226646773398E-02 
1966	 2.82822475274416E-02 
1967	 2.79748800459288E-02 
1968	 2.77960730675691E-02 
1969	 0.027702947807919 
1970	 0.027860468179488 
1971	 2.80654721712565E-02 
1972	 0.028362811785844 
1973	 2.83257763243792E-02 
1974	 2.85432084957246E-02 
1975	 2.84041763669748E-02 
1976	 2.79162795773121E-02 
1977	 2.84491712671736E-02 
1978	 2.91238679624864E-02 
1979	 2.96611636283759E-02 
1980	 3.04062619696811E-02 
1981	 3.05925199731461E-02 
1982	 3.07326254727889E-02 
1983	 0.030580195166684 
1984	 3.05787913149718E-02 
1985	 3.05891270371058E-02 
1986	 3.09999140329305E-02 
1987	 3.15716992810449E-02 
1988	 3.19824959699054E-02 
1989	 3.24935248018018E-02 
1990	 3.25801991800902E-02 
1991	 3.24496660834293E-02 
1992	 3.28372343906806E-02 
1993	 3.29050910389258E-02 
1994	 3.28675111569341E-02 
1995	 3.32005223927813E-02 
1996	 3.38813810188805E-02 
1997	 3.42251680114537E-02 
1998	 3.49882194544963E-02 
1999	 3.61794191471685E-02 
2000	 3.65428998046592E-02 
2001	 3.67288457822773E-02 
2002	 3.68760094885887E-02 
2003	 3.68170862526744E-02 
2004	 3.69704954866256E-02 
2005	 3.67021936609686E-02 
2006	 3.67800673849537E-02 
2007	 3.68662222525952E-02 
2008	 3.71996949868692E-02 
2009	 3.76880086127477E-02 
2010	 3.87219844155915E-02 
2011	 0.039077219894239 
2012	 0.038800322786131 
2013	 3.86602139865753E-02 
2014	 3.89497893964144E-02 
2015	 3.98685020225871E-02 
2016	 4.06902235031609E-02 
2017	 0.041092671411202 
2018	 4.12772021522908E-02 
2019	 4.14875797745792E-02 
2020	 0.041267972173863 
2021	 4.16022124554056E-02 
2022	 4.23502272192453E-02 
2023	 4.28176384119667E-02 
2024	 4.33971474144682E-02 
2025	 4.39234364381974E-02 
2026	 4.39991891406349E-02 
2027	 4.40664478321483E-02 
2028	 4.42448532049277E-02 
2029	 4.43790452295003E-02 
2030	 4.47580009913649E-02 
2031	 4.50554975315778E-02 
2032	 4.52819225705175E-02 
2033	 4.54066989610315E-02 
2034	 4.55888322475712E-02 
2035	 4.60039121317506E-02 
2036	 4.65625429747562E-02 
2037	 4.70006443817414E-02 
2038	 4.74879868394726E-02 
2039	 4.75980191257224E-02 
2040	 4.76800406890088E-02 
2041	 4.80865626630353E-02 
2042	 4.82903228238823E-02 
2043	 4.86818374259945E-02 
2044	 4.92998298339121E-02 
2045	 0.049482086173261 
2046	 4.93906153355589E-02 
2047	 0.049305847195939 
2048	 4.94650036854748E-02 
2049	 4.93155006585493E-02 
2050	 4.99351867708878E-02 
2051	 5.12879308146779E-02 
2052	 5.19908885568766E-02 
2053	 5.28328500492768E-02 
2054	 5.36322080634115E-02 
2055	 5.37111669948478E-02 
2056	 0.053702512012529 
2057	 5.39352639021291E-02 
2058	 5.46490134151595E-02 
2059	 5.50960451309299E-02 
2060	 5.57679592233798E-02 
2061	 5.60522227527796E-02 
2062	 5.58264153780678E-02 
2063	 0.055244698513456 
2064	 5.48920103544948E-02 
2065	 5.53381060709372E-02 
2066	 5.64941260311383E-02 
2067	 5.76051634957945E-02 
2068	 5.84455532286698E-02 
2069	 5.91920020171583E-02 
2070	 5.92537404939041E-02 
2071	 5.91089229137956E-02 
2072	 5.93404237832158E-02 
2073	 5.96546277657257E-02 
2074	 5.98266889165226E-02 
2075	 0.060202024686182 
2076	 6.05712959368404E-02 
2077	 6.06791734182857E-02 
2078	 0.060999349163244 
2079	 6.14392811272348E-02 
2080	 6.19671244748792E-02 
2081	 6.26142271447762E-02 
2082	 6.27421812545382E-02 
2083	 6.26212357739886E-02 
2084	 6.32474386514196E-02 
2085	 6.36235480101222E-02 
2086	 0.063977470528292 
2087	 6.46389580943766E-02 
2088	 6.58884208172204E-02 
2089	 6.61606634167612E-02 
2090	 6.64183425178857E-02 
2091	 6.69707540499937E-02 
2092	 6.69952155499449E-02 
2093	 6.75078942227536E-02 
2094	 6.80681957560756E-02 
2095	 6.81120509757416E-02 
2096	 6.85656430294797E-02 
2097	 6.91227556278241E-02 
2098	 6.94848246823471E-02 
2099	 0.070555173119829 
2100	 7.14743331174291E-02 
2101	 7.17418135304579E-02 
2102	 7.21069959595598E-02 
2103	 7.24818579731356E-02 
2104	 7.24484602439781E-02 
2105	 7.25610602060947E-02 
2106	 7.32154496185022E-02 
2107	 7.35571592811545E-02 
2108	 7.39803768365292E-02 
2109	 7.41960025437509E-02 
2110	 7.37538006401663E-02 
2111	 7.36123355935034E-02 
2112	 7.41111825508924E-02 
2113	 0.074665013060644 
2114	 7.54128042740985E-02 
2115	 7.64753920980125E-02 
2116	 7.71348194328643E-02 
2117	 7.74857042773668E-02 
2118	 7.75394277057465E-02 
2119	 7.77552517872182E-02 
2120	 7.77158895196869E-02 
2121	 7.75925096198728E-02 
2122	 7.80628015511044E-02 
2123	 0.078696804105206 
2124	 7.91593433759001E-02 
2125	 7.96536849979458E-02 
2126	 0.080007571080454 
2127	 8.04601640151251E-02 
2128	 8.10912468572916E-02 
2129	 8.15535056304842E-02 
2130	 8.19494944891945E-02 
2131	 0.082448207925132 
2132	 8.26401398727739E-02 
2133	 8.30959804748703E-02 
2134	 8.35382875630961E-02 
2135	 8.41455471902897E-02 
2136	 0.084263164500988 
2137	 8.48717976063479E-02 
2138	 8.54068048694065E-02 
2139	 8.58070120861067E-02 
2140	 8.63556099346077E-02 
2141	 8.62870753467541E-02 
2142	 8.61267865150213E-02 
2143	 8.59715522096915E-02 
2144	 8.60555531285376E-02 
2145	 8.65245997492544E-02 
2146	 8.70949298130812E-02 
2147	 8.77051597208758E-02 
2148	 8.80617376502456E-02 
2149	 8.84831879555363E-02 
2150	 8.84981673989144E-02 
2151	 8.85609155208708E-02 
2152	 8.84850085074925E-02 
2153	 8.87965791600992E-02 
2154	 8.91285846434412E-02 
2155	 8.97461169338271E-02 
2156	 9.05828187705054E-02 
2157	 9.06000784796948E-02 
2158	 9.04768984427837E-02 
2159	 9.07919675814431E-02 
2160	 9.11856684990683E-02 
2161	 9.15898759962595E-02 
2162	 9.18341129114065E-02 
2163	 9.19257071045975E-02 
2164	 9.14665711683539E-02 
2165	 9.16519543710136E-02 
2166	 9.27722640176354E-02 
2167	 9.29534608860369E-02 
2168	 9.31835160404056E-02 
2169	 9.34927580216324E-02 
2170	 9.37550749995233E-02 
2171	 9.34967869939564E-02 
2172	 9.41342495556983E-02 
2173	 9.49067595927068E-02 
2174	 9.54952120571383E-02 
2175	 9.60995528164836E-02 
2176	 9.62268720176867E-02 
2177	 0.095985788417003 
2178	 9.53677351012389E-02 
2179	 0.094733741227216 
2180	 9.45343374194169E-02 
2181	 0.094560427431447 
2182	 9.49113290089108E-02 
2183	 9.52661859414893E-02 
2184	 9.53240186184029E-02 
2185	 9.56294884805574E-02 
2186	 9.59080885129793E-02 
2187	 0.095995223870846 
2188	 9.59854627658946E-02 
2189	 9.60445090356711E-02 
2190	 0.095884487091708 
2191	 9.58906946870928E-02 
2192	 9.65046328176249E-02 
2193	 9.67504632855251E-02 
2194	 9.70634074722612E-02 
2195	 9.76392536422697E-02 
2196	 9.72386182253822E-02 
2197	 9.71954845876376E-02 
2198	 9.75749972682952E-02 
2199	 9.72219463462834E-02 
2200	 0.097282701744965 
2201	 9.74064499438359E-02 
2202	 9.71643649383116E-02 
2203	 9.74967882844185E-02 
2204	 0.098519619813301 
2205	 9.92264491906687E-02 
2206	 9.94244969577712E-02 
2207	 0.099650326166847 
2208	 9.96210882854352E-02 
2209	 9.88493722828575E-02 
2210	 9.85835119922126E-02 
2211	 9.85602305659954E-02 
2212	 9.84120851943179E-02 
2213	 9.80768516925041E-02 
2214	 9.81476663866328E-02 
2215	 9.86132794878398E-02 
2216	 9.89975272082931E-02 
2217	 9.96630189958406E-02 
2218	 0.100177116801494 
2219	 0.100672360014148 
2220	 0.100938657255538 
2221	 0.10064479227924 
2222	 0.100488700309903 
2223	 0.100043584907525 
2224	 9.98622471553119E-02 
2225	 0.10000791904303 
2226	 9.99141530173375E-02 
2227	 9.97660075850594E-02 
2228	 9.92463507635967E-02 
2229	 9.90004540620301E-02 
2230	 9.86169813907552E-02 
2231	 0.098425223105759 
2232	 0.098922931116083 
2233	 9.85386603371002E-02 
2234	 9.74412475701481E-02 
2235	 0.097185841050979 
2236	 9.71926229543881E-02 
2237	 9.70233019283211E-02 
2238	 9.75577943838004E-02 
2239	 9.75266166048881E-02 
2240	 9.68644100288113E-02 
2241	 9.61597153852864E-02 
2242	 9.58280104501825E-02 
2243	 0.095938868567466 
2244	 9.60051519536334E-02 
2245	 9.59063161570639E-02 
2246	 9.53109682396815E-02 
2247	 9.47775455458349E-02 
2248	 9.48661084559472E-02 
2249	 9.50176504408354E-02 
2250	 9.52348506552496E-02 
2251	 0.09519873391899 
2252	 9.45861010963006E-02 
2253	 9.37302048773384E-02 
2254	 9.31348053869025E-02 
2255	 9.29582038295368E-02 
2256	 9.24530463433747E-02 
2257	 9.20306806339655E-02 
2258	 9.09304443311964E-02 
2259	 8.98249092056053E-02 
2260	 0.089351476294118 
2261	 8.91808928898799E-02 
2262	 8.98196966028492E-02 
2263	 9.06684836156808E-02 
2264	 9.04101537865749E-02 
2265	 8.98765608083968E-02 
2266	 8.93096948983919E-02 
2267	 8.82700469232551E-02 
2268	 8.74362458898835E-02 
2269	 0.087197917559851 
2270	 8.71212617618329E-02 
2271	 8.64440929926002E-02 
2272	 8.62518178737115E-02 
2273	 8.54775277783896E-02 
2274	 8.44329836275377E-02 
2275	 8.49937238600346E-02 
2276	 8.46535544651308E-02 
2277	 8.45664755309475E-02 
2278	 8.45631068591728E-02 
2279	 8.35595670272268E-02 
2280	 8.34078902017186E-02 
2281	 8.29497932026685E-02 
2282	 8.26845430393489E-02 
2283	 8.25935950457962E-02 
2284	 8.24171209129088E-02 
2285	 8.29984826323481E-02 
2286	 8.27002364315258E-02 
2287	 8.17223538237173E-02 
2288	 8.11317995457836E-02 
2289	 8.13573363940274E-02 
2290	 8.08774890464542E-02 
2291	 8.11629306795729E-02 
2292	 8.14243980072745E-02 
2293	 8.00410873569484E-02 
2294	 7.90221541382162E-02 
2295	 7.93540027634924E-02 
2296	 7.90677066589614E-02 
2297	 7.91926868662936E-02 
2298	 7.94307274394646E-02 
2299	 7.88169865627092E-02 
2300	 7.90164658643013E-02 
2301	 7.96975891686103E-02 
2302	 8.00518804191031E-02 
2303	 0.079323436276939 
2304	 7.82352479930273E-02 
2305	 7.70529806879489E-02 
2306	 7.53585536554275E-02 
2307	 7.43051815099398E-02 
2308	 7.32840728026851E-02 
2309	 7.20037699724401E-02 
2310	 7.12570690497182E-02 
2311	 7.16986412540027E-02 
2312	 7.31556149783014E-02 
2313	 7.37176740480557E-02 
2314	 0.07413765442375 
2315	 7.46775522798395E-02 
2316	 0.073589805321239 
2317	 7.30517270444419E-02 
2318	 7.35835404357839E-02 
2319	 7.22538221342778E-02 
2320	 7.13011216833491E-02 
2321	 7.11548043940495E-02 
2322	 7.13246262459034E-02 
2323	 7.11318058369416E-02 
2324	 7.16147241899204E-02 
2325	 7.19229970308499E-02 
2326	 7.15521552089837E-02 
2327	 7.10700850062041E-02 
2328	 6.97727896476467E-02 
2329	 6.88769084748556E-02 
2330	 6.78180549614757E-02 
2331	 6.77046611922193E-02 
2332	 6.87178669866128E-02 
2333	 6.94653027929877E-02 
2334	 7.05705586764582E-02 
2335	 6.98831802608303E-02 
2336	 6.83690562839225E-02 
2337	 6.76304409576361E-02 
2338	 6.61099853489595E-02 
2339	 6.52357531212348E-02 
2340	 6.47739594380873E-02 
2341	 6.42580435600911E-02 
2342	 6.41284834272226E-02 
2343	 6.43285001704875E-02 
2344	 6.49907883519714E-02 
2345	 6.53373794535229E-02 
2346	 6.56341367342252E-02 
2347	 6.56722494732141E-02 
2348	 6.64626051588136E-02 
2349	 6.74701893145991E-02 
2350	 6.67907477197291E-02 
2351	 0.066092863570574 
2352	 6.44543075189868E-02 
2353	 6.17944846366886E-02 
2354	 6.17285184119435E-02 
2355	 6.17898606313205E-02 
2356	 6.00401637658683E-02 
2357	 6.15380956526502E-02 
2358	 6.21237187432081E-02 
2359	 5.96167566576554E-02 
2360	 6.00948908153971E-02 
2361	 5.93522274217429E-02 
2362	 5.78261181886332E-02 
2363	 5.86830554212709E-02 
2364	 5.96225663899914E-02 
2365	 6.01875233261001E-02 
2366	 6.02544229684407E-02 
2367	 6.07160883709584E-02 
2368	 6.02760004397097E-02 
2369	 0.059787601489351 
2370	 6.02985356818177E-02 
2371	 0.059443173253361 
2372	 5.90685816500645E-02 
2373	 5.93890409245342E-02 
2374	 5.92943275390469E-02 
2375	 5.90883915383019E-02 
2376	 5.88783095620512E-02 
2377	 5.75184739526879E-02 
2378	 5.65448722103369E-02 
2379	 5.58939181568624E-02 
2380	 5.53130646618042E-02 
2381	 5.58630590067299E-02 
2382	 5.52702875909061E-02 
2383	 5.31369838768988E-02 
2384	 5.26282286924639E-02 
2385	 5.25975021300271E-02 
2386	 5.21993730354464E-02 
2387	 0.053457576697049 
2388	 5.32671717014895E-02 
2389	 5.10907550532869E-02 
2390	 5.05593120282761E-02 
2391	 4.98479971958074E-02 
2392	 4.95619224199895E-02 
2393	 0.05087534934547 
2394	 5.00306078053964E-02 
2395	 4.89663421089098E-02 
2396	 4.76056510911081E-02 
2397	 4.40734490136508E-02 
2398	 4.41748743281589E-02 
2399	 4.49824955332884E-02 
2400	 4.63267766947529E-02 
2401	 5.15558982569446E-02 
2402	 5.24457232298088E-02 
2403	 4.99860441809962E-02 
2404	 4.97245016859726E-02 
2405	 4.69356349161638E-02 
2406	 4.50442258771945E-02 
2407	 0.047660365709114 
2408	 5.02265200525011E-02 
2409	 5.39271967626502E-02 
2410	 5.48380888737841E-02 
2411	 5.25305639933896E-02 
2412	 5.16519228739165E-02 
2413	 4.77468020217052E-02 
2414	 4.44745090938139E-02 
2415	 4.53885081371618E-02 
2416	 4.34553572720729E-02 
2417	 4.31348330928831E-02 
2418	 4.59467519257343E-02 
2419	 4.29699620598116E-02 
2420	 4.27150514586685E-02 
2421	 4.59403574679476E-02 
2422	 0.044067686438759 
2423	 4.42525287303135E-02 
2424	 4.52214669461652E-02 
2425	 4.14436955779094E-02 
2426	 4.09106094013873E-02 
2427	 4.28936698853954E-02 
2428	 0.041547605312764 
2429	 4.11779706163677E-02 
2430	 4.06461903394428E-02 
2431	 3.66977887694987E-02 
2432	 3.21181315210597E-02 
2433	 0.028574594450192 
2434	 2.72016422839681E-02 
2435	 2.76562405750704E-02 
2436	 2.88418764294927E-02 
2437	 3.15651377775587E-02 
2438	 3.34043351050988E-02 
2439	 3.92879735918606E-02 
2440	 0.038427970805101 
2441	 3.04970020544059E-02 
2442	 0.02979747758207 
2443	 2.67362384595955E-02 
2444	 2.73615663775655E-02 
2445	 3.70292420763863E-02 
2446	 4.23658374936507E-02 
2447	 4.68427754560714E-02 
2448	 4.95993845930332E-02 
2449	 5.31286493707723E-02 
2450	 5.52376466951208E-02 
2451	 5.25979205553934E-02 
2452	 5.35882552464647E-02 
2453	 5.90535764541191E-02 
2454	 5.48795900410699E-02 
2455	 4.17692087383084E-02 
2456	 3.72979835473892E-02 
2457	 2.85043924870246E-02 
2458	 3.11245509441877E-02 
2459	 5.35213975817221E-02 
2460	 5.84024541126802E-02 
2461	 0.057145157375753 
2462	 5.58960475717145E-02 
2463	 0.043604148743846 
2464	 3.98422902801782E-02 
2465	 4.38321051077865E-02 
2466	 4.07197851190805E-02 
2467	 3.58436426723894E-02 
2468	 3.03653452527086E-02 
2469	 1.61665787398423E-02 
2470	 1.49457674876312E-02 
2471	 2.29784951511126E-02 
2472	 2.30030770423922E-02 
2473	 2.71493542543921E-02 
2474	 3.44575671540815E-02 
2475	 4.17799685474362E-02 
2476	 4.15368670797492E-02 
2477	 4.54109290951915E-02 
2478	 4.27820691490131E-02 
2479	 0.015949203372461 
2480	 1.18509564586005E-02 
2481	 2.78234113525755E-02 
2482	 2.97606617923894E-02 
2483	 3.07130822688409E-02 
2484	 3.90905621744385E-02 
2485	 4.22515529018801E-02 
2486	 5.33036004240376E-02 
2487	 7.85117025472328E-02 
2488	 0.108696299911906 
2489	 0.148686639558109 
2490	 0.18186786619541 
2491	 0.21067941469995 
2492	 0.19364920486187 
2493	 0.143746348901088 
2494	 0.116091053156899 
2495	 7.48583119200167E-02 
2496	 4.13302131705919E-02 
2497	 5.17059190815182E-02 
2498	 3.24766893299465E-02 
2499	 0.028364562364123 
2500	 9.42483944999293E-02 
