Wavelength	ref00044.asd
350	 1.03420846588322E-02 
351	 1.00284005057744E-02 
352	 9.77794139910145E-03 
353	 9.33345608525721E-03 
354	 9.4283237045244E-03 
355	 9.7482416999286E-03 
356	 9.88409228672815E-03 
357	 9.60653272968823E-03 
358	 9.55815551721793E-03 
359	 1.01478323091989E-02 
360	 1.12171538819781E-02 
361	 1.08566852756906E-02 
362	 1.01591382057158E-02 
363	 9.75164107434848E-03 
364	 0.009784241386117 
365	 9.86798002533937E-03 
366	 0.010180461588838 
367	 1.05029207185711E-02 
368	 9.97484154407357E-03 
369	 1.00357954539077E-02 
370	 1.00604358759253E-02 
371	 9.53185345145884E-03 
372	 9.85151003181429E-03 
373	 0.010200138540264 
374	 1.01761032213117E-02 
375	 9.74797294153405E-03 
376	 9.73914418840567E-03 
377	 9.89820338743259E-03 
378	 1.01020527809609E-02 
379	 1.04970702330308E-02 
380	 1.01037728103142E-02 
381	 9.93902539037879E-03 
382	 1.06220670495061E-02 
383	 1.05155402528117E-02 
384	 1.05469025097729E-02 
385	 1.07231786897662E-02 
386	 1.06969023021346E-02 
387	 1.05241087421734E-02 
388	 1.08366642925674E-02 
389	 1.14479071822721E-02 
390	 1.13566923828984E-02 
391	 1.14619557603239E-02 
392	 1.13336807252088E-02 
393	 1.08592485111306E-02 
394	 1.11925912288798E-02 
395	 1.14519573370503E-02 
396	 1.14325111370413E-02 
397	 1.12918439885051E-02 
398	 1.16929871454105E-02 
399	 1.18736184027556E-02 
400	 1.18068955520846E-02 
401	 1.20767441044056E-02 
402	 1.21017237123343E-02 
403	 0.012032039654241 
404	 1.21007489643418E-02 
405	 1.25424467700361E-02 
406	 1.26572382926761E-02 
407	 1.25724614408676E-02 
408	 0.012647656022536 
409	 1.27699654236994E-02 
410	 1.29161531062911E-02 
411	 1.30853408996003E-02 
412	 1.32854700961295E-02 
413	 1.33744918555761E-02 
414	 1.33330811332354E-02 
415	 1.32772365754866E-02 
416	 1.35763375451323E-02 
417	 1.36994537982755E-02 
418	 0.013641907304664 
419	 1.36129457294261E-02 
420	 1.38739603533242E-02 
421	 1.40089930320854E-02 
422	 1.40044869092449E-02 
423	 1.42030441366211E-02 
424	 1.43005117884624E-02 
425	 1.42990558107907E-02 
426	 1.42566548686355E-02 
427	 1.42082726644797E-02 
428	 1.44311730270434E-02 
429	 1.46307680034083E-02 
430	 1.44727718612729E-02 
431	 1.45498380973048E-02 
432	 1.46866091180882E-02 
433	 1.47392294918385E-02 
434	 1.46577981187855E-02 
435	 1.48849300384934E-02 
436	 1.50360342910867E-02 
437	 1.49263729123068E-02 
438	 1.50559328281256E-02 
439	 1.51956594169889E-02 
440	 1.52114698345543E-02 
441	 1.50802496961293E-02 
442	 1.52000458327015E-02 
443	 1.52785563396594E-02 
444	 1.52870811496962E-02 
445	 1.54655618389228E-02 
446	 1.54533643800334E-02 
447	 0.015429446231309 
448	 0.015524252018383 
449	 1.54972349108004E-02 
450	 1.55483233126795E-02 
451	 1.56635639085188E-02 
452	 1.57412184754589E-02 
453	 1.57497026411579E-02 
454	 1.57946000181223E-02 
455	 1.58847587493507E-02 
456	 1.59066689220389E-02 
457	 1.60337690928641E-02 
458	 1.61306063264868E-02 
459	 0.016093683344146 
460	 1.61180928869247E-02 
461	 0.016157776094593 
462	 0.016212254417216 
463	 1.62930951511486E-02 
464	 1.63082988451194E-02 
465	 1.63819001759044E-02 
466	 1.65159429751053E-02 
467	 1.64993228057333E-02 
468	 0.016461415511858 
469	 1.64525018094309E-02 
470	 1.65026374003915E-02 
471	 1.66608702348763E-02 
472	 0.016751215554149 
473	 1.67666984089827E-02 
474	 0.016819108875527 
475	 1.68557928655274E-02 
476	 1.68783541520621E-02 
477	 1.68949101770489E-02 
478	 1.69099170318861E-02 
479	 1.69675543069984E-02 
480	 1.70537446715494E-02 
481	 1.71341076963265E-02 
482	 1.71972679748134E-02 
483	 1.72174304586318E-02 
484	 1.72567831961841E-02 
485	 1.74479054120871E-02 
486	 1.75229921874453E-02 
487	 1.75326030166836E-02 
488	 1.75607232104275E-02 
489	 1.75894746428625E-02 
490	 1.77063627402132E-02 
491	 1.78345419749854E-02 
492	 1.78621422367991E-02 
493	 1.79464324478828E-02 
494	 1.80802071933807E-02 
495	 1.82316091944064E-02 
496	 1.83559790296731E-02 
497	 1.84751219105891E-02 
498	 1.85721966407245E-02 
499	 1.86590929093664E-02 
500	 1.88710426365546E-02 
501	 1.91089151174465E-02 
502	 1.92873801944215E-02 
503	 1.93632815534731E-02 
504	 1.95723645950045E-02 
505	 0.019750284385405 
506	 1.98527821150027E-02 
507	 2.01065210198993E-02 
508	 2.04758219170159E-02 
509	 2.08029935339603E-02 
510	 2.09762059067051E-02 
511	 0.02127395721246 
512	 2.16116286771198E-02 
513	 2.19746798052941E-02 
514	 2.24115460443135E-02 
515	 2.28214508934323E-02 
516	 2.32279062881344E-02 
517	 2.36646979980548E-02 
518	 2.41381753485435E-02 
519	 2.46401628864454E-02 
520	 0.025126280328863 
521	 2.55628021621537E-02 
522	 2.60494066034103E-02 
523	 2.65609330267622E-02 
524	 2.70338116205168E-02 
525	 2.73700288856321E-02 
526	 2.77826588969446E-02 
527	 2.82619249934297E-02 
528	 2.87414623237527E-02 
529	 2.91763646530164E-02 
530	 2.94564810880549E-02 
531	 2.96973660959472E-02 
532	 3.01065811079745E-02 
533	 3.04638093722261E-02 
534	 3.07360875971296E-02 
535	 3.09436495705257E-02 
536	 3.11511100373965E-02 
537	 3.14512525216079E-02 
538	 3.17186924661188E-02 
539	 3.18338782626445E-02 
540	 3.20469007835164E-02 
541	 3.22407401422676E-02 
542	 3.23752528352942E-02 
543	 3.24926267421032E-02 
544	 0.032682793662989 
545	 3.28355008623638E-02 
546	 3.29225960148696E-02 
547	 3.31977225669543E-02 
548	 3.33923068567949E-02 
549	 3.35103176893219E-02 
550	 3.36494674489923E-02 
551	 3.37113653357446E-02 
552	 3.38158766438246E-02 
553	 3.39528475056154E-02 
554	 3.39421745180498E-02 
555	 0.033842324797335 
556	 3.38010919471146E-02 
557	 3.38873973289351E-02 
558	 0.033830432472582 
559	 3.37702512815796E-02 
560	 3.36822972474581E-02 
561	 3.34670723472464E-02 
562	 0.033427912374007 
563	 3.33103173557096E-02 
564	 3.30290966258971E-02 
565	 3.29280886378964E-02 
566	 3.27853212294364E-02 
567	 3.25898964030047E-02 
568	 3.23873135165672E-02 
569	 3.21435519451018E-02 
570	 3.19653827022977E-02 
571	 3.18433164045954E-02 
572	 0.031657470686702 
573	 3.14252203643229E-02 
574	 3.12525326926386E-02 
575	 3.11634093109179E-02 
576	 3.09250609793431E-02 
577	 3.07558429754216E-02 
578	 3.06666578417491E-02 
579	 3.05742539664939E-02 
580	 3.05075602093248E-02 
581	 3.04172906086167E-02 
582	 3.02908934496236E-02 
583	 3.01692406943633E-02 
584	 3.01558995835052E-02 
585	 3.01775976847334E-02 
586	 3.01491877314202E-02 
587	 3.01344164673551E-02 
588	 3.01694803404929E-02 
589	 3.02346237440662E-02 
590	 0.030265110814891 
591	 3.02228519599097E-02 
592	 0.030230412137974 
593	 0.030310293391979 
594	 3.02590875780412E-02 
595	 0.030304472853136 
596	 3.03483521354284E-02 
597	 3.02518104138002E-02 
598	 0.030250864067306 
599	 3.02751723153032E-02 
600	 3.03184343160218E-02 
601	 0.030442776045385 
602	 3.04378804573881E-02 
603	 3.04279642699931E-02 
604	 3.05075360860618E-02 
605	 3.05093163930769E-02 
606	 3.04859022984978E-02 
607	 3.04576097152824E-02 
608	 3.04364651532432E-02 
609	 3.04624601553738E-02 
610	 3.05097032787187E-02 
611	 3.05360678972764E-02 
612	 3.04872814011959E-02 
613	 3.05294202723803E-02 
614	 3.05409866418301E-02 
615	 3.04203157031176E-02 
616	 3.04455475579875E-02 
617	 3.04673211827475E-02 
618	 3.04431768736488E-02 
619	 3.04196244524324E-02 
620	 3.04863553937328E-02 
621	 3.05530283750392E-02 
622	 0.030578860618583 
623	 3.06710810841214E-02 
624	 3.07170255237864E-02 
625	 3.07501953368429E-02 
626	 3.08358494532025E-02 
627	 0.030906640738941 
628	 3.10466198987872E-02 
629	 3.11953139008913E-02 
630	 0.031164788175717 
631	 3.12768545819258E-02 
632	 3.14058201188665E-02 
633	 3.14131878830822E-02 
634	 3.13408503732049E-02 
635	 3.13707221872326E-02 
636	 3.14826563266828E-02 
637	 3.15566394587477E-02 
638	 3.15514401460624E-02 
639	 3.15289944894042E-02 
640	 3.15136143934211E-02 
641	 3.14698353431519E-02 
642	 3.14044072563112E-02 
643	 0.031356313747302 
644	 3.13488428788211E-02 
645	 3.13299629257992E-02 
646	 3.13323776648108E-02 
647	 3.13682790772864E-02 
648	 3.14295554195193E-02 
649	 3.14682242574077E-02 
650	 0.031421381665785 
651	 3.13534065333627E-02 
652	 3.15250533194022E-02 
653	 3.16837312125893E-02 
654	 3.17944339015744E-02 
655	 3.18707912252889E-02 
656	 3.18208399978812E-02 
657	 0.031841035455716 
658	 3.19537247661952E-02 
659	 3.20384384365981E-02 
660	 0.032074763863123 
661	 3.21436836435172E-02 
662	 3.22497594400467E-02 
663	 3.22209641406322E-02 
664	 3.22171899387713E-02 
665	 3.22943095975927E-02 
666	 3.24389919935708E-02 
667	 3.24957501084238E-02 
668	 3.26082573515294E-02 
669	 3.27889968941008E-02 
670	 3.29224693219415E-02 
671	 3.29938533198631E-02 
672	 3.31550031193001E-02 
673	 3.34561346641456E-02 
674	 3.36476550342621E-02 
675	 3.38552853229147E-02 
676	 3.40860142992672E-02 
677	 3.43292095870948E-02 
678	 0.034738673283429 
679	 3.50618265076486E-02 
680	 3.52823767128307E-02 
681	 3.56430418124708E-02 
682	 3.59419869263305E-02 
683	 3.63467292461067E-02 
684	 3.69094269823262E-02 
685	 0.037161177779906 
686	 3.76521816807089E-02 
687	 3.83420621295759E-02 
688	 3.88484507972963E-02 
689	 3.92117392581016E-02 
690	 3.95347303799551E-02 
691	 3.99761317320255E-02 
692	 4.06962648108822E-02 
693	 4.16178261103769E-02 
694	 4.26139797577515E-02 
695	 4.36328079540344E-02 
696	 4.48727478022814E-02 
697	 4.63099334922851E-02 
698	 4.78514800404571E-02 
699	 4.94069645834175E-02 
700	 5.12215910264332E-02 
701	 5.31185111194024E-02 
702	 5.50534524073728E-02 
703	 0.057166720931648 
704	 5.92438147786141E-02 
705	 6.12973405291261E-02 
706	 0.063423703449971 
707	 6.57373275612389E-02 
708	 6.81274618763165E-02 
709	 0.070443322398455 
710	 7.26003877928008E-02 
711	 7.51672118253466E-02 
712	 7.77736985028613E-02 
713	 8.02940599336765E-02 
714	 8.29768648733501E-02 
715	 8.58473537916821E-02 
716	 8.88159429406197E-02 
717	 9.19181175408978E-02 
718	 9.53406109742505E-02 
719	 9.89141847628297E-02 
720	 0.102393000654243 
721	 0.105619645022664 
722	 0.108620559950603 
723	 0.111985803531503 
724	 0.115898180727807 
725	 0.119636108797316 
726	 0.123505890406675 
727	 0.127352609929806 
728	 0.131197387454222 
729	 0.135362609720075 
730	 0.139403979610247 
731	 0.143289013750011 
732	 0.147141468671257 
733	 0.150767013759521 
734	 0.154531290465509 
735	 0.158473601364511 
736	 0.162238783468293 
737	 0.165909773771806 
738	 0.16951552386126 
739	 0.173108911607258 
740	 0.176657146374252 
741	 0.179905000806411 
742	 0.182963637242852 
743	 0.185961924193749 
744	 0.188571134371781 
745	 0.191259246406446 
746	 0.193900065029686 
747	 0.195974997119056 
748	 0.198209128678291 
749	 0.200310736413518 
750	 0.202142356613207 
751	 0.204059891173908 
752	 0.205638210686859 
753	 0.207040208607965 
754	 0.20847975979529 
755	 0.209735599074774 
756	 0.210861000330415 
757	 0.211781093109372 
758	 0.21252360695158 
759	 0.214543980021691 
760	 0.217957224150146 
761	 0.221613946870071 
762	 0.221639983551125 
763	 0.221300643384817 
764	 0.221073886503979 
765	 0.220728853287023 
766	 0.220198551340006 
767	 0.219740397035792 
768	 0.219626996525936 
769	 0.219972546970976 
770	 0.220115951428154 
771	 0.22029838624278 
772	 0.220557218604194 
773	 0.220748517603458 
774	 0.221107626378826 
775	 0.221409387470631 
776	 0.221602997015116 
777	 0.222057565509053 
778	 0.222245692201942 
779	 0.222358821925617 
780	 0.222662503555275 
781	 0.222939063302934 
782	 0.223184503229073 
783	 0.223482729119744 
784	 0.223904531465854 
785	 0.22407266674091 
786	 0.224327501098199 
787	 0.224675756236989 
788	 0.224739875655415 
789	 0.225132511547254 
790	 0.2254626123121 
791	 0.225512729533742 
792	 0.225817849591125 
793	 0.226275551772808 
794	 0.22667944529982 
795	 0.226886565827467 
796	 0.22719304383895 
797	 0.227444211890558 
798	 0.22762130085323 
799	 0.227799807127969 
800	 0.22807409500442 
801	 0.228297042989538 
802	 0.228459681987119 
803	 0.228733761653139 
804	 0.22908678609198 
805	 0.229412427427499 
806	 0.229626200965651 
807	 0.22970928492155 
808	 0.229995324715411 
809	 0.230329775208316 
810	 0.230512046765921 
811	 0.23085471708326 
812	 0.231145908386147 
813	 0.231422035263699 
814	 0.231816329383656 
815	 0.231973714861944 
816	 0.23224249654932 
817	 0.232703814379766 
818	 0.233067918506226 
819	 0.233116636839146 
820	 0.23306744731669 
821	 0.233252417846301 
822	 0.234067725374418 
823	 0.234481623280292 
824	 0.234449150560403 
825	 0.234335354560297 
826	 0.234729318325274 
827	 0.235079831098918 
828	 0.2353642600658 
829	 0.235710912031438 
830	 0.235829847055347 
831	 0.236060257793614 
832	 0.236443121617089 
833	 0.236764040832548 
834	 0.236898505541529 
835	 0.237018570477911 
836	 0.237236217393034 
837	 0.237539817360449 
838	 0.237900343981967 
839	 0.238258009396814 
840	 0.238556934125613 
841	 0.238756504210116 
842	 0.239037944610742 
843	 0.23928905120182 
844	 0.239418235134905 
845	 0.239709833003586 
846	 0.239937521654218 
847	 0.240115459852983 
848	 0.240353151269797 
849	 0.240623193912432 
850	 0.240949924454982 
851	 0.241227409632981 
852	 0.241336088858025 
853	 0.241850313409142 
854	 0.242423713052673 
855	 0.242674366573214 
856	 0.242393811433213 
857	 0.242337047383781 
858	 0.242675756648293 
859	 0.24320935997381 
860	 0.243361470810835 
861	 0.243596090359803 
862	 0.243842034435672 
863	 0.244018187399449 
864	 0.244331573710942 
865	 0.244945013382725 
866	 0.245473703458702 
867	 0.245528255870733 
868	 0.245514126575485 
869	 0.24552338712462 
870	 0.245703258170694 
871	 0.24610136896789 
872	 0.246234015107745 
873	 0.246403141082656 
874	 0.246689458919104 
875	 0.246975017336409 
876	 0.247150617967237 
877	 0.24737956478754 
878	 0.247688635308534 
879	 0.247936883851319 
880	 0.248003510689707 
881	 0.248201738208402 
882	 0.248536671078751 
883	 0.248545227152681 
884	 0.248666640022439 
885	 0.249005215248619 
886	 0.249351838141436 
887	 0.249086312220506 
888	 0.249167064918828 
889	 0.249523787535181 
890	 0.249887719623306 
891	 0.250253078233033 
892	 0.250330134961152 
893	 0.250376488652082 
894	 0.250689653518342 
895	 0.251009883299372 
896	 0.25119411459181 
897	 0.251506024035346 
898	 0.252156890029197 
899	 0.252276356245228 
900	 0.252415531056599 
901	 0.252316283449775 
902	 0.251601170564843 
903	 0.251543680328671 
904	 0.251697208911488 
905	 0.252040770637315 
906	 0.252749596910297 
907	 0.25312178637588 
908	 0.253591232564075 
909	 0.254075853060677 
910	 0.254057691625062 
911	 0.253786503142656 
912	 0.253815163314803 
913	 0.254263172664576 
914	 0.254761369000666 
915	 0.254929183469768 
916	 0.254801976716104 
917	 0.254721729810344 
918	 0.255148067708986 
919	 0.254902689940119 
920	 0.254611985204242 
921	 0.254793552768063 
922	 0.25536368062938 
923	 0.254856685626184 
924	 0.254385042880826 
925	 0.25452211666289 
926	 0.254273081718255 
927	 0.254097081098091 
928	 0.254208355471465 
929	 0.254553529585808 
930	 0.254665569655572 
931	 0.255564953371709 
932	 0.25652982301159 
933	 0.256759412736125 
934	 0.256608180700632 
935	 0.25605724274521 
936	 0.255078012571776 
937	 0.253617186011941 
938	 0.25156506629418 
939	 0.251971120487768 
940	 0.252101500911667 
941	 0.250882500666505 
942	 0.252680710949554 
943	 0.253729385015727 
944	 0.253359697563259 
945	 0.252302729306181 
946	 0.252516200757898 
947	 0.250290667513755 
948	 0.248419517266558 
949	 0.249041792826714 
950	 0.249288564489737 
951	 0.249652406702114 
952	 0.249496629226777 
953	 0.248759968326102 
954	 0.248896220036542 
955	 0.248895601680694 
956	 0.248200765907045 
957	 0.247159212564322 
958	 0.247517510929224 
959	 0.24567762457864 
960	 0.244844010407136 
961	 0.246788305503538 
962	 0.247872615979573 
963	 0.246764726473605 
964	 0.245383149128265 
965	 0.245096011421422 
966	 0.244938886524082 
967	 0.244714485313453 
968	 0.244903709381491 
969	 0.24513864912387 
970	 0.243766506235747 
971	 0.245029670103519 
972	 0.246127481173571 
973	 0.245595153230093 
974	 0.245852022447558 
975	 0.24609979577399 
976	 0.246622186382714 
977	 0.247148043227154 
978	 0.246688669146242 
979	 0.246494385632264 
980	 0.246563327495925 
981	 0.246182911105179 
982	 0.244704301834139 
983	 0.247377229605221 
984	 0.24769925418624 
985	 0.245475687014473 
986	 0.246731807614128 
987	 0.247204951717938 
988	 0.247400857512165 
989	 0.247563435160963 
990	 0.247502307353451 
991	 0.247658282800545 
992	 0.248468910674475 
993	 0.249407277101147 
994	 0.249449592037632 
995	 0.248304574071982 
996	 0.247649379515252 
997	 0.247663210221601 
998	 0.248054264160772 
999	 0.250548532138355 
1000	 0.251129869412386 
1001	 0.259889103437393 
1002	 0.260374037622821 
1003	 0.260842418049342 
1004	 0.261374607443458 
1005	 0.261744102180084 
1006	 0.262053963181144 
1007	 0.262385349533061 
1008	 0.262544174493045 
1009	 0.26281348030065 
1010	 0.263189196331949 
1011	 0.263572973625992 
1012	 0.263797569117491 
1013	 0.264088170667685 
1014	 0.264441768914798 
1015	 0.264917831893401 
1016	 0.265510254056862 
1017	 0.265949206927153 
1018	 0.266364886750951 
1019	 0.266757160675387 
1020	 0.267099161455497 
1021	 0.2673475628195 
1022	 0.267727384803126 
1023	 0.268226382260217 
1024	 0.268414889435639 
1025	 0.268770461419906 
1026	 0.269135504966357 
1027	 0.269454933198952 
1028	 0.269898612834477 
1029	 0.270195454994971 
1030	 0.270473509697331 
1031	 0.270699807161668 
1032	 0.270809496640508 
1033	 0.271073203177484 
1034	 0.271477349225124 
1035	 0.271794763990333 
1036	 0.272120115554065 
1037	 0.272447667264904 
1038	 0.272779620479537 
1039	 0.273079345030751 
1040	 0.27332188851332 
1041	 0.273613668908234 
1042	 0.273702297320844 
1043	 0.273771747754197 
1044	 0.273935825310784 
1045	 0.274087146833121 
1046	 0.274356651715306 
1047	 0.27452758952451 
1048	 0.274616582652051 
1049	 0.274817200568829 
1050	 0.275028221116782 
1051	 0.27527853098379 
1052	 0.275514270309673 
1053	 0.275781805006488 
1054	 0.276016087821935 
1055	 0.276160308730609 
1056	 0.276396239902358 
1057	 0.27672479236595 
1058	 0.277002525449358 
1059	 0.277260492551728 
1060	 0.277565845479928 
1061	 0.277942209794993 
1062	 0.278188442935109 
1063	 0.278383055225885 
1064	 0.278668998097939 
1065	 0.278870002418575 
1066	 0.278954645851391 
1067	 0.279041933357466 
1068	 0.279148638861804 
1069	 0.279251619805764 
1070	 0.279372295716329 
1071	 0.27955620706569 
1072	 0.279881754124292 
1073	 0.280116803008204 
1074	 0.280217221657916 
1075	 0.280235512046671 
1076	 0.28026591415359 
1077	 0.280424697441713 
1078	 0.280554348225442 
1079	 0.280696599154531 
1080	 0.280899492733304 
1081	 0.281046318778714 
1082	 0.281115521209191 
1083	 0.281185491904162 
1084	 0.281270628670775 
1085	 0.281305220725625 
1086	 0.28136758765614 
1087	 0.281518982566437 
1088	 0.281620640663237 
1089	 0.281729742076378 
1090	 0.281809803799132 
1091	 0.281732209520931 
1092	 0.281752255966801 
1093	 0.281852268455924 
1094	 0.281873859730479 
1095	 0.281941571483394 
1096	 0.282004356101106 
1097	 0.282076729905171 
1098	 0.282114959575198 
1099	 0.282169525938971 
1100	 0.282158670570202 
1101	 0.282070528528389 
1102	 0.281985040573762 
1103	 0.281873274146243 
1104	 0.28176729726845 
1105	 0.281790666299525 
1106	 0.281847563335575 
1107	 0.281810281779862 
1108	 0.281763613580283 
1109	 0.281683063605493 
1110	 0.281564395885718 
1111	 0.281444901824635 
1112	 0.281337210199655 
1113	 0.281189111097781 
1114	 0.280955174298079 
1115	 0.280804495509858 
1116	 0.280722467227821 
1117	 0.280502022405363 
1118	 0.280324428014569 
1119	 0.280269912250722 
1120	 0.279920510879249 
1121	 0.27960420752609 
1122	 0.279404439053412 
1123	 0.27888177515315 
1124	 0.278315531163557 
1125	 0.277804158666752 
1126	 0.277297749570184 
1127	 0.276816088605156 
1128	 0.276285333646942 
1129	 0.275982691441886 
1130	 0.27527888501918 
1131	 0.274343760804483 
1132	 0.273457540739674 
1133	 0.272466730090074 
1134	 0.271388156219333 
1135	 0.270344413157738 
1136	 0.269249369448261 
1137	 0.268125169804815 
1138	 0.267034493322142 
1139	 0.26591335554551 
1140	 0.26481899916441 
1141	 0.263613105901284 
1142	 0.262314590497797 
1143	 0.261099378348866 
1144	 0.260013170957342 
1145	 0.25868719251886 
1146	 0.257269802369055 
1147	 0.255825768255091 
1148	 0.254194452133947 
1149	 0.252797100345103 
1150	 0.25149258929945 
1151	 0.250351786117787 
1152	 0.249386774311517 
1153	 0.248488050122343 
1154	 0.247769667908687 
1155	 0.247185506942087 
1156	 0.24669592732082 
1157	 0.246230751237822 
1158	 0.245722995130311 
1159	 0.245239320290193 
1160	 0.244817904108978 
1161	 0.244363546573262 
1162	 0.244060069493346 
1163	 0.243865423189834 
1164	 0.243657551662325 
1165	 0.243557380410916 
1166	 0.243374411518136 
1167	 0.243130835539321 
1168	 0.242916420632138 
1169	 0.242712779915683 
1170	 0.242453131032971 
1171	 0.242180177041426 
1172	 0.242000617726412 
1173	 0.241879074846873 
1174	 0.241708251807919 
1175	 0.241604705235387 
1176	 0.241574752246733 
1177	 0.241442496308781 
1178	 0.241249912571508 
1179	 0.241082809119454 
1180	 0.240858710104133 
1181	 0.240689883551847 
1182	 0.240572190639251 
1183	 0.240442323742021 
1184	 0.240360000708703 
1185	 0.240198003764226 
1186	 0.239933820074069 
1187	 0.23976267430156 
1188	 0.239584210692497 
1189	 0.239441577481038 
1190	 0.239381146145963 
1191	 0.239402847740138 
1192	 0.239357958941049 
1193	 0.239328532156937 
1194	 0.239276329765422 
1195	 0.23918376045993 
1196	 0.239147759047743 
1197	 0.239097820245836 
1198	 0.23914053969685 
1199	 0.239290016032473 
1200	 0.239378800349008 
1201	 0.239503583009066 
1202	 0.239579992417505 
1203	 0.239580859436464 
1204	 0.23964854467256 
1205	 0.239724158213679 
1206	 0.23983547943454 
1207	 0.239969721709195 
1208	 0.240138915580803 
1209	 0.240372763075791 
1210	 0.240574177506051 
1211	 0.240747467647572 
1212	 0.240978381406651 
1213	 0.24115544661205 
1214	 0.241261560660983 
1215	 0.241470640839531 
1216	 0.241686393040883 
1217	 0.241971515960461 
1218	 0.242370727318205 
1219	 0.242668168049127 
1220	 0.242948252128435 
1221	 0.24325999518669 
1222	 0.243531508945159 
1223	 0.243849714745804 
1224	 0.244250711793367 
1225	 0.244603333725388 
1226	 0.244945937013982 
1227	 0.245269542238406 
1228	 0.245588334909524 
1229	 0.245868395847572 
1230	 0.246155003187536 
1231	 0.246418530746314 
1232	 0.246719465844341 
1233	 0.247036529091613 
1234	 0.247351220818816 
1235	 0.24769118354523 
1236	 0.248001033053472 
1237	 0.24829172773989 
1238	 0.248600255087724 
1239	 0.248910964881417 
1240	 0.249214138123708 
1241	 0.24953632058289 
1242	 0.24982433247133 
1243	 0.250089941616967 
1244	 0.250358837800779 
1245	 0.250620284005676 
1246	 0.250865739253681 
1247	 0.251080939259685 
1248	 0.251323303908663 
1249	 0.25157983891215 
1250	 0.251820986542534 
1251	 0.252094895017527 
1252	 0.252347409443371 
1253	 0.252531065307925 
1254	 0.25265010515286 
1255	 0.252801789802186 
1256	 0.252910491523627 
1257	 0.253045695489823 
1258	 0.253213540360607 
1259	 0.253354751187741 
1260	 0.253493729171346 
1261	 0.253605986737576 
1262	 0.253701918487627 
1263	 0.253785900984091 
1264	 0.253793999720631 
1265	 0.253885651667226 
1266	 0.254024951180307 
1267	 0.254148781872985 
1268	 0.25434007389592 
1269	 0.254468570493995 
1270	 0.25455641458246 
1271	 0.254628238786952 
1272	 0.254666649192708 
1273	 0.254681431359394 
1274	 0.254737864424128 
1275	 0.25480373530972 
1276	 0.254841690697513 
1277	 0.254902825642378 
1278	 0.254920115355657 
1279	 0.254871495607845 
1280	 0.254886350786012 
1281	 0.254935640792412 
1282	 0.254944499788868 
1283	 0.254970731035395 
1284	 0.254957974745281 
1285	 0.254913367761637 
1286	 0.254848037966773 
1287	 0.254722755768006 
1288	 0.254661875306317 
1289	 0.254656726684659 
1290	 0.254567293713724 
1291	 0.254474465691086 
1292	 0.254367685359433 
1293	 0.25419912746755 
1294	 0.254008712648179 
1295	 0.253835596152856 
1296	 0.253620868937312 
1297	 0.2533789770685 
1298	 0.253104942469675 
1299	 0.252730838894065 
1300	 0.252286842700718 
1301	 0.251872346274005 
1302	 0.251369033397195 
1303	 0.250900931147287 
1304	 0.250468574059086 
1305	 0.250026886884613 
1306	 0.24959197890412 
1307	 0.249070641124712 
1308	 0.248555094856418 
1309	 0.247971015514041 
1310	 0.247271649412248 
1311	 0.246567096699225 
1312	 0.245843829496532 
1313	 0.245098978816613 
1314	 0.244322921792973 
1315	 0.243501936666957 
1316	 0.242592495912777 
1317	 0.241761484185221 
1318	 0.24093725540728 
1319	 0.240096642923453 
1320	 0.239273694804539 
1321	 0.238540646836245 
1322	 0.237642009034718 
1323	 0.236639857329198 
1324	 0.235622260456755 
1325	 0.234498004683854 
1326	 0.233412984758719 
1327	 0.232267265474227 
1328	 0.231155520580857 
1329	 0.230084861888358 
1330	 0.228916895694784 
1331	 0.227742831035501 
1332	 0.226497446053095 
1333	 0.225068432014167 
1334	 0.223869086502501 
1335	 0.222738056195713 
1336	 0.221657870691939 
1337	 0.220702327528066 
1338	 0.219777451565023 
1339	 0.218845443222689 
1340	 0.217936120281789 
1341	 0.216940063219602 
1342	 0.216134606279181 
1343	 0.215421679796512 
1344	 0.214657430229039 
1345	 0.214025499597688 
1346	 0.213317550199723 
1347	 0.212660061239788 
1348	 0.211917011995027 
1349	 0.211162600463625 
1350	 0.21070375253571 
1351	 0.209932646176537 
1352	 0.208801460681335 
1353	 0.20769837606196 
1354	 0.206627633091002 
1355	 0.205888664409636 
1356	 0.206607528568659 
1357	 0.207190997189297 
1358	 0.213002472208163 
1359	 0.21574809091647 
1360	 0.21122940744625 
1361	 0.208483282380215 
1362	 0.192061828058686 
1363	 0.186203826307567 
1364	 0.206939186597547 
1365	 0.21380920525526 
1366	 0.235029029665453 
1367	 0.227559502733254 
1368	 0.193254285283078 
1369	 0.182209062840985 
1370	 0.166691270011496 
1371	 0.164804484160432 
1372	 0.18063837811407 
1373	 0.184224726589772 
1374	 0.1862957473018 
1375	 0.186250656984716 
1376	 0.184717401356474 
1377	 0.179278232757702 
1378	 0.176177556571598 
1379	 0.175153776303988 
1380	 0.170098709440076 
1381	 0.160083223390227 
1382	 0.158022752487637 
1383	 0.160016431259785 
1384	 0.156486884426322 
1385	 0.156312526715347 
1386	 0.151371231985254 
1387	 0.139242091397036 
1388	 0.13592084182406 
1389	 0.136494530242944 
1390	 0.135175740472214 
1391	 0.135949683306656 
1392	 0.134809369820757 
1393	 0.133611242071674 
1394	 0.129769421464251 
1395	 0.12302416208391 
1396	 0.119341351364906 
1397	 0.114347805759943 
1398	 0.111924254398331 
1399	 0.11371274741681 
1400	 0.112933234537779 
1401	 0.112305906239546 
1402	 0.11009017485901 
1403	 0.10583097989446 
1404	 0.102782854613392 
1405	 9.95524859196745E-02 
1406	 9.71506785699408E-02 
1407	 9.44490235979803E-02 
1408	 9.38528338183642E-02 
1409	 0.093046280602738 
1410	 9.17833994853587E-02 
1411	 9.08269063608353E-02 
1412	 9.01596434044329E-02 
1413	 0.089440436802653 
1414	 8.86695600808321E-02 
1415	 0.087956579446793 
1416	 8.73884464392531E-02 
1417	 8.68984643959184E-02 
1418	 8.64439311711232E-02 
1419	 8.58079490589761E-02 
1420	 8.51207450989141E-02 
1421	 8.46129799238056E-02 
1422	 8.41009542234371E-02 
1423	 8.35575236539847E-02 
1424	 8.32610384334349E-02 
1425	 8.26801787441163E-02 
1426	 0.081658105312429 
1427	 8.10630280873639E-02 
1428	 8.04815257735167E-02 
1429	 8.01150628441493E-02 
1430	 0.080104808536911 
1431	 7.98582731294349E-02 
1432	 7.96712954377419E-02 
1433	 7.93532665235819E-02 
1434	 0.078729486187459 
1435	 0.0784002855711 
1436	 7.81796833892955E-02 
1437	 7.79235417603286E-02 
1438	 7.77984736500958E-02 
1439	 7.76787109787385E-02 
1440	 7.75604475925953E-02 
1441	 7.74227020318511E-02 
1442	 7.74067550978921E-02 
1443	 7.72289809034812E-02 
1444	 0.076868871009736 
1445	 7.65993181491412E-02 
1446	 7.67668123657213E-02 
1447	 7.70734487284754E-02 
1448	 7.71387999165869E-02 
1449	 7.74298093767986E-02 
1450	 7.73610634231449E-02 
1451	 7.69683029922114E-02 
1452	 7.67557766757683E-02 
1453	 7.64629258266608E-02 
1454	 7.64845990860162E-02 
1455	 7.66508905460385E-02 
1456	 0.076659912089737 
1457	 7.68226156751176E-02 
1458	 7.68672551749117E-02 
1459	 7.66438373559169E-02 
1460	 7.67105048403428E-02 
1461	 7.70101247322399E-02 
1462	 7.71641536801088E-02 
1463	 7.73443718786558E-02 
1464	 7.74999573229933E-02 
1465	 0.077632596018857 
1466	 7.77220368797384E-02 
1467	 7.76721121247747E-02 
1468	 7.78787927751803E-02 
1469	 7.81697048778707E-02 
1470	 7.84564691054853E-02 
1471	 7.89416128941429E-02 
1472	 7.93501330746047E-02 
1473	 0.07964887311588 
1474	 7.99718367693462E-02 
1475	 8.03581090111807E-02 
1476	 8.06766338850525E-02 
1477	 8.08210482788547E-02 
1478	 8.11592407696316E-02 
1479	 8.15707164533933E-02 
1480	 8.19991389386359E-02 
1481	 8.26397690337495E-02 
1482	 8.30829570678117E-02 
1483	 0.083339217482014 
1484	 8.37058531871443E-02 
1485	 8.39626703829662E-02 
1486	 8.43519715403484E-02 
1487	 8.47845775287412E-02 
1488	 8.54324638905261E-02 
1489	 8.59496417468505E-02 
1490	 8.64327310286465E-02 
1491	 0.086926432698024 
1492	 0.087342883018942 
1493	 8.78567005659449E-02 
1494	 8.83652361005754E-02 
1495	 8.87846840294246E-02 
1496	 8.91594575045775E-02 
1497	 8.96106413330715E-02 
1498	 9.00166380061412E-02 
1499	 9.05141642903688E-02 
1500	 9.11569597996098E-02 
1501	 0.09164160881904 
1502	 9.20761813145302E-02 
1503	 9.25460018722226E-02 
1504	 9.29601476245096E-02 
1505	 0.093445745934859 
1506	 9.39576710973736E-02 
1507	 9.45062597830016E-02 
1508	 9.50909969658209E-02 
1509	 0.09566694134799 
1510	 9.63333456099584E-02 
1511	 9.68561618119441E-02 
1512	 9.72802102784683E-02 
1513	 9.77767922006643E-02 
1514	 9.82120729089056E-02 
1515	 9.87392213536829E-02 
1516	 9.93629400865938E-02 
1517	 9.99520787266467E-02 
1518	 0.100611470406284 
1519	 0.101138636280492 
1520	 0.101592475344763 
1521	 0.102082629892928 
1522	 0.102460769352653 
1523	 0.102960914304741 
1524	 0.1035571428995 
1525	 0.104141733932865 
1526	 0.104777289278456 
1527	 0.105384420401524 
1528	 0.106054639471133 
1529	 0.106600228752722 
1530	 0.107031346987136 
1531	 0.107540416362367 
1532	 0.107992633068994 
1533	 0.108495509506046 
1534	 0.109078422121984 
1535	 0.109651963424582 
1536	 0.110254975299312 
1537	 0.110808428840794 
1538	 0.111370608734455 
1539	 0.111895710590805 
1540	 0.112318038281535 
1541	 0.112815567653089 
1542	 0.113369641341907 
1543	 0.113880834840749 
1544	 0.114400332527221 
1545	 0.114916573346345 
1546	 0.115396018149743 
1547	 0.115887524955792 
1548	 0.116402443237136 
1549	 0.116905844470124 
1550	 0.117394277315207 
1551	 0.117894965200574 
1552	 0.118395419835831 
1553	 0.118908503739166 
1554	 0.119472569537656 
1555	 0.119971825818905 
1556	 0.120434229655611 
1557	 0.120900977838714 
1558	 0.12129275967637 
1559	 0.121736457986241 
1560	 0.122212283750719 
1561	 0.122716438068154 
1562	 0.123288825820022 
1563	 0.123820642552931 
1564	 0.124419101548679 
1565	 0.124927004967488 
1566	 0.125255192205527 
1567	 0.125576666529316 
1568	 0.125981254528811 
1569	 0.126309484673039 
1570	 0.126783282896628 
1571	 0.127420570661187 
1572	 0.127945616228885 
1573	 0.128466572427841 
1574	 0.128928810720855 
1575	 0.129352312403872 
1576	 0.129798313046003 
1577	 0.130205660309592 
1578	 0.130611812404041 
1579	 0.131025472769988 
1580	 0.131444710221012 
1581	 0.131824867576088 
1582	 0.132250058010095 
1583	 0.132739972071779 
1584	 0.133138915028246 
1585	 0.133489161675575 
1586	 0.133890331923145 
1587	 0.134245577079525 
1588	 0.134721738120424 
1589	 0.135311012364026 
1590	 0.135789938090415 
1591	 0.136303905556184 
1592	 0.136727389903744 
1593	 0.137025438422875 
1594	 0.137456155295847 
1595	 0.137946016698843 
1596	 0.138344022373719 
1597	 0.138711664023082 
1598	 0.139194533930661 
1599	 0.139696022816142 
1600	 0.14013052737157 
1601	 0.140660998515611 
1602	 0.141095579814569 
1603	 0.14137874777179 
1604	 0.141740160203898 
1605	 0.142150568421482 
1606	 0.142550465426807 
1607	 0.142921385902381 
1608	 0.143284239687576 
1609	 0.143666276904994 
1610	 0.144053698719907 
1611	 0.14440089470663 
1612	 0.144780007708443 
1613	 0.14519565026364 
1614	 0.145615674142191 
1615	 0.146048084292521 
1616	 0.146425167002797 
1617	 0.146809268047315 
1618	 0.147183448538443 
1619	 0.147498798211968 
1620	 0.147833233155551 
1621	 0.148240366884475 
1622	 0.148507026749417 
1623	 0.148653343217155 
1624	 0.148908898960811 
1625	 0.149136572954283 
1626	 0.149404715848643 
1627	 0.149741896633722 
1628	 0.150075471620993 
1629	 0.150419398519619 
1630	 0.150726972190264 
1631	 0.151075542507124 
1632	 0.15136558770771 
1633	 0.151566388441813 
1634	 0.151854104255079 
1635	 0.152180860770205 
1636	 0.152463143425047 
1637	 0.152793121776133 
1638	 0.152993631347144 
1639	 0.153075847462302 
1640	 0.153276205724535 
1641	 0.153485321338023 
1642	 0.153630633600713 
1643	 0.15377665010391 
1644	 0.154004410460423 
1645	 0.154186983754782 
1646	 0.15438673855688 
1647	 0.154725119509438 
1648	 0.15494461707941 
1649	 0.15507935052937 
1650	 0.155176955268572 
1651	 0.155255292406199 
1652	 0.155326786195476 
1653	 0.155304136995753 
1654	 0.155354392010437 
1655	 0.155463080022167 
1656	 0.155550043511467 
1657	 0.155617169528839 
1658	 0.155707088764058 
1659	 0.15583710050796 
1660	 0.155872357778287 
1661	 0.155859970062463 
1662	 0.155903582838717 
1663	 0.155830186884804 
1664	 0.155847349982641 
1665	 0.155886411452649 
1666	 0.155909975101075 
1667	 0.156013034550222 
1668	 0.155891323684175 
1669	 0.155802256569082 
1670	 0.155693093393994 
1671	 0.155450712036739 
1672	 0.155536289161957 
1673	 0.155706696377293 
1674	 0.155763172756671 
1675	 0.155843793916725 
1676	 0.155743272711016 
1677	 0.155590389101391 
1678	 0.155640059786038 
1679	 0.155804774132026 
1680	 0.155917284019479 
1681	 0.155797528957608 
1682	 0.155537775259209 
1683	 0.155230476135047 
1684	 0.15489058512454 
1685	 0.154765293585459 
1686	 0.154738699923465 
1687	 0.154594832152653 
1688	 0.154433396003546 
1689	 0.154283395151412 
1690	 0.154146508973282 
1691	 0.153926760257984 
1692	 0.153678692294724 
1693	 0.153484620995242 
1694	 0.153204609502025 
1695	 0.152956634157673 
1696	 0.152833842234242 
1697	 0.15267502016813 
1698	 0.152560137630435 
1699	 0.15226237596814 
1700	 0.151770052605386 
1701	 0.151470948310663 
1702	 0.151161181974293 
1703	 0.150819773952384 
1704	 0.150681117598886 
1705	 0.150376285655841 
1706	 0.149765828005951 
1707	 0.149392116545669 
1708	 0.149170346616816 
1709	 0.148825523167464 
1710	 0.148514029500054 
1711	 0.148234740001693 
1712	 0.14792447804342 
1713	 0.14757456889162 
1714	 0.147310112479527 
1715	 0.146902786763802 
1716	 0.146262694540193 
1717	 0.145865252750133 
1718	 0.145545125616342 
1719	 0.145175620282053 
1720	 0.144905023649877 
1721	 0.144562294780514 
1722	 0.14419283696371 
1723	 0.14378987195179 
1724	 0.143345095710168 
1725	 0.142937297779447 
1726	 0.142380258852459 
1727	 0.142129429106587 
1728	 0.142125449878577 
1729	 0.141988619987342 
1730	 0.14196084167609 
1731	 0.141791235846122 
1732	 0.141501898761832 
1733	 0.141251779762002 
1734	 0.141204688461261 
1735	 0.141115913780465 
1736	 0.141057678578855 
1737	 0.140851284321877 
1738	 0.140526819845694 
1739	 0.14029384086864 
1740	 0.14007876982386 
1741	 0.14000238449457 
1742	 0.139926563685832 
1743	 0.139740122516683 
1744	 0.139668173801471 
1745	 0.139561750040799 
1746	 0.13930834808068 
1747	 0.138977431356462 
1748	 0.138514245744215 
1749	 0.138138534579085 
1750	 0.137907809840705 
1751	 0.137663391826709 
1752	 0.137454150466474 
1753	 0.137115435664436 
1754	 0.136862211280479 
1755	 0.136858016233924 
1756	 0.136510555021172 
1757	 0.135745904652651 
1758	 0.135290327726283 
1759	 0.134709656059313 
1760	 0.134314595309557 
1761	 0.134315400786548 
1762	 0.134147375191697 
1763	 0.133856877399295 
1764	 0.133601384112527 
1765	 0.133440226697044 
1766	 0.133216630597583 
1767	 0.132852929407391 
1768	 0.132666187136144 
1769	 0.132631723934734 
1770	 0.132307892451575 
1771	 0.13187458730234 
1772	 0.131682413645772 
1773	 0.131397447513815 
1774	 0.131282469162585 
1775	 0.131282068130111 
1776	 0.131014720573482 
1777	 0.130859277512206 
1778	 0.131006471398214 
1779	 0.131100908490447 
1780	 0.131102826192783 
1781	 0.131079853724543 
1782	 0.130868869488605 
1783	 0.130553256126526 
1784	 0.130620252426066 
1785	 0.130611761095124 
1786	 0.130463780125622 
1787	 0.130739801311246 
1788	 0.130854852729764 
1789	 0.130438588562311 
1790	 0.130160749535771 
1791	 0.129917390544752 
1792	 0.129378538892463 
1793	 0.129453257467567 
1794	 0.130167280137342 
1795	 0.130482516980054 
1796	 0.130738969504473 
1797	 0.131192858218403 
1798	 0.131020829254214 
1799	 0.131282571769082 
1800	 0.132342604413282 
1801	 0.129156447717894 
1802	 0.128513810531199 
1803	 0.128204797755519 
1804	 0.127883492580518 
1805	 0.127451856303288 
1806	 0.126431623761485 
1807	 0.126138737225844 
1808	 0.126132480171694 
1809	 0.126497355969501 
1810	 0.126862427578356 
1811	 0.128240254800944 
1812	 0.128702979546289 
1813	 0.128219605254957 
1814	 0.128778617250036 
1815	 0.130621870060949 
1816	 0.130836586493293 
1817	 0.130305745603335 
1818	 0.130222515571015 
1819	 0.129667747997732 
1820	 0.12661815790754 
1821	 0.125460068397462 
1822	 0.124409399381084 
1823	 0.12604705990399 
1824	 0.133268660962067 
1825	 0.135119806546439 
1826	 0.137823437472406 
1827	 0.139435332915359 
1828	 0.138022758909433 
1829	 0.120491926267372 
1830	 0.118286062465162 
1831	 0.129941146899061 
1832	 0.134908544477337 
1833	 0.153501643121746 
1834	 0.163812590070226 
1835	 0.15253192335703 
1836	 0.151063525458178 
1837	 0.147148108586627 
1838	 0.142460250959824 
1839	 0.138842310554212 
1840	 0.145692138606955 
1841	 0.142075794483411 
1842	 0.122404148208114 
1843	 0.125186214327222 
1844	 0.138767245465257 
1845	 0.146652019870183 
1846	 0.157033896944595 
1847	 0.179980189682517 
1848	 0.208554741401325 
1849	 0.256323974400137 
1850	 0.252505374397635 
1851	 0.234455715912547 
1852	 0.222507358981084 
1853	 0.156206292283618 
1854	 0.145210496056402 
1855	 0.192937652832636 
1856	 0.19754156537456 
1857	 0.210963501477048 
1858	 0.182956491403802 
1859	 0.172216365362656 
1860	 0.140770750259838 
1861	 0.139877552180288 
1862	 0.170960030948262 
1863	 0.165248022108206 
1864	 0.139424335067717 
1865	 0.131239876947931 
1866	 0.107981876913423 
1867	 7.79979856112457E-02 
1868	 0.118061375483185 
1869	 0.160975520187126 
1870	 0.156995127391302 
1871	 0.134563603898744 
1872	 0.102825721418275 
1873	-1.23688901359365E-02 
1874	-1.35242699928936E-02 
1875	 5.83794825083418E-02 
1876	 6.71296920717896E-02 
1877	 6.71468412812107E-02 
1878	 8.79013001821809E-02 
1879	 9.10791327144606E-02 
1880	 8.97166150190247E-02 
1881	 8.73472577542579E-02 
1882	 9.42757102621154E-02 
1883	 9.11288262355891E-02 
1884	 7.55608160986626E-02 
1885	 6.79902618261852E-02 
1886	 6.15493128847072E-02 
1887	 6.15579458954161E-02 
1888	 5.76276058353759E-02 
1889	 5.73128290242345E-02 
1890	 0.057133041572647 
1891	 0.05837618690319 
1892	 5.97989909208195E-02 
1893	 6.30927089262739E-02 
1894	 6.37267344690695E-02 
1895	 6.62025025090972E-02 
1896	 7.00965326388051E-02 
1897	 7.91308573258391E-02 
1898	 7.57868364219314E-02 
1899	 6.48460653538508E-02 
1900	 4.76671022759287E-02 
1901	 3.69244202096256E-02 
1902	 8.37915981909677E-03 
1903	-1.06349227238426E-03 
1904	 3.36118862399418E-02 
1905	 3.50927260534995E-02 
1906	 7.84328914846946E-03 
1907	 1.32789153538571E-02 
1908	 4.83349537199847E-02 
1909	 4.63603746726407E-02 
1910	 5.57372458805034E-02 
1911	 7.56275077725175E-02 
1912	 7.31076252218721E-02 
1913	 5.06523607757512E-02 
1914	 4.89134976583707E-02 
1915	 0.056302035909576 
1916	 5.21299379086584E-02 
1917	 0.04463512886152 
1918	 4.28773425183527E-02 
1919	 0.040339089904264 
1920	 3.32958206735672E-02 
1921	 3.73664017508201E-02 
1922	 4.42508317577943E-02 
1923	 4.57432862690762E-02 
1924	 4.84006433173159E-02 
1925	 4.86901230570736E-02 
1926	 4.34018638820215E-02 
1927	 4.22634591369654E-02 
1928	 4.34167666960823E-02 
1929	 4.14322149364256E-02 
1930	 0.04202137675544 
1931	 4.31933055049442E-02 
1932	 3.95321533845891E-02 
1933	 3.73725231568696E-02 
1934	 3.69297471672173E-02 
1935	 3.63313066044266E-02 
1936	 3.64431529925449E-02 
1937	 3.83797761243359E-02 
1938	 0.039089710978254 
1939	 3.97088878685329E-02 
1940	 3.95353560918458E-02 
1941	 3.78462348721543E-02 
1942	 3.83267076327384E-02 
1943	 3.86538207250505E-02 
1944	 3.74413632000845E-02 
1945	 3.66663600516413E-02 
1946	 3.66767304751491E-02 
1947	 3.71040013490414E-02 
1948	 0.037580903344361 
1949	 3.82274834370968E-02 
1950	 4.00936113918705E-02 
1951	 4.09607613566518E-02 
1952	 4.01321836603315E-02 
1953	 3.99984435696034E-02 
1954	 4.02012291894835E-02 
1955	 3.91636846854276E-02 
1956	 4.06986683471899E-02 
1957	 4.20565946924778E-02 
1958	 4.19864836183705E-02 
1959	 4.15843427561928E-02 
1960	 4.19547573997362E-02 
1961	 4.17914795551693E-02 
1962	 4.07391268086998E-02 
1963	 4.21093425518621E-02 
1964	 4.27637625938152E-02 
1965	 4.29177848418188E-02 
1966	 4.36731432672116E-02 
1967	 0.044085682778961 
1968	 4.41952545510939E-02 
1969	 4.42919495821872E-02 
1970	 4.43737767878558E-02 
1971	 4.45193006061606E-02 
1972	 4.45895508767388E-02 
1973	 4.45045107074665E-02 
1974	 4.50220666138986E-02 
1975	 4.54959265816109E-02 
1976	 4.56004871607495E-02 
1977	 4.60267646031636E-02 
1978	 4.65732728320021E-02 
1979	 4.67414627677902E-02 
1980	 4.71761544932151E-02 
1981	 4.75133631471741E-02 
1982	 4.77119856310739E-02 
1983	 4.76610655769881E-02 
1984	 4.76673840843097E-02 
1985	 4.76997306597686E-02 
1986	 4.80560642144919E-02 
1987	 4.85125684844674E-02 
1988	 0.048874096601256 
1989	 4.91305122289363E-02 
1990	 4.90906495483121E-02 
1991	 4.89249977869384E-02 
1992	 4.85423557010932E-02 
1993	 4.81707565591989E-02 
1994	 0.048412153706356 
1995	 4.85168414561383E-02 
1996	 4.86088648120471E-02 
1997	 4.91107613993707E-02 
1998	 4.96130466445685E-02 
1999	 4.93715183178397E-02 
2000	 5.01893532353461E-02 
2001	 5.03665224386936E-02 
2002	 0.050610048085102 
2003	 5.20046209719211E-02 
2004	 5.23631495461274E-02 
2005	 5.29380332829463E-02 
2006	 5.34224077311081E-02 
2007	 5.38311116722648E-02 
2008	 5.39900591062617E-02 
2009	 5.47580269800033E-02 
2010	 5.55315562277375E-02 
2011	 5.62147779207876E-02 
2012	 5.63143103269911E-02 
2013	 5.65226330918521E-02 
2014	 5.66604476802969E-02 
2015	 5.67457762548427E-02 
2016	 5.66230538859281E-02 
2017	 5.52613886711201E-02 
2018	 5.41785771280205E-02 
2019	 5.41718642531208E-02 
2020	 5.45011520153657E-02 
2021	 5.54643721919759E-02 
2022	 5.66415439958869E-02 
2023	 5.74731030295136E-02 
2024	 5.80977359022326E-02 
2025	 5.81137437595734E-02 
2026	 5.81442824461868E-02 
2027	 5.84188618069745E-02 
2028	 5.80530723251066E-02 
2029	 5.76072865636039E-02 
2030	 5.76680594201476E-02 
2031	 5.77773025184711E-02 
2032	 5.78600784996338E-02 
2033	 5.81180905245864E-02 
2034	 5.83185117855542E-02 
2035	 5.81888192164895E-02 
2036	 5.80693794771325E-02 
2037	 5.78127920682629E-02 
2038	 5.75920851568023E-02 
2039	 5.76702392986578E-02 
2040	 5.74311854646197E-02 
2041	 5.71388543498963E-02 
2042	 5.77905590146991E-02 
2043	 5.84101707245792E-02 
2044	 5.87307611734046E-02 
2045	 5.89070450781868E-02 
2046	 5.91683303316704E-02 
2047	 5.85613632854893E-02 
2048	 5.82966619155028E-02 
2049	 5.83099568799553E-02 
2050	 5.83426702582472E-02 
2051	 0.059231027940948 
2052	 5.96447606397292E-02 
2053	 5.99148203331155E-02 
2054	 6.05692106369738E-02 
2055	 6.05123604750174E-02 
2056	 6.00868605192805E-02 
2057	 5.98815241457392E-02 
2058	 5.99351149283686E-02 
2059	 6.01219980543109E-02 
2060	 6.04563364093592E-02 
2061	 6.11436472063894E-02 
2062	 6.19454360880307E-02 
2063	 6.20038249946879E-02 
2064	 6.14386661341638E-02 
2065	 6.09495301160671E-02 
2066	 6.05440971934506E-02 
2067	 0.060684140846268 
2068	 6.16386136804899E-02 
2069	 6.21943667209866E-02 
2070	 6.21333637668271E-02 
2071	 6.20442273029437E-02 
2072	 6.19211590215173E-02 
2073	 6.15302742448313E-02 
2074	 6.12686885086501E-02 
2075	 6.12237912983322E-02 
2076	 6.11859380893728E-02 
2077	 6.13814456184486E-02 
2078	 0.061650817057781 
2079	 6.20358165147006E-02 
2080	 6.25050769865958E-02 
2081	 6.25154679335272E-02 
2082	 6.27754640664497E-02 
2083	 6.29201737273003E-02 
2084	 6.29972364960057E-02 
2085	 0.0632677834549 
2086	 6.33624421737654E-02 
2087	 6.36646898253907E-02 
2088	 6.42547967098853E-02 
2089	 6.44750257468955E-02 
2090	 6.47037610379007E-02 
2091	 0.064823436174199 
2092	 6.45063770714276E-02 
2093	 6.45287721705796E-02 
2094	 6.43065009924743E-02 
2095	 6.42277650196476E-02 
2096	 6.44273250547002E-02 
2097	 0.064539450734392 
2098	 6.52306400852948E-02 
2099	 0.06611718900182 
2100	 6.62564354011979E-02 
2101	 6.59750099687716E-02 
2102	 6.59348264299819E-02 
2103	 6.55377993785456E-02 
2104	 6.52411152169211E-02 
2105	 0.065810896874128 
2106	 6.67297477765766E-02 
2107	 6.73296763664372E-02 
2108	 6.74235717011488E-02 
2109	 6.68955573232347E-02 
2110	 0.066677856633936 
2111	 6.65982780718634E-02 
2112	 6.65165518908831E-02 
2113	 6.72054533745488E-02 
2114	 0.067643543091255 
2115	 6.79366345565975E-02 
2116	 6.83480350913978E-02 
2117	 6.82628294188153E-02 
2118	 6.74410420733135E-02 
2119	 6.73371523879401E-02 
2120	 6.71341109172334E-02 
2121	 6.72038052003553E-02 
2122	 6.82713941965622E-02 
2123	 6.89546002331827E-02 
2124	 6.97245994217895E-02 
2125	 7.05241944584687E-02 
2126	 7.06780134403084E-02 
2127	 7.06315557943684E-02 
2128	 7.03367524267769E-02 
2129	 7.03026322423723E-02 
2130	 7.04499422594883E-02 
2131	 7.10770212716145E-02 
2132	 7.21900773601915E-02 
2133	 7.24527412382635E-02 
2134	 7.26335205443538E-02 
2135	 7.25559724156059E-02 
2136	 7.24955987693733E-02 
2137	 7.22325732688534E-02 
2138	 7.26769170156025E-02 
2139	 7.32185878102235E-02 
2140	 7.39320715575374E-02 
2141	 7.42138805343035E-02 
2142	 7.39397563583635E-02 
2143	 0.074315659554919 
2144	 0.073901327148229 
2145	 7.37708378741673E-02 
2146	 7.43874781056196E-02 
2147	 0.074053255027222 
2148	 7.42492337344359E-02 
2149	 0.0750557655687 
2150	 0.075160265512271 
2151	 7.52722122998682E-02 
2152	 7.55627539403579E-02 
2153	 7.56814696683631E-02 
2154	 7.52288536951567E-02 
2155	 7.55114698719749E-02 
2156	 7.60643794234745E-02 
2157	 7.62263127691028E-02 
2158	 7.67430674972291E-02 
2159	 7.64750458406754E-02 
2160	 7.64110239301898E-02 
2161	 7.65290230586923E-02 
2162	 0.076046447569231 
2163	 7.61640340143627E-02 
2164	 7.61023721279859E-02 
2165	 7.62825439821746E-02 
2166	 7.69659968589579E-02 
2167	 7.74252678303049E-02 
2168	 7.76619467093653E-02 
2169	 7.76519635626609E-02 
2170	 7.77547912447002E-02 
2171	 7.76533863117235E-02 
2172	 7.77854086416411E-02 
2173	 7.81019443323263E-02 
2174	 7.81509321468898E-02 
2175	 7.80702026643072E-02 
2176	 0.078000719004644 
2177	 7.77865163206725E-02 
2178	 7.77720692765808E-02 
2179	 7.75444918819831E-02 
2180	 7.74022116633384E-02 
2181	 7.75095516037666E-02 
2182	 7.74625675115506E-02 
2183	 7.79765687801357E-02 
2184	 7.82396272231959E-02 
2185	 7.84062116565019E-02 
2186	 7.91171054257148E-02 
2187	 7.95773097528458E-02 
2188	 8.01761208739325E-02 
2189	 8.06377219208663E-02 
2190	 8.11498121073127E-02 
2191	 8.06772019982302E-02 
2192	 8.10046413967242E-02 
2193	 8.06429636010486E-02 
2194	 0.079674692018913 
2195	 7.99999032873546E-02 
2196	 7.96508225040315E-02 
2197	 7.95060438648134E-02 
2198	 8.02235637673118E-02 
2199	 8.03311617787145E-02 
2200	 8.08278286472997E-02 
2201	 8.14273600292759E-02 
2202	 8.13099751663788E-02 
2203	 8.11607737836338E-02 
2204	 0.081112282677794 
2205	 0.080882898395118 
2206	 8.07613758574583E-02 
2207	 8.10388869559874E-02 
2208	 8.11441793415701E-02 
2209	 8.09050339243166E-02 
2210	 8.09281894317146E-02 
2211	 8.12286073850275E-02 
2212	 8.11405473645296E-02 
2213	 0.080782170476733 
2214	 8.17661788207218E-02 
2215	 8.20574592150463E-02 
2216	 8.20907992368731E-02 
2217	 8.27951621498564E-02 
2218	 8.24126719342922E-02 
2219	 8.19332475187134E-02 
2220	 8.13262854988423E-02 
2221	 8.07579184331898E-02 
2222	 8.07888709807194E-02 
2223	 8.08317756173392E-02 
2224	 8.11117050590496E-02 
2225	 8.11823048372124E-02 
2226	 8.09792713663545E-02 
2227	 0.080871407601493 
2228	 8.10835422986252E-02 
2229	 8.13792199788077E-02 
2230	 8.09932145317988E-02 
2231	 8.05157985301432E-02 
2232	 7.91181249254352E-02 
2233	 7.88201164244973E-02 
2234	 7.88715744839465E-02 
2235	 7.92263113969242E-02 
2236	 7.99254273539671E-02 
2237	 8.01770141255096E-02 
2238	 8.00277079594812E-02 
2239	 7.99044056338558E-02 
2240	 7.96449131987256E-02 
2241	 7.93457563452958E-02 
2242	 7.91660379091448E-02 
2243	 7.90697266800747E-02 
2244	 7.87191548188488E-02 
2245	 7.82418890377718E-02 
2246	 7.75238489535707E-02 
2247	 7.66388433217868E-02 
2248	 0.075833006817654 
2249	 0.075395623411401 
2250	 7.47116490525178E-02 
2251	 7.38152618610062E-02 
2252	 7.39435885147029E-02 
2253	 7.40835560107638E-02 
2254	 7.41964142510185E-02 
2255	 7.46005114948866E-02 
2256	 7.44738024426004E-02 
2257	 7.38326066971908E-02 
2258	 7.28869112123051E-02 
2259	 0.071572388301645 
2260	 7.03500734320849E-02 
2261	 6.99030728679804E-02 
2262	 6.97845586433281E-02 
2263	 7.03523654871856E-02 
2264	 7.08393513655791E-02 
2265	 7.01904404841097E-02 
2266	 6.93265358158408E-02 
2267	 6.86918967942778E-02 
2268	 6.80491336859069E-02 
2269	 6.79316539392162E-02 
2270	 6.76998443528453E-02 
2271	 6.69401832810198E-02 
2272	 6.64158050241925E-02 
2273	 6.59728800626061E-02 
2274	 6.58913760220109E-02 
2275	 6.59113590103592E-02 
2276	 6.63428713810904E-02 
2277	 6.70467627110927E-02 
2278	 6.68999566760284E-02 
2279	 6.66449376351357E-02 
2280	 6.62874153726624E-02 
2281	 6.57529933766734E-02 
2282	 6.57121129261915E-02 
2283	 6.59242433741011E-02 
2284	 6.57714629456322E-02 
2285	 6.53734352948892E-02 
2286	 6.51683920454649E-02 
2287	 0.064895871055826 
2288	 6.44922951321299E-02 
2289	 6.41765872229159E-02 
2290	 6.45315743418821E-02 
2291	 6.47140869477823E-02 
2292	 6.50726246892591E-02 
2293	 6.56075944528713E-02 
2294	 6.49832036015422E-02 
2295	 6.40263702530077E-02 
2296	 6.24208520200703E-02 
2297	 0.061291204355516 
2298	 6.11355667057869E-02 
2299	 6.06320913682907E-02 
2300	 6.06546934650858E-02 
2301	 0.060502121003118 
2302	 5.96822162174952E-02 
2303	 5.87495921708303E-02 
2304	 0.058085586457989 
2305	 5.82254883145608E-02 
2306	 5.82244158674996E-02 
2307	 5.82409447630182E-02 
2308	 5.83509670426499E-02 
2309	 5.71311096447486E-02 
2310	 0.056076988067104 
2311	 0.056748550482519 
2312	 5.73135727919908E-02 
2313	 5.74788009774545E-02 
2314	 0.058418584215574 
2315	 5.88608145683566E-02 
2316	 0.058070987026019 
2317	 5.69897227451893E-02 
2318	 5.62146062513907E-02 
2319	 5.56230084081395E-02 
2320	 5.64112351760458E-02 
2321	 5.72001780602367E-02 
2322	 5.98716353436411E-02 
2323	 6.05700407159163E-02 
2324	 6.08146181097242E-02 
2325	 0.058809375707583 
2326	 5.68486675364646E-02 
2327	 5.55655925555087E-02 
2328	 5.45728313835654E-02 
2329	 5.58757442840421E-02 
2330	 0.05831441660054 
2331	 6.00104573413996E-02 
2332	 0.060502485889342 
2333	 5.91932675088541E-02 
2334	 5.76317827383789E-02 
2335	 5.59708177900379E-02 
2336	 5.39665439618207E-02 
2337	 5.45425060114245E-02 
2338	 5.54948735194559E-02 
2339	 5.57066803961193E-02 
2340	 5.76547938490863E-02 
2341	 5.72535376824047E-02 
2342	 5.53903080415627E-02 
2343	 5.43359515187033E-02 
2344	 5.16372194496376E-02 
2345	 5.10377262721879E-02 
2346	 5.24290042199586E-02 
2347	 5.36906078243443E-02 
2348	 5.57574727876077E-02 
2349	 5.69333015769208E-02 
2350	 5.60631991313958E-02 
2351	 5.46141998264096E-02 
2352	 5.24198687939811E-02 
2353	 5.06215009629665E-02 
2354	 5.11872890290046E-02 
2355	 5.16222659584052E-02 
2356	 5.23901299436879E-02 
2357	 5.33989373820537E-02 
2358	 5.29678732203036E-02 
2359	 5.19951608677802E-02 
2360	 5.13895417130658E-02 
2361	 5.06256759122714E-02 
2362	 5.09847679899439E-02 
2363	 5.16305188258185E-02 
2364	 5.18945778581347E-02 
2365	 5.28635374090377E-02 
2366	 5.14594554375741E-02 
2367	 5.17088198162586E-02 
2368	 5.36554016370661E-02 
2369	 5.46862409800361E-02 
2370	 0.056898184062172 
2371	 5.47828610275058E-02 
2372	 5.32220894908845E-02 
2373	 4.96665135551612E-02 
2374	 4.77189407023586E-02 
2375	 4.62608047491087E-02 
2376	 4.64055170436712E-02 
2377	 4.82662342941593E-02 
2378	 4.90523071592806E-02 
2379	 4.95880180213068E-02 
2380	 5.00525097167123E-02 
2381	 4.96347129446792E-02 
2382	 4.94304623456289E-02 
2383	 5.08755464056564E-02 
2384	 5.10952828093559E-02 
2385	 4.90112909204767E-02 
2386	 4.91589260018475E-02 
2387	 5.13024164469309E-02 
2388	 5.11162623682554E-02 
2389	 5.14244714812232E-02 
2390	 5.17741287952722E-02 
2391	 4.88799448213155E-02 
2392	 4.75285127211682E-02 
2393	 4.85300307674265E-02 
2394	 4.75779864811916E-02 
2395	 4.47584815355855E-02 
2396	 4.47274246483942E-02 
2397	 4.63147686508406E-02 
2398	 4.66380525412646E-02 
2399	 4.91017961833239E-02 
2400	 4.97032656764765E-02 
2401	 4.93484211882897E-02 
2402	 4.42312057109858E-02 
2403	 4.18269924154468E-02 
2404	 3.87250843605025E-02 
2405	 0.034671142045339 
2406	 3.77877943759866E-02 
2407	 4.29039242251317E-02 
2408	 4.52246623301853E-02 
2409	 4.71731308292369E-02 
2410	 4.88616054276144E-02 
2411	 4.89973623556598E-02 
2412	 0.048658379550395 
2413	 0.050217753837075 
2414	 4.87888694275566E-02 
2415	 4.52782776203835E-02 
2416	 3.93850802397149E-02 
2417	 3.16287035986419E-02 
2418	 3.09433667223169E-02 
2419	 3.11886546720395E-02 
2420	 0.031762324517074 
2421	 3.59886089222988E-02 
2422	 3.60157928269642E-02 
2423	 0.037897197761437 
2424	 4.32672647803917E-02 
2425	 4.33982166182577E-02 
2426	 4.38370616431301E-02 
2427	 0.043963251967735 
2428	 0.03993905809968 
2429	 3.98652764618873E-02 
2430	 4.05194824399363E-02 
2431	 3.96582230312575E-02 
2432	 0.040419182203329 
2433	 3.61801657212574E-02 
2434	 3.60753878527737E-02 
2435	 3.76940443021539E-02 
2436	 3.76097828149542E-02 
2437	 4.00002794433907E-02 
2438	 4.13527495324469E-02 
2439	 4.07913498292892E-02 
2440	 3.82564272247282E-02 
2441	 3.43302326449169E-02 
2442	 3.38411740623816E-02 
2443	 3.29648941473585E-02 
2444	 3.13089082163626E-02 
2445	 3.30938327357665E-02 
2446	 3.34324429493843E-02 
2447	 2.64802702915963E-02 
2448	 2.70825877521919E-02 
2449	 3.95280259853117E-02 
2450	 4.07744587875205E-02 
2451	 3.93541850374219E-02 
2452	 3.79583059370507E-02 
2453	 2.67789592887298E-02 
2454	 2.32372929472791E-02 
2455	 2.48354006753614E-02 
2456	 0.02415343895212 
2457	 2.45445750581031E-02 
2458	 2.57361450059457E-02 
2459	 2.70882086943293E-02 
2460	 0.028138425641313 
2461	 3.23114641274443E-02 
2462	 3.08778234768569E-02 
2463	 2.37840216231871E-02 
2464	 2.09874768254008E-02 
2465	 1.38940060789598E-02 
2466	 0.015702642850961 
2467	 3.28916345133361E-02 
2468	 3.44563894658645E-02 
2469	 2.59305770765843E-02 
2470	 2.91018836049306E-02 
2471	 2.89559468048109E-02 
2472	 2.94204471897363E-02 
2473	 5.16536534568801E-02 
2474	 5.53453643509328E-02 
2475	 3.35357445703176E-02 
2476	 2.78808575149177E-02 
2477	 2.63120191721437E-02 
2478	 0.017438377643798 
2479	 5.32331020537898E-03 
2480	 3.06235825621662E-04 
2481	-6.95202304298802E-04 
2482	-9.0006768947556E-03 
2483	-1.10754226398111E-02 
2484	 2.80120835580261E-03 
2485	 1.54474482502238E-02 
2486	 3.98861003723034E-03 
2487	-2.76468504489173E-03 
2488	-0.029120517685213 
2489	-2.03089013334051E-02 
2490	-2.30359276541076E-02 
2491	-3.21063164941943E-02 
2492	-3.46221509950546E-02 
2493	-5.43843947669144E-02 
2494	 2.40910884711513E-03 
2495	 6.82781286045102E-02 
2496	 0.062891734387176 
2497	 5.49133889512672E-02 
2498	 1.87426066805188E-02 
2499	 1.43798749092712E-02 
2500	 5.65627276035158E-02 
