Wavelength	ref00136.asd
350	 2.34517468825047 
351	 2.35595150549068 
352	 2.41220870506266 
353	 2.31120951289265 
354	 2.33323269111897 
355	 2.37627920960831 
356	 2.34533686361078 
357	 2.30178261383364 
358	 2.33477684291451 
359	 2.35090398290928 
360	 2.26054622807131 
361	 2.2347659455992 
362	 2.2478573629466 
363	 2.26612218981658 
364	 2.25673346788359 
365	 2.23565223551212 
366	 2.2180910840746 
367	 2.20764303975959 
368	 2.19214022445917 
369	 2.18416476457677 
370	 2.1840415996836 
371	 2.18072841412311 
372	 2.13690548881497 
373	 2.1043824754054 
374	 2.09826584843333 
375	 2.10873042448771 
376	 2.08979940375549 
377	 2.05427070885392 
378	 2.02798131302302 
379	 2.04212906104185 
380	 2.01642208227137 
381	 1.98540946654753 
382	 1.98175082079629 
383	 1.96814932914353 
384	 1.95829157328417 
385	 1.95255147282456 
386	 1.94366572201595 
387	 1.9149875296104 
388	 1.8760121657055 
389	 1.85072387645803 
390	 1.86719648455336 
391	 1.84434192009215 
392	 1.82488006259631 
393	 1.83445487358774 
394	 1.81575584693308 
395	 1.79439799195469 
396	 1.77482904552231 
397	 1.75473884035294 
398	 1.73297860358547 
399	 1.72016257589391 
400	 1.70864691928953 
401	 1.68051201354966 
402	 1.67171059020265 
403	 1.66580179538639 
404	 1.65184274125029 
405	 1.64407144117975 
406	 1.62860880134863 
407	 1.61215036677601 
408	 1.60409329801799 
409	 1.59307010747963 
410	 1.57719209664025 
411	 1.55830829080226 
412	 1.54133248072238 
413	 1.53171079287758 
414	 1.52573460462362 
415	 1.51710177298217 
416	 1.49612716918988 
417	 1.48409416974594 
418	 1.47658832249314 
419	 1.4631365773464 
420	 1.44805087491502 
421	 1.44031630553449 
422	 1.43590844657195 
423	 1.42113395220155 
424	 1.40965387107818 
425	 1.40048659946003 
426	 1.39266221366759 
427	 1.39130739367671 
428	 1.38475577696098 
429	 1.37388066365681 
430	 1.36326585030575 
431	 1.35095329260036 
432	 1.34016363319166 
433	 1.33136243545641 
434	 1.32254866449731 
435	 1.31224998520846 
436	 1.30481277325091 
437	 1.30085661399954 
438	 1.29142458163018 
439	 1.28661850552191 
440	 1.28175125735365 
441	 1.26999777176606 
442	 1.26020595414552 
443	 1.25257703401768 
444	 1.24641819004152 
445	 1.2405230860225 
446	 1.23301499484598 
447	 1.22618178453883 
448	 1.22090777563819 
449	 1.21317280541752 
450	 1.20442702337204 
451	 1.19683307510519 
452	 1.19192994239455 
453	 1.18549235021435 
454	 1.17902087660059 
455	 1.17314088118608 
456	 1.16705085537993 
457	 1.16092946301681 
458	 1.15411038625542 
459	 1.14661511680971 
460	 1.14099047230159 
461	 1.13525944201206 
462	 1.12948093632278 
463	 1.12468289433938 
464	 1.12034637660311 
465	 1.11507511809665 
466	 1.10934883396509 
467	 1.10646237973862 
468	 1.10146283788617 
469	 1.09604756025281 
470	 1.09210079920356 
471	 1.08477423449612 
472	 1.0782225265221 
473	 1.07374162049359 
474	 1.07025392656104 
475	 1.06584091054134 
476	 1.06128282908028 
477	 1.05707581245392 
478	 1.05251665798549 
479	 1.04738649386568 
480	 1.04297529875687 
481	 1.04028803451768 
482	 1.03606620113117 
483	 1.03329209968697 
484	 1.03207951543589 
485	 1.02953603773931 
486	 1.02571895279521 
487	 1.02098539605006 
488	 1.01598832486828 
489	 1.01167165353328 
490	 1.00676930205053 
491	 1.00241915455816 
492	 0.999959797825569 
493	 0.995706504256812 
494	 0.991985941218162 
495	 0.989384322757091 
496	 0.985858383535891 
497	 0.981996634379337 
498	 0.979027344895606 
499	 0.977066020489911 
500	 0.971854480503153 
501	 0.967784261379788 
502	 0.964552239255641 
503	 0.959266519716387 
504	 0.954386375921836 
505	 0.949298395425429 
506	 0.944336884371956 
507	 0.94189971179777 
508	 0.939218013431855 
509	 0.9355417437928 
510	 0.93101464554367 
511	 0.926656521674843 
512	 0.922525320202751 
513	 0.918776753812931 
514	 0.915595402579306 
515	 0.912711402763735 
516	 0.910138833290035 
517	 0.907644751254271 
518	 0.904487931054847 
519	 0.899409195636255 
520	 0.893469187580154 
521	 0.888379007555454 
522	 0.883514882732439 
523	 0.880143230789006 
524	 0.87816171888063 
525	 0.875965660692351 
526	 0.872951858612231 
527	 0.869771942412152 
528	 0.867059222911372 
529	 0.864351459043036 
530	 0.861911225686198 
531	 0.86000266830289 
532	 0.858775478421851 
533	 0.857584210145059 
534	 0.856364695307707 
535	 0.854992963343953 
536	 0.853087055935075 
537	 0.85140934176798 
538	 0.850858893249069 
539	 0.851702356541803 
540	 0.851558309984663 
541	 0.850831967649322 
542	 0.850213466979497 
543	 0.850403951974878 
544	 0.849779359434713 
545	 0.849679352243088 
546	 0.851029622275349 
547	 0.852844369452749 
548	 0.854644177991386 
549	 0.856733739757075 
550	 0.859550579898463 
551	 0.861917608243833 
552	 0.864179308871196 
553	 0.866884902053695 
554	 0.870646755558046 
555	 0.873265728584507 
556	 0.876223857903627 
557	 0.881113589891048 
558	 0.886752462528856 
559	 0.892585082692075 
560	 0.898245731919574 
561	 0.903844085992817 
562	 0.912118098442488 
563	 0.920250499107781 
564	 0.927375110792496 
565	 0.93726877654357 
566	 0.947894085618934 
567	 0.958301385283883 
568	 0.96843402224306 
569	 0.980776769673651 
570	 0.993817284838579 
571	 1.00672456294797 
572	 1.01954898612655 
573	 1.03227529289171 
574	 1.04558217192665 
575	 1.05940027370087 
576	 1.07120368938983 
577	 1.08264685507302 
578	 1.09440498746833 
579	 1.10679457635353 
580	 1.12037730407357 
581	 1.13455975776401 
582	 1.14892615498277 
583	 1.16350530749271 
584	 1.17799785564637 
585	 1.19197238218807 
586	 1.2051434987367 
587	 1.21792674126566 
588	 1.23102700119968 
589	 1.24472777086384 
590	 1.25860535222122 
591	 1.27114944921867 
592	 1.28403739481019 
593	 1.29765759327789 
594	 1.30826258071614 
595	 1.32024072159676 
596	 1.33264525288226 
597	 1.34317358917796 
598	 1.35221819362452 
599	 1.36068368504509 
600	 1.36859422795381 
601	 1.375112009095 
602	 1.38155442229777 
603	 1.38822288986553 
604	 1.39500801343791 
605	 1.40155031339533 
606	 1.40688302448041 
607	 1.41177822363488 
608	 1.41759310602152 
609	 1.42280208795836 
610	 1.4270925189593 
611	 1.43047768162877 
612	 1.43323131514735 
613	 1.43734097145485 
614	 1.4415607442872 
615	 1.44433487361099 
616	 1.44661598841768 
617	 1.44894043790355 
618	 1.45091348365432 
619	 1.45167042551289 
620	 1.45226589037289 
621	 1.45286142343684 
622	 1.45338095386966 
623	 1.45355042589077 
624	 1.45362965531912 
625	 1.45322275428915 
626	 1.45197088312813 
627	 1.45074525895753 
628	 1.44977658032099 
629	 1.44906043023623 
630	 1.4483776115637 
631	 1.44721542944006 
632	 1.44552241905336 
633	 1.44380054599107 
634	 1.44366436910543 
635	 1.44366779611755 
636	 1.4435273512324 
637	 1.44351699121314 
638	 1.44389106979837 
639	 1.44462590782403 
640	 1.44543526495462 
641	 1.44573199563713 
642	 1.44646144401456 
643	 1.44783064398899 
644	 1.44929367930295 
645	 1.4484697342327 
646	 1.44791256695694 
647	 1.44805073485008 
648	 1.44811941191133 
649	 1.44964413993047 
650	 1.45105298372555 
651	 1.45163855326003 
652	 1.45273270348497 
653	 1.45302391707063 
654	 1.45317810148105 
655	 1.45440153968695 
656	 1.45773353504844 
657	 1.45966182990938 
658	 1.4602377677735 
659	 1.46258164081804 
660	 1.46604823485499 
661	 1.46948364292285 
662	 1.47224798638163 
663	 1.47503947848288 
664	 1.47825442560105 
665	 1.48162381415642 
666	 1.48477621368142 
667	 1.48813791507498 
668	 1.49177448596443 
669	 1.49513331977925 
670	 1.49731860303539 
671	 1.50027786856156 
672	 1.50279374565236 
673	 1.50418241146771 
674	 1.506451963814 
675	 1.5084719056904 
676	 1.50953582110629 
677	 1.5095371306546 
678	 1.51087748723355 
679	 1.51192578417005 
680	 1.51200423635752 
681	 1.5116831696165 
682	 1.51094661010941 
683	 1.50866741655042 
684	 1.50435203705737 
685	 1.49945760341982 
686	 1.49455458112478 
687	 1.48839599587679 
688	 1.48014170067498 
689	 1.47426941263179 
690	 1.46759075336201 
691	 1.45845691521846 
692	 1.44788848543446 
693	 1.43624043592783 
694	 1.42508571955489 
695	 1.41581410527738 
696	 1.40879324301952 
697	 1.40248842120599 
698	 1.39493714305372 
699	 1.38494533491733 
700	 1.37669286327031 
701	 1.3690283056898 
702	 1.3615930822323 
703	 1.35538162441049 
704	 1.34972076879987 
705	 1.34398647865955 
706	 1.33789082360183 
707	 1.33204576112884 
708	 1.32668796049316 
709	 1.3213456398794 
710	 1.31548864052583 
711	 1.31035521355221 
712	 1.30456307576516 
713	 1.2982706399045 
714	 1.29342671417097 
715	 1.28597420627197 
716	 1.27601592177835 
717	 1.26470813862822 
718	 1.25411936851041 
719	 1.24745999834148 
720	 1.24475328814197 
721	 1.24345801718593 
722	 1.24196302860837 
723	 1.23717050549991 
724	 1.2294880085442 
725	 1.22367818452676 
726	 1.21917784286614 
727	 1.21558027037509 
728	 1.21248301799881 
729	 1.21008046486171 
730	 1.2073833160053 
731	 1.20525119305807 
732	 1.20475433773398 
733	 1.20446010081359 
734	 1.20348938656695 
735	 1.20141302262815 
736	 1.19833411421027 
737	 1.1968722090186 
738	 1.19514532080022 
739	 1.19229025459877 
740	 1.19132634967128 
741	 1.19019571736168 
742	 1.18856326255315 
743	 1.18665812519744 
744	 1.18443845314976 
745	 1.18213008030896 
746	 1.18008980530171 
747	 1.1786083721951 
748	 1.17634120953406 
749	 1.17354724703335 
750	 1.1707984400752 
751	 1.16877498027371 
752	 1.16673035305814 
753	 1.16449849706393 
754	 1.16199205763484 
755	 1.15870846505662 
756	 1.15591748690599 
757	 1.15294013277958 
758	 1.148414704844 
759	 1.1467272772578 
760	 1.14491390946912 
761	 1.14019713464728 
762	 1.13510532118824 
763	 1.13306602262879 
764	 1.13138085428598 
765	 1.12859660117481 
766	 1.12684264966345 
767	 1.12396654366725 
768	 1.12085513127851 
769	 1.11864737345026 
770	 1.11565440016973 
771	 1.11241908798904 
772	 1.10919972583805 
773	 1.105880610844 
774	 1.10182700225443 
775	 1.09857027812355 
776	 1.09628449837294 
777	 1.09237437485862 
778	 1.08857683154235 
779	 1.08528645377048 
780	 1.08233191567157 
781	 1.07880828624211 
782	 1.0756541013644 
783	 1.07292053673989 
784	 1.07005332690374 
785	 1.06609317742976 
786	 1.06217545248742 
787	 1.05863913791084 
788	 1.05483002178286 
789	 1.05095212417386 
790	 1.0473660848804 
791	 1.04437366769222 
792	 1.04217193801013 
793	 1.03967781372056 
794	 1.03686007463038 
795	 1.0339442649358 
796	 1.03046198517272 
797	 1.02743339684343 
798	 1.02487638594617 
799	 1.02223025744687 
800	 1.01956369108907 
801	 1.01652208503115 
802	 1.01336903919771 
803	 1.01097135716802 
804	 1.00858270434062 
805	 1.00606879825266 
806	 1.00352308074051 
807	 1.00127431139526 
808	 0.998145763253211 
809	 0.99486559955041 
810	 0.992091602876241 
811	 0.987694614959549 
812	 0.983047570942929 
813	 0.978530652008974 
814	 0.973913254952992 
815	 0.968877102634737 
816	 0.965282123683337 
817	 0.963131343886582 
818	 0.960381968848277 
819	 0.959404203288814 
820	 0.958994183500343 
821	 0.957765029322918 
822	 0.955008806230496 
823	 0.953006905019874 
824	 0.950814547851935 
825	 0.947834872486328 
826	 0.947009832634608 
827	 0.945761887220476 
828	 0.944046802151603 
829	 0.942519669141509 
830	 0.939052146645893 
831	 0.937424008468428 
832	 0.937240094007505 
833	 0.935267629508657 
834	 0.934056994194937 
835	 0.932591025082714 
836	 0.93097552121553 
837	 0.930902085573918 
838	 0.929963008057169 
839	 0.928324556106672 
840	 0.926529186643295 
841	 0.92475277146577 
842	 0.923698275345144 
843	 0.922358535746237 
844	 0.920019414830999 
845	 0.918632934940494 
846	 0.916694377275285 
847	 0.91481629123169 
848	 0.914073996355068 
849	 0.912844313006338 
850	 0.91084980515405 
851	 0.908597815467221 
852	 0.90711516205727 
853	 0.906991921311523 
854	 0.906378413665065 
855	 0.904250121252622 
856	 0.901116549562876 
857	 0.899850048598419 
858	 0.898258317124076 
859	 0.895953285283875 
860	 0.896642870263778 
861	 0.894930192627905 
862	 0.892833026539467 
863	 0.892613891979924 
864	 0.892353637037513 
865	 0.892068708966237 
866	 0.891178466119193 
867	 0.88935202318161 
868	 0.88771736236391 
869	 0.885338324555947 
870	 0.883614053576573 
871	 0.884037945759556 
872	 0.883102008907737 
873	 0.882620040631894 
874	 0.882009531768721 
875	 0.879504342905506 
876	 0.878895209462034 
877	 0.878640385369535 
878	 0.877658891037332 
879	 0.876102512000057 
880	 0.876428170256999 
881	 0.875419784801092 
882	 0.872922597089632 
883	 0.873654393954595 
884	 0.873340075570603 
885	 0.872412729438105 
886	 0.871740713229792 
887	 0.871236457349389 
888	 0.870224207967373 
889	 0.868660387421304 
890	 0.866936467805652 
891	 0.866072457298757 
892	 0.864195959745028 
893	 0.862006304283 
894	 0.860461705508054 
895	 0.85814548797831 
896	 0.856978047495627 
897	 0.856285198140101 
898	 0.854814091729444 
899	 0.854368681771284 
900	 0.853828024088695 
901	 0.852698245083894 
902	 0.851441189912686 
903	 0.853207492081432 
904	 0.85243063760866 
905	 0.850275426992216 
906	 0.851339819774794 
907	 0.8516453175357 
908	 0.850691452532787 
909	 0.848975228365483 
910	 0.84765260320369 
911	 0.847417318080397 
912	 0.847142138760937 
913	 0.846410724901768 
914	 0.845775646743491 
915	 0.84574534736704 
916	 0.845826730574065 
917	 0.846496797625062 
918	 0.849062410942017 
919	 0.849958518333648 
920	 0.850316253503375 
921	 0.851038447094546 
922	 0.851704087386539 
923	 0.851689911291256 
924	 0.851391827371771 
925	 0.850484342099376 
926	 0.847406146817073 
927	 0.84532896719067 
928	 0.843530258882572 
929	 0.840972889437101 
930	 0.83789584937181 
931	 0.835109226895675 
932	 0.833490726418616 
933	 0.832310883721144 
934	 0.827614208823945 
935	 0.826431203453557 
936	 0.825400304356976 
937	 0.823097070792198 
938	 0.826744008336236 
939	 0.828744434314074 
940	 0.82982507509341 
941	 0.831617573041074 
942	 0.833575373495106 
943	 0.834894033583888 
944	 0.83771651252765 
945	 0.842192920932456 
946	 0.842753462906445 
947	 0.839463480188424 
948	 0.836544308118543 
949	 0.838011450516779 
950	 0.844668275929244 
951	 0.847605995772113 
952	 0.845349183640382 
953	 0.84170249315934 
954	 0.845574354596821 
955	 0.85017214635079 
956	 0.854370475662898 
957	 0.857810412293083 
958	 0.859003503919723 
959	 0.86045338796602 
960	 0.864053605338292 
961	 0.868604611514604 
962	 0.868279857668583 
963	 0.876497483952964 
964	 0.880385338275952 
965	 0.875518483492261 
966	 0.88039232676266 
967	 0.882502978425041 
968	 0.883519550449838 
969	 0.885244890403958 
970	 0.885378262052408 
971	 0.890124104130025 
972	 0.8940974577287 
973	 0.894270821590053 
974	 0.894479015089936 
975	 0.893857450572309 
976	 0.89324967780959 
977	 0.894332817143623 
978	 0.8987892553103 
979	 0.9007071079861 
980	 0.901555447568527 
981	 0.901445399380837 
982	 0.898657066503644 
983	 0.901961872007036 
984	 0.90466961772524 
985	 0.903999626236257 
986	 0.903403395917297 
987	 0.909877492977984 
988	 0.910531113522103 
989	 0.906464369603598 
990	 0.908820985798998 
991	 0.909003604203167 
992	 0.910710096267565 
993	 0.913881458569635 
994	 0.915801313498257 
995	 0.91673982023827 
996	 0.913677167591072 
997	 0.912691525625365 
998	 0.918541490553335 
999	 0.912517132074346 
1000	 0.907924471787337 
1001	 0.924510155933878 
1002	 0.924444746481586 
1003	 0.924426496919665 
1004	 0.924418969610868 
1005	 0.924311906586628 
1006	 0.92440206542444 
1007	 0.924240942530841 
1008	 0.923638077768802 
1009	 0.92324900664672 
1010	 0.923065439510753 
1011	 0.922646451388907 
1012	 0.921809416332665 
1013	 0.921429611763477 
1014	 0.920936352538789 
1015	 0.92029982441192 
1016	 0.919782564058984 
1017	 0.919460218503646 
1018	 0.919410184861294 
1019	 0.919729192043414 
1020	 0.919546882029018 
1021	 0.919609402819665 
1022	 0.919286209210669 
1023	 0.918530859657025 
1024	 0.917534624721411 
1025	 0.916819422620386 
1026	 0.916258128839726 
1027	 0.915404063704699 
1028	 0.914681176955373 
1029	 0.91428024342706 
1030	 0.91350940476101 
1031	 0.912743791612092 
1032	 0.912564967094268 
1033	 0.912077456189734 
1034	 0.911429523749322 
1035	 0.910838292854449 
1036	 0.910052639517546 
1037	 0.909491989362171 
1038	 0.90914595625343 
1039	 0.908756743020785 
1040	 0.908005506143451 
1041	 0.90698013682362 
1042	 0.905377953281136 
1043	 0.904323689779677 
1044	 0.903947232197353 
1045	 0.903531327489127 
1046	 0.902990678873322 
1047	 0.902446731238777 
1048	 0.901809003535021 
1049	 0.901521697483413 
1050	 0.901174073889709 
1051	 0.901263538720989 
1052	 0.900552654196803 
1053	 0.899972590121445 
1054	 0.899714113710066 
1055	 0.899037334191749 
1056	 0.898833314231355 
1057	 0.898537931073849 
1058	 0.898157597491592 
1059	 0.898535705494324 
1060	 0.898458322154743 
1061	 0.898317089033892 
1062	 0.897989346113107 
1063	 0.897148692972738 
1064	 0.897245292934889 
1065	 0.897015200477988 
1066	 0.896888463501802 
1067	 0.896501202085225 
1068	 0.896405613481156 
1069	 0.895634072025936 
1070	 0.895529229337774 
1071	 0.895795660301228 
1072	 0.895415128063423 
1073	 0.895868718605293 
1074	 0.896055119234875 
1075	 0.895220891751983 
1076	 0.894450092856663 
1077	 0.893622329737797 
1078	 0.892899011136606 
1079	 0.89285744786065 
1080	 0.893403786029068 
1081	 0.893210784428969 
1082	 0.892727232758428 
1083	 0.891590558059908 
1084	 0.891046857060844 
1085	 0.890649690194326 
1086	 0.890083196784398 
1087	 0.890396167875581 
1088	 0.890434171239995 
1089	 0.889206352315407 
1090	 0.888313340165931 
1091	 0.887422746608534 
1092	 0.88611826200532 
1093	 0.885292675460107 
1094	 0.884464781271998 
1095	 0.883548349638982 
1096	 0.88271104563239 
1097	 0.882011066361243 
1098	 0.880861296986789 
1099	 0.87959041025814 
1100	 0.878273285114011 
1101	 0.876645803912789 
1102	 0.875282686976725 
1103	 0.873899469436327 
1104	 0.872397528914426 
1105	 0.871061344485434 
1106	 0.869190058702019 
1107	 0.867490794194213 
1108	 0.865821552002047 
1109	 0.863479491609116 
1110	 0.860932800888663 
1111	 0.858046754469572 
1112	 0.854362628691087 
1113	 0.850993255257441 
1114	 0.847290107023595 
1115	 0.843525439012207 
1116	 0.839708472089418 
1117	 0.835949413661857 
1118	 0.831628169626579 
1119	 0.827210929731466 
1120	 0.823637821299149 
1121	 0.820135029402095 
1122	 0.816809198686871 
1123	 0.814930701573656 
1124	 0.813417515960013 
1125	 0.811896676458696 
1126	 0.811842893819441 
1127	 0.81343548235918 
1128	 0.814668428064263 
1129	 0.816621499069784 
1130	 0.818386722623836 
1131	 0.819764462419691 
1132	 0.821881238581737 
1133	 0.824340371271429 
1134	 0.827251196569995 
1135	 0.830095831272362 
1136	 0.831775391046265 
1137	 0.832842733073701 
1138	 0.833386479176528 
1139	 0.833779199006829 
1140	 0.834987428548547 
1141	 0.835645833726129 
1142	 0.836142370116962 
1143	 0.836832704762866 
1144	 0.837133382680347 
1145	 0.837935156875586 
1146	 0.839121473243503 
1147	 0.840499772473365 
1148	 0.841678054874897 
1149	 0.843722004795661 
1150	 0.846436927518295 
1151	 0.84897587114931 
1152	 0.851685497935115 
1153	 0.854653167923025 
1154	 0.857374952847183 
1155	 0.859888687437274 
1156	 0.862680003076081 
1157	 0.865506979620527 
1158	 0.868146332198454 
1159	 0.87008976755962 
1160	 0.871889724281289 
1161	 0.873306147048785 
1162	 0.874910313660921 
1163	 0.876652340907141 
1164	 0.877790348598439 
1165	 0.878762712528392 
1166	 0.879521813443233 
1167	 0.879907882674661 
1168	 0.880225323734053 
1169	 0.880526460603551 
1170	 0.880545560160572 
1171	 0.880569231251227 
1172	 0.88050646795645 
1173	 0.880550096678597 
1174	 0.880856699330838 
1175	 0.880747100676094 
1176	 0.88011772662677 
1177	 0.879594644055525 
1178	 0.878791311729341 
1179	 0.878142448311912 
1180	 0.877410718281378 
1181	 0.877000250207563 
1182	 0.876662484583482 
1183	 0.876453534018155 
1184	 0.876569914506683 
1185	 0.876471072619519 
1186	 0.876508614527526 
1187	 0.876300393095566 
1188	 0.875845266606371 
1189	 0.875548925411189 
1190	 0.875027418258147 
1191	 0.874640061015251 
1192	 0.874410272201786 
1193	 0.874214072076432 
1194	 0.874073844507182 
1195	 0.874114433215695 
1196	 0.873821735127734 
1197	 0.873350970706458 
1198	 0.873090505941245 
1199	 0.872826114593532 
1200	 0.872497139727607 
1201	 0.872296631779285 
1202	 0.871975651751854 
1203	 0.871365883386559 
1204	 0.870966077458773 
1205	 0.870711705916455 
1206	 0.870459400640654 
1207	 0.870348028081075 
1208	 0.870084371345428 
1209	 0.869700242590491 
1210	 0.869371980913015 
1211	 0.869249457251093 
1212	 0.868973819177005 
1213	 0.86870791661199 
1214	 0.868536811907585 
1215	 0.868358633658075 
1216	 0.868021761431518 
1217	 0.867900180318505 
1218	 0.868053985556461 
1219	 0.867924782248417 
1220	 0.867688428564537 
1221	 0.867514032619093 
1222	 0.867394184278466 
1223	 0.867045613418508 
1224	 0.866545932118352 
1225	 0.866119778939202 
1226	 0.865589923065287 
1227	 0.865016332762916 
1228	 0.864490317032059 
1229	 0.863935743663545 
1230	 0.86331573213068 
1231	 0.862755115380139 
1232	 0.862347299664046 
1233	 0.86220630018443 
1234	 0.861819473806335 
1235	 0.861458107647244 
1236	 0.860904529378139 
1237	 0.860109032978592 
1238	 0.859522856671183 
1239	 0.858934215104307 
1240	 0.858335140683113 
1241	 0.857878386322024 
1242	 0.857281299971883 
1243	 0.85654115925053 
1244	 0.855859329949117 
1245	 0.855176113548751 
1246	 0.854490803504035 
1247	 0.85373918072808 
1248	 0.853081262660281 
1249	 0.852564067365468 
1250	 0.851890256236805 
1251	 0.851108621545735 
1252	 0.850464051760809 
1253	 0.84975014138142 
1254	 0.848890650504583 
1255	 0.848185678426741 
1256	 0.847649262347667 
1257	 0.84689815849197 
1258	 0.846066689099359 
1259	 0.845216533024112 
1260	 0.844119109956146 
1261	 0.843357367787824 
1262	 0.84279325619281 
1263	 0.842139873335137 
1264	 0.84157583039494 
1265	 0.841096036878031 
1266	 0.84064690151953 
1267	 0.840151322491225 
1268	 0.839826396870037 
1269	 0.8394205595085 
1270	 0.83880734219259 
1271	 0.838358041226298 
1272	 0.83810026032884 
1273	 0.837703871851146 
1274	 0.837413579799428 
1275	 0.837220176745355 
1276	 0.836913062466338 
1277	 0.836478866464436 
1278	 0.836334405272789 
1279	 0.836309436535452 
1280	 0.8362009581226 
1281	 0.836290224352987 
1282	 0.836207460071138 
1283	 0.835926523825309 
1284	 0.835758534616352 
1285	 0.8355621610008 
1286	 0.835512542224821 
1287	 0.835660445470117 
1288	 0.835583435914936 
1289	 0.835513222428728 
1290	 0.835399687790348 
1291	 0.835061096594349 
1292	 0.834813890073088 
1293	 0.834681532388127 
1294	 0.834478160769782 
1295	 0.834392901676187 
1296	 0.83395948786737 
1297	 0.833650714537068 
1298	 0.833259607535833 
1299	 0.833030193121825 
1300	 0.83286066165225 
1301	 0.832614754079813 
1302	 0.83249261776087 
1303	 0.832168739113121 
1304	 0.831627648507447 
1305	 0.831238065767286 
1306	 0.830714764686265 
1307	 0.830501385829097 
1308	 0.830614722192764 
1309	 0.830463098779484 
1310	 0.830417497411348 
1311	 0.830227891778306 
1312	 0.82979076927628 
1313	 0.829408962071186 
1314	 0.82895607632878 
1315	 0.828652301673118 
1316	 0.828335202540941 
1317	 0.828097447188185 
1318	 0.82817503770067 
1319	 0.828018131977032 
1320	 0.827596101801086 
1321	 0.827560233284037 
1322	 0.827019309469393 
1323	 0.826215605807654 
1324	 0.825422058259768 
1325	 0.824397039738614 
1326	 0.823419126718156 
1327	 0.822421327643738 
1328	 0.821311179743002 
1329	 0.819768154709941 
1330	 0.818957941604316 
1331	 0.81848682197938 
1332	 0.817960434061884 
1333	 0.818015212251629 
1334	 0.817739787992433 
1335	 0.817503190757764 
1336	 0.816805989741632 
1337	 0.815756816307687 
1338	 0.814817640302752 
1339	 0.813532859437697 
1340	 0.812050874951025 
1341	 0.811003761244214 
1342	 0.808954710056806 
1343	 0.805085815692255 
1344	 0.801607447318649 
1345	 0.797506471229692 
1346	 0.791938056944835 
1347	 0.787016427954805 
1348	 0.781804447238528 
1349	 0.775472105058115 
1350	 0.767607190356992 
1351	 0.759009903782468 
1352	 0.748648561344569 
1353	 0.736809542232597 
1354	 0.724208857775894 
1355	 0.709032843496465 
1356	 0.696640025631261 
1357	 0.679333505228592 
1358	 0.678620628138427 
1359	 0.65836527859814 
1360	 0.63015286817038 
1361	 0.60345440317414 
1362	 0.593430853295354 
1363	 0.5673340314071 
1364	 0.589594153914694 
1365	 0.589460183509703 
1366	 0.553579355092482 
1367	 0.551026369915396 
1368	 0.576330096410586 
1369	 0.584523782705885 
1370	 0.597711925294748 
1371	 0.599750859411974 
1372	 0.588722066229359 
1373	 0.586631449759715 
1374	 0.588495082347863 
1375	 0.583380060799563 
1376	 0.58136983315092 
1377	 0.593223498657552 
1378	 0.59564307197781 
1379	 0.597669885712451 
1380	 0.595003658577567 
1381	 0.58526848330489 
1382	 0.587130497911964 
1383	 0.590598995209394 
1384	 0.596805462713047 
1385	 0.61095485003889 
1386	 0.617151103437138 
1387	 0.61681158880671 
1388	 0.623013208803856 
1389	 0.630955051987387 
1390	 0.638550099716581 
1391	 0.649041769053572 
1392	 0.656195941098542 
1393	 0.661927102134 
1394	 0.667323091838488 
1395	 0.669293698543044 
1396	 0.67649522866421 
1397	 0.687085166279538 
1398	 0.695193836493253 
1399	 0.705426007718185 
1400	 0.714293246169271 
1401	 0.719276218270684 
1402	 0.726751032996108 
1403	 0.732423588614932 
1404	 0.742522866272647 
1405	 0.757246351194097 
1406	 0.768052316528685 
1407	 0.776383010318126 
1408	 0.785966927408149 
1409	 0.789996385661476 
1410	 0.795252442637318 
1411	 0.804559301471013 
1412	 0.816444966412957 
1413	 0.826046541243383 
1414	 0.83695368744132 
1415	 0.845152893343872 
1416	 0.851769768434647 
1417	 0.858040745456255 
1418	 0.86301158144767 
1419	 0.869586066109409 
1420	 0.8765358296772 
1421	 0.882886418077895 
1422	 0.890310657657567 
1423	 0.895830757463671 
1424	 0.900001229712706 
1425	 0.904560455141482 
1426	 0.90960426524776 
1427	 0.91337160830127 
1428	 0.916852464559295 
1429	 0.919973569568159 
1430	 0.922425814454536 
1431	 0.924517596732827 
1432	 0.926571356624148 
1433	 0.928221848356184 
1434	 0.928543643005685 
1435	 0.93006933117483 
1436	 0.932256848077493 
1437	 0.933988046051933 
1438	 0.936292896111836 
1439	 0.93807964100385 
1440	 0.938251581039581 
1441	 0.940057598417774 
1442	 0.942862627827832 
1443	 0.945077718773019 
1444	 0.947818831628652 
1445	 0.951821206585683 
1446	 0.956375018024649 
1447	 0.96038446302915 
1448	 0.963680637375305 
1449	 0.967041296388571 
1450	 0.970121973427161 
1451	 0.972220026368062 
1452	 0.974761089136467 
1453	 0.977825213909269 
1454	 0.980343625458076 
1455	 0.982855422224164 
1456	 0.9843487568844 
1457	 0.986038940340793 
1458	 0.986269798566907 
1459	 0.985273080662709 
1460	 0.984287353246158 
1461	 0.982315020199023 
1462	 0.980693449094996 
1463	 0.978756642818754 
1464	 0.976806712865579 
1465	 0.97495053699172 
1466	 0.972750420356131 
1467	 0.969556588386289 
1468	 0.967819256003494 
1469	 0.966786801754663 
1470	 0.965743220206676 
1471	 0.965765075308001 
1472	 0.965551847674381 
1473	 0.965118737821081 
1474	 0.964940407052903 
1475	 0.965067598121218 
1476	 0.965358373175888 
1477	 0.965457116724126 
1478	 0.966035572156382 
1479	 0.967572289827414 
1480	 0.968255072345053 
1481	 0.968418334419025 
1482	 0.969028744692472 
1483	 0.96921104157472 
1484	 0.96990325572115 
1485	 0.971446308556446 
1486	 0.972574812686728 
1487	 0.973847543477445 
1488	 0.974508611733512 
1489	 0.975000188248317 
1490	 0.975810980247488 
1491	 0.977363773775895 
1492	 0.978616681192587 
1493	 0.979226909393355 
1494	 0.979672678695379 
1495	 0.979832920854666 
1496	 0.979150322901785 
1497	 0.978982246306934 
1498	 0.979137939985535 
1499	 0.978946286807103 
1500	 0.978577102866814 
1501	 0.978053354315554 
1502	 0.977502362924482 
1503	 0.976645309153362 
1504	 0.975473780996757 
1505	 0.974366208088503 
1506	 0.973068864712699 
1507	 0.971996068704784 
1508	 0.970844830934851 
1509	 0.969993117542946 
1510	 0.969547556331456 
1511	 0.968633652072817 
1512	 0.967752209898182 
1513	 0.966634003875031 
1514	 0.965014889024658 
1515	 0.963810469517185 
1516	 0.962629271650702 
1517	 0.961618335443638 
1518	 0.960976898853218 
1519	 0.959948071607918 
1520	 0.958739189089433 
1521	 0.957714557436479 
1522	 0.956578207477532 
1523	 0.955512289031924 
1524	 0.95488055139581 
1525	 0.953691872837407 
1526	 0.95191118771131 
1527	 0.950622216541904 
1528	 0.949246830507242 
1529	 0.948061557821977 
1530	 0.947377302001677 
1531	 0.946398459245105 
1532	 0.945359584015296 
1533	 0.944196143110866 
1534	 0.942685761510529 
1535	 0.94159240478775 
1536	 0.940806409609999 
1537	 0.939667419023176 
1538	 0.938594257384461 
1539	 0.937510882263633 
1540	 0.935984371631176 
1541	 0.934738655127049 
1542	 0.933896225727739 
1543	 0.932831336982061 
1544	 0.931745766047033 
1545	 0.930551194402179 
1546	 0.929085512984169 
1547	 0.92783299119531 
1548	 0.926617909184079 
1549	 0.92541754974954 
1550	 0.924288415871602 
1551	 0.923296749263614 
1552	 0.922541922183542 
1553	 0.921493883546489 
1554	 0.920346354774046 
1555	 0.919284071963574 
1556	 0.917986236431131 
1557	 0.91678010876649 
1558	 0.91584710442839 
1559	 0.914778134972071 
1560	 0.913388136944781 
1561	 0.912313568009839 
1562	 0.911510812978204 
1563	 0.910561290241137 
1564	 0.909567906920835 
1565	 0.908908583190141 
1566	 0.907942193716747 
1567	 0.906633989390134 
1568	 0.905442478590379 
1569	 0.904079540868863 
1570	 0.90324366802281 
1571	 0.902637565818193 
1572	 0.901753677236135 
1573	 0.90112757558101 
1574	 0.900304021182787 
1575	 0.899155120172661 
1576	 0.898162983812052 
1577	 0.897406161075934 
1578	 0.896396983067871 
1579	 0.895031843464457 
1580	 0.894240534052962 
1581	 0.89379502684328 
1582	 0.892924728020878 
1583	 0.892112986344749 
1584	 0.891265940701259 
1585	 0.890134316395575 
1586	 0.889184692807842 
1587	 0.888483274990161 
1588	 0.887511725673552 
1589	 0.886263776064477 
1590	 0.885347192468989 
1591	 0.884537080636884 
1592	 0.883706345106711 
1593	 0.883221130436251 
1594	 0.881960149799917 
1595	 0.880115495396163 
1596	 0.879005346548513 
1597	 0.877698605824373 
1598	 0.876771087171126 
1599	 0.876770346403966 
1600	 0.875672435973349 
1601	 0.873906438105729 
1602	 0.872743667603817 
1603	 0.871325194670891 
1604	 0.870441734426567 
1605	 0.870233480107238 
1606	 0.869468073457394 
1607	 0.868749425501931 
1608	 0.867680331832858 
1609	 0.866155034651036 
1610	 0.86512251769132 
1611	 0.864075306933749 
1612	 0.863182648805429 
1613	 0.862660062197797 
1614	 0.861878275672099 
1615	 0.860983312391768 
1616	 0.860166757955961 
1617	 0.859431352705484 
1618	 0.858488597449863 
1619	 0.857387238463249 
1620	 0.856506515625699 
1621	 0.855595656054737 
1622	 0.854718293365717 
1623	 0.854117967381412 
1624	 0.853093689856842 
1625	 0.851609290706742 
1626	 0.850878826349332 
1627	 0.850360504265859 
1628	 0.849715335735477 
1629	 0.849547880216896 
1630	 0.848871238499503 
1631	 0.847717372570899 
1632	 0.846877475422414 
1633	 0.846114524606896 
1634	 0.845321640765647 
1635	 0.844507575298207 
1636	 0.843773572946618 
1637	 0.843052432557547 
1638	 0.842431658665336 
1639	 0.841950357620923 
1640	 0.84131308860948 
1641	 0.840611887126254 
1642	 0.840119766354728 
1643	 0.839721141145319 
1644	 0.839113990503122 
1645	 0.838436564931513 
1646	 0.838149133494195 
1647	 0.838018185937582 
1648	 0.837436376827394 
1649	 0.837025927354688 
1650	 0.836439495639563 
1651	 0.835263777474802 
1652	 0.834463403154176 
1653	 0.833972362687914 
1654	 0.833562227082889 
1655	 0.833165188837781 
1656	 0.832397067146636 
1657	 0.831828408769613 
1658	 0.830206103013891 
1659	 0.828938354670358 
1660	 0.828467863157092 
1661	 0.827820723008997 
1662	 0.827267648041186 
1663	 0.826761911068512 
1664	 0.825060420488157 
1665	 0.823488394085399 
1666	 0.82253949981151 
1667	 0.821196776643098 
1668	 0.820318268008614 
1669	 0.819848384606027 
1670	 0.818719725963328 
1671	 0.817423277166342 
1672	 0.816641434732023 
1673	 0.815538052506509 
1674	 0.814518639894868 
1675	 0.813823105380416 
1676	 0.812763102401103 
1677	 0.812019486066942 
1678	 0.81134304974626 
1679	 0.810696749513829 
1680	 0.810527680234337 
1681	 0.81020296724176 
1682	 0.80984709586248 
1683	 0.809540710394788 
1684	 0.809175897000598 
1685	 0.809044917973568 
1686	 0.80874943489992 
1687	 0.808169085634623 
1688	 0.807706194336228 
1689	 0.807252708540464 
1690	 0.807127397361503 
1691	 0.807014139999721 
1692	 0.807041333961656 
1693	 0.806649612786836 
1694	 0.80578430151302 
1695	 0.805448965888965 
1696	 0.805075762792169 
1697	 0.804865656585357 
1698	 0.805068391030907 
1699	 0.805315489729135 
1700	 0.805942411773547 
1701	 0.806040654169742 
1702	 0.805891517255224 
1703	 0.806108346259083 
1704	 0.805825539844076 
1705	 0.805903353816094 
1706	 0.806882735341569 
1707	 0.807194081861583 
1708	 0.806837533123239 
1709	 0.807330221320347 
1710	 0.808146623072636 
1711	 0.808720672551571 
1712	 0.810101502310401 
1713	 0.810406382380455 
1714	 0.809551425467673 
1715	 0.809469268383463 
1716	 0.809296424543892 
1717	 0.809463862667343 
1718	 0.809939200174051 
1719	 0.810681191838512 
1720	 0.812003096040797 
1721	 0.812404617997117 
1722	 0.812706492880803 
1723	 0.812994603258238 
1724	 0.812494595168092 
1725	 0.812686201096499 
1726	 0.813480098846108 
1727	 0.813664872241169 
1728	 0.813584800504829 
1729	 0.813733981338025 
1730	 0.813897753583507 
1731	 0.814568370429849 
1732	 0.814421603195536 
1733	 0.814236817955803 
1734	 0.814125234704714 
1735	 0.813648542589289 
1736	 0.813759255713951 
1737	 0.813372317561589 
1738	 0.812981173495659 
1739	 0.813737727034557 
1740	 0.813504733098223 
1741	 0.812976343732444 
1742	 0.813523671473272 
1743	 0.813150715636162 
1744	 0.812397479565899 
1745	 0.813172639024636 
1746	 0.813127863034921 
1747	 0.812587324102921 
1748	 0.813641109471882 
1749	 0.813544001940211 
1750	 0.813507166710926 
1751	 0.814900213959574 
1752	 0.815041758751827 
1753	 0.815915620464427 
1754	 0.817338547706653 
1755	 0.81712873001762 
1756	 0.817044887277164 
1757	 0.815850187153157 
1758	 0.815689155185498 
1759	 0.816677132129545 
1760	 0.816873595933426 
1761	 0.817077214255911 
1762	 0.817336018327116 
1763	 0.816904499386465 
1764	 0.816565191294852 
1765	 0.817049607627124 
1766	 0.817020785209352 
1767	 0.816334961454694 
1768	 0.816119049171107 
1769	 0.815638333604246 
1770	 0.815273782622179 
1771	 0.815294489940648 
1772	 0.815010138250431 
1773	 0.815143020625043 
1774	 0.814210699251624 
1775	 0.812533292080532 
1776	 0.810854939182713 
1777	 0.809302737874577 
1778	 0.808488457010582 
1779	 0.808110817527099 
1780	 0.807985210296588 
1781	 0.807139938005451 
1782	 0.805493854873789 
1783	 0.80455741243204 
1784	 0.803493385557098 
1785	 0.803226041518183 
1786	 0.803824991876047 
1787	 0.802316115319315 
1788	 0.799201415639664 
1789	 0.795920597655605 
1790	 0.792679169691216 
1791	 0.789900447335608 
1792	 0.787354204126476 
1793	 0.784972174511853 
1794	 0.781977217569568 
1795	 0.777804998638418 
1796	 0.774668887687712 
1797	 0.770584366272804 
1798	 0.763942274065953 
1799	 0.760290687545727 
1800	 0.759113168202339 
1801	 0.755102409999484 
1802	 0.751680582697274 
1803	 0.748495750869933 
1804	 0.744317270788589 
1805	 0.741975715104426 
1806	 0.745947646282746 
1807	 0.743507888657845 
1808	 0.737645907017536 
1809	 0.730417643276247 
1810	 0.725091677001392 
1811	 0.715253912184979 
1812	 0.709835912564931 
1813	 0.712206868304018 
1814	 0.707303556179252 
1815	 0.699225173098584 
1816	 0.690303849140931 
1817	 0.670293859825032 
1818	 0.660721340667078 
1819	 0.655528584260278 
1820	 0.656739818216265 
1821	 0.654408910720866 
1822	 0.663981717107645 
1823	 0.664859609079865 
1824	 0.653429750454966 
1825	 0.651363327276904 
1826	 0.657932224526273 
1827	 0.660398163234983 
1828	 0.663423547673794 
1829	 0.673693707621863 
1830	 0.673615845146053 
1831	 0.656165919830278 
1832	 0.64947383406889 
1833	 0.661419618913526 
1834	 0.62720995308731 
1835	 0.526143109987591 
1836	 0.481774999629032 
1837	 0.42394641722128 
1838	 0.405802162107822 
1839	 0.437128008375459 
1840	 0.640471156400673 
1841	 0.697839014402553 
1842	 0.694237147484345 
1843	 0.713099620215136 
1844	 0.690822652766282 
1845	 0.67884661640535 
1846	 0.673990017966797 
1847	 0.669428331768438 
1848	 0.660680061494885 
1849	 0.642504130797996 
1850	 0.611943830292164 
1851	 0.556905359740189 
1852	 0.550620079033292 
1853	 0.566429593111863 
1854	 0.545023941515945 
1855	 0.526563642631316 
1856	 0.541663649202902 
1857	 0.559925357393984 
1858	 0.551742621962855 
1859	 0.548173178172321 
1860	 0.572179956229232 
1861	 0.578070262313117 
1862	 0.543820729920299 
1863	 0.551053087987018 
1864	 0.598750230219541 
1865	 0.625357804734154 
1866	 0.689102730830442 
1867	 0.696920692040443 
1868	 0.686655758819907 
1869	 0.718620412223385 
1870	 0.682308645022605 
1871	 0.553717487773135 
1872	 0.561944233145704 
1873	 0.633236966953373 
1874	 0.630998510012301 
1875	 0.629718536649422 
1876	 0.650969845852765 
1877	 0.652891080496804 
1878	 0.644649140451877 
1879	 0.658395622355032 
1880	 0.733281741123953 
1881	 0.738866230649784 
1882	 0.705449539048299 
1883	 0.695048674061325 
1884	 0.663297267121668 
1885	 0.663572205845189 
1886	 0.685273444770376 
1887	 0.707445424030542 
1888	 0.697022742165689 
1889	 0.693504725284768 
1890	 0.701047062624926 
1891	 0.689868553572645 
1892	 0.69309407665924 
1893	 0.738075977296717 
1894	 0.756054974873721 
1895	 0.742871919991419 
1896	 0.750390608598243 
1897	 0.773372120960864 
1898	 0.79666115450336 
1899	 0.826475004268522 
1900	 0.849600388868132 
1901	 0.878975093118339 
1902	 0.918324329809393 
1903	 0.931240119953436 
1904	 0.87462169914365 
1905	 0.88201660727006 
1906	 0.897913786010932 
1907	 0.933467680150248 
1908	 0.957055853816725 
1909	 1.01245480153581 
1910	 0.960418509869158 
1911	 0.860652958947101 
1912	 0.850112164059632 
1913	 0.842348036043368 
1914	 0.850039869541786 
1915	 0.889625665689186 
1916	 0.920516894242079 
1917	 0.946435057507883 
1918	 0.967231706296758 
1919	 1.00570363976219 
1920	 1.00776099525944 
1921	 0.989305245468388 
1922	 0.981296834646786 
1923	 0.972114763487784 
1924	 0.944513365968227 
1925	 0.945812621941685 
1926	 0.96167034124416 
1927	 0.97813478219239 
1928	 1.00652238367871 
1929	 1.0385775997378 
1930	 1.05101563684009 
1931	 1.04510175929608 
1932	 1.04052639654992 
1933	 1.03515686743385 
1934	 1.03256731768749 
1935	 1.02995631992856 
1936	 1.03448023733635 
1937	 1.04320095665731 
1938	 1.04993104726676 
1939	 1.06045732913349 
1940	 1.06725867132844 
1941	 1.07347662695389 
1942	 1.07484787435539 
1943	 1.07923976136113 
1944	 1.08718097433603 
1945	 1.09203254060292 
1946	 1.09443074308683 
1947	 1.09986853774231 
1948	 1.11053952816367 
1949	 1.11339098962934 
1950	 1.11427899804331 
1951	 1.11545986311289 
1952	 1.11086561250811 
1953	 1.10344839841845 
1954	 1.10129911941061 
1955	 1.10201473978822 
1956	 1.10379270402096 
1957	 1.10643733442806 
1958	 1.10912564019554 
1959	 1.11270491876983 
1960	 1.11520906936101 
1961	 1.11656313296353 
1962	 1.12039019820832 
1963	 1.1240152080071 
1964	 1.12336713043182 
1965	 1.12215448622828 
1966	 1.11858625255994 
1967	 1.11546485904932 
1968	 1.11435722192255 
1969	 1.1145284821159 
1970	 1.11829063555749 
1971	 1.11881844645998 
1972	 1.1180344797959 
1973	 1.11863380124371 
1974	 1.11960016587639 
1975	 1.11792635850472 
1976	 1.11726827660281 
1977	 1.11499446731375 
1978	 1.10902523539608 
1979	 1.10600833837599 
1980	 1.10392551976809 
1981	 1.10147944519854 
1982	 1.09965178283076 
1983	 1.09983478260528 
1984	 1.09658277596702 
1985	 1.09356631355874 
1986	 1.0935440469255 
1987	 1.09226006786632 
1988	 1.09031703102277 
1989	 1.08907623007946 
1990	 1.08597441711626 
1991	 1.08196855686801 
1992	 1.08038264475844 
1993	 1.07864951341655 
1994	 1.07714680015118 
1995	 1.07574172395813 
1996	 1.07530427115779 
1997	 1.07352985954521 
1998	 1.07159352030903 
1999	 1.06808375161099 
2000	 1.0665055513327 
2001	 1.06904615118776 
2002	 1.06891552115177 
2003	 1.06801926545581 
2004	 1.06556979475004 
2005	 1.05838475157381 
2006	 1.05472780292861 
2007	 1.05278379225818 
2008	 1.0525317299502 
2009	 1.05110608772059 
2010	 1.05352304744478 
2011	 1.05202859272986 
2012	 1.04665184926742 
2013	 1.04407540678555 
2014	 1.04218979876233 
2015	 1.04188387606825 
2016	 1.04269894929746 
2017	 1.04396943033191 
2018	 1.0428900466931 
2019	 1.04130426516098 
2020	 1.03786178431318 
2021	 1.03747945343689 
2022	 1.03701957316219 
2023	 1.03630966980966 
2024	 1.03863301106054 
2025	 1.04139386538374 
2026	 1.04327770779771 
2027	 1.04615081030226 
2028	 1.04665842333526 
2029	 1.04572191708079 
2030	 1.04631466269551 
2031	 1.04612226960578 
2032	 1.04602821134473 
2033	 1.04617390654985 
2034	 1.04663279118341 
2035	 1.04662388468361 
2036	 1.04847379593957 
2037	 1.04948277138001 
2038	 1.04965420239784 
2039	 1.04988505330569 
2040	 1.04836943273149 
2041	 1.04857542128343 
2042	 1.04977176781075 
2043	 1.05019427276425 
2044	 1.05173361341183 
2045	 1.05231988020415 
2046	 1.05191134175782 
2047	 1.05092040256481 
2048	 1.0520994511558 
2049	 1.05192331006223 
2050	 1.05113204040545 
2051	 1.05342710184779 
2052	 1.05404037453859 
2053	 1.05364763921478 
2054	 1.05466260011581 
2055	 1.05427378072466 
2056	 1.05615176216238 
2057	 1.05881359338784 
2058	 1.05992450324666 
2059	 1.06059354269219 
2060	 1.0612410428975 
2061	 1.05951399239588 
2062	 1.05749258807189 
2063	 1.05577679166957 
2064	 1.05434559658453 
2065	 1.05359003620511 
2066	 1.052434720022 
2067	 1.05301304150123 
2068	 1.05392987520412 
2069	 1.05342508103863 
2070	 1.05408540052174 
2071	 1.05447520560505 
2072	 1.05505511102205 
2073	 1.05588944851031 
2074	 1.05732146491539 
2075	 1.05601551773027 
2076	 1.0535041948196 
2077	 1.05206352701259 
2078	 1.05187872138388 
2079	 1.0532408598404 
2080	 1.05513022524171 
2081	 1.05582619216887 
2082	 1.05475994794352 
2083	 1.0520947540635 
2084	 1.05086005184565 
2085	 1.05119834313349 
2086	 1.05099765602205 
2087	 1.0508694144891 
2088	 1.05161151719148 
2089	 1.05223568895744 
2090	 1.05075819733468 
2091	 1.04838925442719 
2092	 1.04782381474571 
2093	 1.04612052327694 
2094	 1.04409820107302 
2095	 1.04452939037024 
2096	 1.04182861585092 
2097	 1.03891443602617 
2098	 1.03815191746438 
2099	 1.03562970651792 
2100	 1.03559387292453 
2101	 1.0378485199691 
2102	 1.03841313084062 
2103	 1.03871654634509 
2104	 1.03914856618041 
2105	 1.03880841266545 
2106	 1.03702730621921 
2107	 1.03580797656618 
2108	 1.03571602603364 
2109	 1.03419271263474 
2110	 1.03228588392683 
2111	 1.03086446019852 
2112	 1.02752113454011 
2113	 1.02419659582787 
2114	 1.02250230181032 
2115	 1.02035358366056 
2116	 1.01852558197646 
2117	 1.0173011030159 
2118	 1.0168104000839 
2119	 1.01571853679158 
2120	 1.01470384447897 
2121	 1.01439026476135 
2122	 1.01283170754784 
2123	 1.01045581931023 
2124	 1.00703366929068 
2125	 1.00432702507264 
2126	 1.00318699228051 
2127	 1.00314759984914 
2128	 1.00296540574956 
2129	 1.0017260940591 
2130	 0.998891803994322 
2131	 0.995297170184036 
2132	 0.992476974685406 
2133	 0.989422542062867 
2134	 0.987265754153711 
2135	 0.985755510666987 
2136	 0.98474480300812 
2137	 0.983346506439807 
2138	 0.982844601527829 
2139	 0.980696165652311 
2140	 0.977311257806069 
2141	 0.975938428099874 
2142	 0.974401413058601 
2143	 0.974057927397253 
2144	 0.975494177763124 
2145	 0.975154084719337 
2146	 0.974722844367601 
2147	 0.97450450555007 
2148	 0.972032665763002 
2149	 0.969487793053581 
2150	 0.968469005737546 
2151	 0.967888917625476 
2152	 0.968596813579402 
2153	 0.968900262032107 
2154	 0.970537552645573 
2155	 0.969524861365746 
2156	 0.966931562688465 
2157	 0.963554325360754 
2158	 0.960286668363422 
2159	 0.957846347204928 
2160	 0.958619768179256 
2161	 0.958560231683362 
2162	 0.958281148379625 
2163	 0.959465242044477 
2164	 0.958763200830019 
2165	 0.958154856867019 
2166	 0.956524038967145 
2167	 0.954953251686648 
2168	 0.954023595990222 
2169	 0.952523162018017 
2170	 0.951451936424938 
2171	 0.951358463595799 
2172	 0.951621783511934 
2173	 0.950836152959307 
2174	 0.95088058519586 
2175	 0.951522033650927 
2176	 0.951811765283961 
2177	 0.950572132384294 
2178	 0.948775597985399 
2179	 0.948484202195937 
2180	 0.945745614169614 
2181	 0.942301059811202 
2182	 0.941247520246497 
2183	 0.940013217252051 
2184	 0.938962195106696 
2185	 0.938053690448204 
2186	 0.936931489906839 
2187	 0.936555243782482 
2188	 0.935501746591922 
2189	 0.935495183560401 
2190	 0.937285512115493 
2191	 0.938257652574845 
2192	 0.93618288198851 
2193	 0.934468993802476 
2194	 0.933254395011536 
2195	 0.933175800055483 
2196	 0.93440213256492 
2197	 0.933886027016524 
2198	 0.93112200849818 
2199	 0.929046474968235 
2200	 0.928543342585323 
2201	 0.928433319565192 
2202	 0.929136457972992 
2203	 0.926569890097833 
2204	 0.921845002289628 
2205	 0.920283516729017 
2206	 0.920638306925913 
2207	 0.921900050739979 
2208	 0.923250357546357 
2209	 0.926787879751618 
2210	 0.927450505722852 
2211	 0.926483533363561 
2212	 0.926962494333948 
2213	 0.92452210559224 
2214	 0.920414093776796 
2215	 0.918969500364996 
2216	 0.916381829465111 
2217	 0.915979118038307 
2218	 0.91696416924518 
2219	 0.914118229856273 
2220	 0.912687333974083 
2221	 0.91333818509676 
2222	 0.911925458268191 
2223	 0.910384954888716 
2224	 0.910108508884914 
2225	 0.909227022347474 
2226	 0.911213553871427 
2227	 0.915087859455744 
2228	 0.917325529995429 
2229	 0.918971976860257 
2230	 0.918253851071693 
2231	 0.917804587543077 
2232	 0.918238878688336 
2233	 0.917258800811078 
2234	 0.914532989845335 
2235	 0.912680768438901 
2236	 0.912169241112361 
2237	 0.912143658258348 
2238	 0.914388320470241 
2239	 0.915894118373149 
2240	 0.916102408856656 
2241	 0.915442554946572 
2242	 0.914086959858688 
2243	 0.914107583523212 
2244	 0.912335409383095 
2245	 0.909589045154326 
2246	 0.907250067858291 
2247	 0.90447004590983 
2248	 0.903826290124457 
2249	 0.904085699207195 
2250	 0.903533969684448 
2251	 0.903949242818884 
2252	 0.903919431908722 
2253	 0.904199443596143 
2254	 0.906940574020743 
2255	 0.908311619474355 
2256	 0.907447446350847 
2257	 0.905003580427299 
2258	 0.902983349767734 
2259	 0.899973704593765 
2260	 0.89563271366372 
2261	 0.893582402499032 
2262	 0.892055589183967 
2263	 0.88872607722042 
2264	 0.887384492712153 
2265	 0.886477043433042 
2266	 0.883957629480225 
2267	 0.883504486930611 
2268	 0.885260099523006 
2269	 0.885896623284019 
2270	 0.886610095041843 
2271	 0.887928241129134 
2272	 0.885473217068618 
2273	 0.883934383324666 
2274	 0.885068489621889 
2275	 0.883906141386112 
2276	 0.881759651837219 
2277	 0.87860739931384 
2278	 0.875196297377214 
2279	 0.870640710021542 
2280	 0.867066546001565 
2281	 0.865317858994766 
2282	 0.863876922269435 
2283	 0.865244754145708 
2284	 0.865598537106835 
2285	 0.864804572300308 
2286	 0.865262501769847 
2287	 0.866644267842992 
2288	 0.864852321717844 
2289	 0.863023942970058 
2290	 0.864771546653878 
2291	 0.86166072065458 
2292	 0.859519017734046 
2293	 0.862898495850706 
2294	 0.861919256506273 
2295	 0.859262185845572 
2296	 0.85885562771911 
2297	 0.856203280438616 
2298	 0.856684195448955 
2299	 0.863067127914721 
2300	 0.866456073448348 
2301	 0.86937272263381 
2302	 0.869205270132582 
2303	 0.86621359739175 
2304	 0.868012701943299 
2305	 0.86791167160036 
2306	 0.868216554329825 
2307	 0.8718891145835 
2308	 0.876126310978736 
2309	 0.884493227723664 
2310	 0.894654083407536 
2311	 0.900440774044629 
2312	 0.899217912438314 
2313	 0.898449878070197 
2314	 0.896765722995926 
2315	 0.886836578434347 
2316	 0.883731616224895 
2317	 0.887317752847184 
2318	 0.886347929166966 
2319	 0.887692714559957 
2320	 0.892827539585756 
2321	 0.896795678699474 
2322	 0.893787019768641 
2323	 0.898111602927954 
2324	 0.910217913411828 
2325	 0.914980463888235 
2326	 0.914379649356794 
2327	 0.914207496894033 
2328	 0.907470541503244 
2329	 0.904763584114391 
2330	 0.902343828010865 
2331	 0.898458264467725 
2332	 0.899298220333153 
2333	 0.896153830268732 
2334	 0.897578212109546 
2335	 0.904614538163135 
2336	 0.905481182908847 
2337	 0.908930039267348 
2338	 0.907560087062006 
2339	 0.90234147141417 
2340	 0.900686265967913 
2341	 0.894640582229958 
2342	 0.892571471581445 
2343	 0.891564521825915 
2344	 0.88924672143812 
2345	 0.891623312792825 
2346	 0.897912900850406 
2347	 0.906368784693105 
2348	 0.912067879493176 
2349	 0.914390010299836 
2350	 0.916419020504788 
2351	 0.913545442166564 
2352	 0.910870708010173 
2353	 0.920157962240633 
2354	 0.926751947790856 
2355	 0.925650356391063 
2356	 0.930423402942491 
2357	 0.931941130263409 
2358	 0.925178365010736 
2359	 0.922191351498372 
2360	 0.914612963098257 
2361	 0.909630328707446 
2362	 0.912254899734525 
2363	 0.907185678376391 
2364	 0.908899293284882 
2365	 0.910069133926674 
2366	 0.905808669924147 
2367	 0.916958238174214 
2368	 0.930340847225841 
2369	 0.933419692424736 
2370	 0.937572797584199 
2371	 0.939332686684367 
2372	 0.938441552297001 
2373	 0.932980149390169 
2374	 0.935182741431514 
2375	 0.939372846109104 
2376	 0.936695589840289 
2377	 0.933357301315082 
2378	 0.927574994639519 
2379	 0.914369475059579 
2380	 0.912276781207795 
2381	 0.917107641973258 
2382	 0.922283868501686 
2383	 0.931331349494301 
2384	 0.934250005184994 
2385	 0.939735647915202 
2386	 0.935403047920644 
2387	 0.917888100941281 
2388	 0.917097124133773 
2389	 0.920194960646545 
2390	 0.918991626344891 
2391	 0.926143948913018 
2392	 0.928403414430524 
2393	 0.915299983271009 
2394	 0.924076344911583 
2395	 0.958292505770641 
2396	 0.96941831921219 
2397	 0.976978745221975 
2398	 0.980533191185618 
2399	 0.963450752644836 
2400	 0.958411222985186 
2401	 0.957192028634842 
2402	 0.969576221519067 
2403	 0.973923306678058 
2404	 0.971343307126505 
2405	 0.975612410905313 
2406	 0.969153899676179 
2407	 0.970824744165188 
2408	 0.974072500819319 
2409	 0.954898828283768 
2410	 0.955080575243766 
2411	 0.964757226618249 
2412	 0.954006314099949 
2413	 0.952875328375046 
2414	 0.944724291425082 
2415	 0.92355640241662 
2416	 0.929265669164485 
2417	 0.965294642180348 
2418	 0.992670420563141 
2419	 0.999885926854829 
2420	 1.00985485527281 
2421	 1.00168323754041 
2422	 1.00963319688506 
2423	 1.03004738307838 
2424	 1.00969322769774 
2425	 0.988286492750768 
2426	 0.974648716308815 
2427	 0.978696773254974 
2428	 0.993457819196569 
2429	 1.00330743537933 
2430	 1.02112771865808 
2431	 1.04210215500569 
2432	 1.06703156644234 
2433	 1.09960468869676 
2434	 1.10102651008317 
2435	 1.04731541574756 
2436	 1.02194743457756 
2437	 0.989347866381667 
2438	 0.981526465831382 
2439	 0.99942421552953 
2440	 1.00481237826234 
2441	 1.02963254246265 
2442	 1.04384958971374 
2443	 1.05300464971785 
2444	 1.05698881925573 
2445	 1.04590903188674 
2446	 1.02884946702098 
2447	 1.00135328829808 
2448	 0.978831586581423 
2449	 0.945907698767137 
2450	 0.946096575118516 
2451	 0.954018024584887 
2452	 0.964535126598969 
2453	 1.01856072979256 
2454	 1.03485868113559 
2455	 1.04112058702406 
2456	 1.04435642465248 
2457	 1.02867913534888 
2458	 1.01092573235906 
2459	 0.970855177394018 
2460	 0.975423817994061 
2461	 1.01607705222576 
2462	 1.0102279471862 
2463	 0.988460048084526 
2464	 0.997708974555759 
2465	 0.994437119652241 
2466	 0.993092232903242 
2467	 1.05430501199 
2468	 1.07347520780722 
2469	 1.01259491408982 
2470	 0.997127717977735 
2471	 1.0367051318743 
2472	 1.03954393232967 
2473	 0.995741634388402 
2474	 1.00608506662314 
2475	 1.04128878052359 
2476	 1.0513720064606 
2477	 1.14813797000032 
2478	 1.15996760200885 
2479	 1.05293933986465 
2480	 0.943398701539399 
2481	 0.730338895293362 
2482	 0.713470497345607 
2483	 0.792511860491804 
2484	 0.871980906512154 
2485	 1.30977208989458 
2486	 1.18054986949976 
2487	 0.899498161836872 
2488	 0.891966486632823 
2489	 0.71816004697431 
2490	 0.945796732115343 
2491	 1.46921533974132 
2492	 1.2668006296298 
2493	 1.16996932562178 
2494	 0.684293547918171 
2495	 0.451454580505531 
2496	 0.810271127394567 
2497	 0.903970605090172 
2498	 1.19672144098268 
2499	 1.54793859704947 
2500	 1.03243462888597 
