Wavelength	ref00098.asd
350	 0.182000377837755 
351	 0.182811038666781 
352	 0.182768623268307 
353	 0.184150585612202 
354	 0.185094337533877 
355	 0.185491529643943 
356	 0.185815496200454 
357	 0.187127675265164 
358	 0.187722449003747 
359	 0.188125481440548 
360	 0.189249960030567 
361	 0.19051382339836 
362	 0.191519961959556 
363	 0.192357626475814 
364	 0.193389661980478 
365	 0.194244103428013 
366	 0.195264563070905 
367	 0.196478678359126 
368	 0.197380673745303 
369	 0.198146190861161 
370	 0.198940023956898 
371	 0.199920333576194 
372	 0.201244871543002 
373	 0.202657808150793 
374	 0.203786682613962 
375	 0.204391578494761 
376	 0.205578203872691 
377	 0.206882814206405 
378	 0.207986924327999 
379	 0.208931196728057 
380	 0.209875544440994 
381	 0.210841560418484 
382	 0.211807881035019 
383	 0.21273164063607 
384	 0.213717211301382 
385	 0.214868560313103 
386	 0.216166709584438 
387	 0.216881554946612 
388	 0.217883037038717 
389	 0.219327357772055 
390	 0.220496673186993 
391	 0.220904437379542 
392	 0.221531024161505 
393	 0.222809847002413 
394	 0.223285508029903 
395	 0.224133435865614 
396	 0.225456190429561 
397	 0.226873684780331 
398	 0.227699902439977 
399	 0.228588006266779 
400	 0.229642149153456 
401	 0.230474489717479 
402	 0.231316180607459 
403	 0.231920937896757 
404	 0.232274642696028 
405	 0.232959681737366 
406	 0.233670028264042 
407	 0.234391885820433 
408	 0.235199187099397 
409	 0.236153105841732 
410	 0.237081376773406 
411	 0.237997556006021 
412	 0.239055427315066 
413	 0.239778973033903 
414	 0.240491236977656 
415	 0.241421990195933 
416	 0.242354985547247 
417	 0.243200611647703 
418	 0.243953155171286 
419	 0.244664763445247 
420	 0.245419935516996 
421	 0.246369423666446 
422	 0.247346947814656 
423	 0.247964913990577 
424	 0.248868561323783 
425	 0.249696288748981 
426	 0.250267218122046 
427	 0.251171513346055 
428	 0.251944265230828 
429	 0.2526371132788 
430	 0.253453298616744 
431	 0.254365639966825 
432	 0.255301463344194 
433	 0.256234329139556 
434	 0.257182562387678 
435	 0.258133065331582 
436	 0.258912209850219 
437	 0.259476376554892 
438	 0.260050846182033 
439	 0.260812615336182 
440	 0.261636083517554 
441	 0.262325306376157 
442	 0.263003470070337 
443	 0.263717786111613 
444	 0.264434777943884 
445	 0.265059540426231 
446	 0.265701100860869 
447	 0.26635807909939 
448	 0.267018759272164 
449	 0.267713477012762 
450	 0.26829014415481 
451	 0.268770638136297 
452	 0.269267068782537 
453	 0.269927642751131 
454	 0.270464134836903 
455	 0.270869675873154 
456	 0.271496865174519 
457	 0.272150267216863 
458	 0.272777842093469 
459	 0.273361077830219 
460	 0.273875362632776 
461	 0.274417491830243 
462	 0.274990456777783 
463	 0.275535830169032 
464	 0.275981764794452 
465	 0.276433631518775 
466	 0.276942398285837 
467	 0.277447723135836 
468	 0.277997714752539 
469	 0.278528818491391 
470	 0.278992118118221 
471	 0.279504429165049 
472	 0.28007234842825 
473	 0.280658085919242 
474	 0.281192717612218 
475	 0.281633019005255 
476	 0.282093156532163 
477	 0.282618635404777 
478	 0.283077820083956 
479	 0.283638326798146 
480	 0.28422711038077 
481	 0.284723603621905 
482	 0.28522407571626 
483	 0.285626791850319 
484	 0.285959707162903 
485	 0.286378819356933 
486	 0.286777818333968 
487	 0.287267441779915 
488	 0.287915744832592 
489	 0.288603120902918 
490	 0.289246156201921 
491	 0.289764080463344 
492	 0.290131144329271 
493	 0.290522863172847 
494	 0.291067519240808 
495	 0.291725196001559 
496	 0.292261644660414 
497	 0.292559879136865 
498	 0.292939880408046 
499	 0.2936192449468 
500	 0.294105329390543 
501	 0.294528207418402 
502	 0.294973243329887 
503	 0.295491763330269 
504	 0.296053029275087 
505	 0.296546664506345 
506	 0.296941249418639 
507	 0.29734115888806 
508	 0.297774090030536 
509	 0.298199814996086 
510	 0.298608753532636 
511	 0.299259370338912 
512	 0.299805601201686 
513	 0.30019822697672 
514	 0.300652944909221 
515	 0.30105312513391 
516	 0.301396432305116 
517	 0.30173287394056 
518	 0.30218946292042 
519	 0.302733581708692 
520	 0.303325518044215 
521	 0.303897913556021 
522	 0.304257512890665 
523	 0.304683650007322 
524	 0.305171467447504 
525	 0.305369856900011 
526	 0.305712863558373 
527	 0.306196308611989 
528	 0.306726023245306 
529	 0.307297336438654 
530	 0.307724252320672 
531	 0.308021467990857 
532	 0.308325637566204 
533	 0.308690302867781 
534	 0.309171395168808 
535	 0.30970641056533 
536	 0.310052318501848 
537	 0.310398347728263 
538	 0.310729920171441 
539	 0.311003488374593 
540	 0.311327199140155 
541	 0.311670512691935 
542	 0.31200269310833 
543	 0.312302387801961 
544	 0.312638702702366 
545	 0.31296951493531 
546	 0.313249795667168 
547	 0.313464741446736 
548	 0.313642321650528 
549	 0.313878701532681 
550	 0.314247226613764 
551	 0.314500561447643 
552	 0.314736054848617 
553	 0.315017682290386 
554	 0.315335238140302 
555	 0.315595312415103 
556	 0.315859450053236 
557	 0.316175608570496 
558	 0.316399872086783 
559	 0.316673552711409 
560	 0.316952095140263 
561	 0.317093306535891 
562	 0.317273877180238 
563	 0.317430209588197 
564	 0.317491630788805 
565	 0.31741240960403 
566	 0.31745977025389 
567	 0.317581868621825 
568	 0.317638764782801 
569	 0.317650757966654 
570	 0.317712644523457 
571	 0.3178600082162 
572	 0.318066419737273 
573	 0.318324924017414 
574	 0.318584005626414 
575	 0.31881718600546 
576	 0.319071116814038 
577	 0.319334964809046 
578	 0.319477341674783 
579	 0.319369967755476 
580	 0.319318163574485 
581	 0.319350999968848 
582	 0.319381050208301 
583	 0.319207834974175 
584	 0.31909118924902 
585	 0.319060977043021 
586	 0.319076016143183 
587	 0.319082688762589 
588	 0.319089632354082 
589	 0.319096109002664 
590	 0.319103903960485 
591	 0.319241989588096 
592	 0.319299299412014 
593	 0.319154894098831 
594	 0.318903963798976 
595	 0.318705832288337 
596	 0.31860612187229 
597	 0.318597863275947 
598	 0.318695276457335 
599	 0.318775723285195 
600	 0.318801196354019 
601	 0.318822842434249 
602	 0.318802107563452 
603	 0.318789726856784 
604	 0.318810204821802 
605	 0.318768613804772 
606	 0.318777293244963 
607	 0.31879177702126 
608	 0.31870594126915 
609	 0.318592218923446 
610	 0.318471501376209 
611	 0.318336274056194 
612	 0.318143812715658 
613	 0.318067364655631 
614	 0.317981455336903 
615	 0.317770570614733 
616	 0.317677023960135 
617	 0.317574145212248 
618	 0.31747500315483 
619	 0.317479544145762 
620	 0.317514093839379 
621	 0.317460852162853 
622	 0.317308795664282 
623	 0.317261985897799 
624	 0.317190459290554 
625	 0.317133046061116 
626	 0.317156634760679 
627	 0.317179722415337 
628	 0.317114465425565 
629	 0.317005507330534 
630	 0.31701218007871 
631	 0.316889662549397 
632	 0.316795244330962 
633	 0.316832261630208 
634	 0.316774817002529 
635	 0.316627022174188 
636	 0.31650177180674 
637	 0.316521831973704 
638	 0.316459938543238 
639	 0.316338908507144 
640	 0.316223857088062 
641	 0.316207465453813 
642	 0.316187273904903 
643	 0.316135110912685 
644	 0.3160673687236 
645	 0.316086438197339 
646	 0.316042960992758 
647	 0.315985476833955 
648	 0.316048546539082 
649	 0.315922679745662 
650	 0.315813922534209 
651	 0.315817997637805 
652	 0.31574781988474 
653	 0.315792961606738 
654	 0.315827948129982 
655	 0.315701137903762 
656	 0.315564440416999 
657	 0.315530688604619 
658	 0.315548305540612 
659	 0.315459086654313 
660	 0.315480366281915 
661	 0.315415615402989 
662	 0.315212425759323 
663	 0.31519672639941 
664	 0.315197574337547 
665	 0.315122622645284 
666	 0.314958204840495 
667	 0.314948675416828 
668	 0.314937360460985 
669	 0.314887424796446 
670	 0.31488062382226 
671	 0.314780696508805 
672	 0.314802230440212 
673	 0.314977767167633 
674	 0.314749384504314 
675	 0.314664113698929 
676	 0.31473399315849 
677	 0.314759936885864 
678	 0.314636934551173 
679	 0.314526052279465 
680	 0.314510570555491 
681	 0.314562677604118 
682	 0.314460324100358 
683	 0.314338869884165 
684	 0.31432717979902 
685	 0.314354529247313 
686	 0.314261010272714 
687	 0.314119194025113 
688	 0.314099804960791 
689	 0.313980938434972 
690	 0.313877554258618 
691	 0.313829524100483 
692	 0.313782589668001 
693	 0.313764399589267 
694	 0.313777573487533 
695	 0.31377665196043 
696	 0.313579990304866 
697	 0.313499593066021 
698	 0.313512747953753 
699	 0.313441504987956 
700	 0.313204382297652 
701	 0.313059798493765 
702	 0.313036444812779 
703	 0.3128626986612 
704	 0.312695678465018 
705	 0.312591220112196 
706	 0.312547625399911 
707	 0.312482952061486 
708	 0.312324686168749 
709	 0.312138678864912 
710	 0.31203419592204 
711	 0.311891430795498 
712	 0.311755423665782 
713	 0.311656280583011 
714	 0.311589422738485 
715	 0.311480273850626 
716	 0.311309915290653 
717	 0.311130206157383 
718	 0.311220808543867 
719	 0.31103013629157 
720	 0.310743181631513 
721	 0.310787580784904 
722	 0.310650421215927 
723	 0.310453756011299 
724	 0.310291950711583 
725	 0.310215927723141 
726	 0.310222610659991 
727	 0.31009763528645 
728	 0.30977699557249 
729	 0.309655263346207 
730	 0.309559767423968 
731	 0.30939903466126 
732	 0.309155881335782 
733	 0.309039581262408 
734	 0.308925998866811 
735	 0.308791946885753 
736	 0.30871645195616 
737	 0.308618021435434 
738	 0.308467806196532 
739	 0.308270753829034 
740	 0.308075538545433 
741	 0.307984413080217 
742	 0.307876077060409 
743	 0.307632286877572 
744	 0.307514908053516 
745	 0.307411197314966 
746	 0.307259840513126 
747	 0.307061203113842 
748	 0.306907886496929 
749	 0.306847740240129 
750	 0.306808278016525 
751	 0.30653257886715 
752	 0.306317956489737 
753	 0.306202282317565 
754	 0.30610282694977 
755	 0.305779483024365 
756	 0.305656233836897 
757	 0.305749060275962 
758	 0.305794192996986 
759	 0.305404093632954 
760	 0.304859292763854 
761	 0.304592908143884 
762	 0.304879979299881 
763	 0.304834576248081 
764	 0.304630630579011 
765	 0.304485286882431 
766	 0.304287529010693 
767	 0.304037325262384 
768	 0.303796741030783 
769	 0.303621829587547 
770	 0.303442760627412 
771	 0.303323036307718 
772	 0.303204857995214 
773	 0.302947046360569 
774	 0.302761698000629 
775	 0.302634353109539 
776	 0.302513592024579 
777	 0.302351384385997 
778	 0.302051291813185 
779	 0.301869474102217 
780	 0.301929770079796 
781	 0.301542346058431 
782	 0.301241519555799 
783	 0.301093145228255 
784	 0.300905890283547 
785	 0.300677198879271 
786	 0.300430141869654 
787	 0.300227577471515 
788	 0.300157285574667 
789	 0.300068409407628 
790	 0.299868103013043 
791	 0.299570544842538 
792	 0.29937280637236 
793	 0.299252651790553 
794	 0.299069653051584 
795	 0.298754972953459 
796	 0.298700991203769 
797	 0.298451295202698 
798	 0.298088105074147 
799	 0.297960130682677 
800	 0.297720800786705 
801	 0.297597582988639 
802	 0.297540257801477 
803	 0.297160248622798 
804	 0.296946335864444 
805	 0.296815207577422 
806	 0.296620199322013 
807	 0.29631611882918 
808	 0.296069731546142 
809	 0.295851737696454 
810	 0.295615246704912 
811	 0.295531138732684 
812	 0.295259801227151 
813	 0.294910093463052 
814	 0.294797217117637 
815	 0.294550627861067 
816	 0.294315215095428 
817	 0.294154555483476 
818	 0.293987289444406 
819	 0.293769611669309 
820	 0.293642728498389 
821	 0.293524293992119 
822	 0.292907198248344 
823	 0.292586307980869 
824	 0.29253863113333 
825	 0.292496391490842 
826	 0.292234872228111 
827	 0.291954666207785 
828	 0.291693184748713 
829	 0.291432762038564 
830	 0.291194948528449 
831	 0.291026636561086 
832	 0.290812671223303 
833	 0.290385309226188 
834	 0.29017897638263 
835	 0.289974929267255 
836	 0.289722589281187 
837	 0.289640501444861 
838	 0.289369594280154 
839	 0.289065983254196 
840	 0.288851421674154 
841	 0.288573518078671 
842	 0.288348714073803 
843	 0.288053997722673 
844	 0.287653564548085 
845	 0.287633204195303 
846	 0.287450319428724 
847	 0.287147536461899 
848	 0.286956246458262 
849	 0.286526845937676 
850	 0.286351914272896 
851	 0.28633331245428 
852	 0.285970326037249 
853	 0.285635830450831 
854	 0.285286445894068 
855	 0.285012149504069 
856	 0.285042344224826 
857	 0.28481114537285 
858	 0.28445043540503 
859	 0.284107880481468 
860	 0.283769991363867 
861	 0.283523791794906 
862	 0.283386658260961 
863	 0.283233467597666 
864	 0.282618258883877 
865	 0.282164590073606 
866	 0.281963167199191 
867	 0.281842715420409 
868	 0.281460858088196 
869	 0.281209825293703 
870	 0.281018083456633 
871	 0.280658380052445 
872	 0.280369188490879 
873	 0.280096969047042 
874	 0.279839141351283 
875	 0.279616576725081 
876	 0.279295411267908 
877	 0.278959425004526 
878	 0.278634001265223 
879	 0.278272604571611 
880	 0.277967966648653 
881	 0.277599204731862 
882	 0.277260779861502 
883	 0.277323192713423 
884	 0.276877908717406 
885	 0.276291636829378 
886	 0.275905399766891 
887	 0.275509256366445 
888	 0.275423640370056 
889	 0.27524748523705 
890	 0.274749027173028 
891	 0.274591226746572 
892	 0.274298398261498 
893	 0.273915740199269 
894	 0.273588905012417 
895	 0.273189042926069 
896	 0.272846543939894 
897	 0.27239054774447 
898	 0.271705518096018 
899	 0.271492190150906 
900	 0.271391429835524 
901	 0.27121832922112 
902	 0.270949033061983 
903	 0.270746579799045 
904	 0.270348017311934 
905	 0.269913798852776 
906	 0.269727249089846 
907	 0.268953985889876 
908	 0.268441629548319 
909	 0.268306453738655 
910	 0.267960679451901 
911	 0.267453574662978 
912	 0.266968589854992 
913	 0.266573842218357 
914	 0.266206718760599 
915	 0.265980958697773 
916	 0.265498158236311 
917	 0.264748485689872 
918	 0.264222147389325 
919	 0.264234250422414 
920	 0.264041032411257 
921	 0.263495606037378 
922	 0.263350356719735 
923	 0.26283956117774 
924	 0.262496534996765 
925	 0.262576865909371 
926	 0.262541201212905 
927	 0.261867380177948 
928	 0.261212528202596 
929	 0.260867819502764 
930	 0.259881666154419 
931	 0.25963092643544 
932	 0.259094802168045 
933	 0.25778482403046 
934	 0.257889667089561 
935	 0.25772865313584 
936	 0.257863794818761 
937	 0.258299241321162 
938	 0.257028177814992 
939	 0.257036997596816 
940	 0.257258242252334 
941	 0.256533222440747 
942	 0.255312530722791 
943	 0.255157231580532 
944	 0.254457026712337 
945	 0.252709813422002 
946	 0.253510985850344 
947	 0.253502322366452 
948	 0.252603234417279 
949	 0.251863002932238 
950	 0.252612072620105 
951	 0.251533590162376 
952	 0.250742564450229 
953	 0.251725701806549 
954	 0.251859597384078 
955	 0.250526844614623 
956	 0.24972843536096 
957	 0.250404949641392 
958	 0.250130163288917 
959	 0.249279104360752 
960	 0.248394857333031 
961	 0.247818135374264 
962	 0.247356460934874 
963	 0.246549330437217 
964	 0.246040810729198 
965	 0.246105441291342 
966	 0.246011531376023 
967	 0.245870535767951 
968	 0.245607728144534 
969	 0.245035146286003 
970	 0.243901222836387 
971	 0.24341143667804 
972	 0.24342673093318 
973	 0.243362263355327 
974	 0.2425333307644 
975	 0.241393821139264 
976	 0.241473613841692 
977	 0.242426275860091 
978	 0.241607614094497 
979	 0.240911198384415 
980	 0.240601384184234 
981	 0.240443664875109 
982	 0.240010659992251 
983	 0.239670866768919 
984	 0.239180125411118 
985	 0.238566084001786 
986	 0.238169465118538 
987	 0.23826069393143 
988	 0.237977412934416 
989	 0.237104920398483 
990	 0.236256441851188 
991	 0.236988436307662 
992	 0.237409260376257 
993	 0.236860797645577 
994	 0.235974379797883 
995	 0.236238055175501 
996	 0.236384392383168 
997	 0.235565338381522 
998	 0.234079879027219 
999	 0.235281831751861 
1000	 0.235724914818407 
1001	 0.229645353957121 
1002	 0.229401696390472 
1003	 0.229289186688648 
1004	 0.229100132272446 
1005	 0.228981448262866 
1006	 0.229187805141563 
1007	 0.229126665639876 
1008	 0.228788314058465 
1009	 0.228629845268242 
1010	 0.228516596369627 
1011	 0.228318811727284 
1012	 0.228278451210907 
1013	 0.228403720898025 
1014	 0.228378559650237 
1015	 0.228430042571386 
1016	 0.228473678587729 
1017	 0.228498926273737 
1018	 0.228678940621992 
1019	 0.229089395226582 
1020	 0.229294202942641 
1021	 0.22943673122528 
1022	 0.229672691898213 
1023	 0.229935656218052 
1024	 0.230054045766848 
1025	 0.230222994127987 
1026	 0.230608489464591 
1027	 0.230896288971159 
1028	 0.231092223694902 
1029	 0.231403320677259 
1030	 0.231731199991687 
1031	 0.232094769332543 
1032	 0.23253437184637 
1033	 0.232920110836933 
1034	 0.23333907073692 
1035	 0.233762315847455 
1036	 0.234061420685442 
1037	 0.234540084118413 
1038	 0.235149610126913 
1039	 0.235770900545492 
1040	 0.236410441415515 
1041	 0.236997411808705 
1042	 0.237557012291321 
1043	 0.238133319034405 
1044	 0.238826999762709 
1045	 0.239542794379256 
1046	 0.240222648198854 
1047	 0.240971259335115 
1048	 0.241633356228237 
1049	 0.242319065305584 
1050	 0.243081778932382 
1051	 0.24394141473933 
1052	 0.244768222725864 
1053	 0.245593986066087 
1054	 0.246503011477512 
1055	 0.247414541618615 
1056	 0.24833126152782 
1057	 0.249307510965298 
1058	 0.250196579364077 
1059	 0.25118343017241 
1060	 0.252153777896336 
1061	 0.252995934694291 
1062	 0.254015361371966 
1063	 0.255005208276365 
1064	 0.255985850458281 
1065	 0.256995770985441 
1066	 0.258093603560437 
1067	 0.259067824139551 
1068	 0.260077775480835 
1069	 0.261170136728203 
1070	 0.262287777283537 
1071	 0.26348826290941 
1072	 0.264662684414042 
1073	 0.2657780405386 
1074	 0.266934708164515 
1075	 0.268110362688126 
1076	 0.269337891016216 
1077	 0.270590864457866 
1078	 0.27174723624314 
1079	 0.272912405114273 
1080	 0.274152151002881 
1081	 0.275365680452439 
1082	 0.276566969919007 
1083	 0.27781108203224 
1084	 0.279038382303461 
1085	 0.28028826237418 
1086	 0.281699862320509 
1087	 0.283056527115207 
1088	 0.284373317616494 
1089	 0.285695934066784 
1090	 0.286861815977578 
1091	 0.288128271705043 
1092	 0.289456496380136 
1093	 0.290695136149985 
1094	 0.292039372869498 
1095	 0.293342974093084 
1096	 0.294660772439676 
1097	 0.296073104225027 
1098	 0.297443579664404 
1099	 0.298775372048696 
1100	 0.300093420343853 
1101	 0.301480740944431 
1102	 0.302799892750504 
1103	 0.30412520869747 
1104	 0.305434015236875 
1105	 0.306712292256463 
1106	 0.308029748264673 
1107	 0.309295097581102 
1108	 0.310518506890386 
1109	 0.311734939838143 
1110	 0.312872883206352 
1111	 0.314070026439781 
1112	 0.315323052208273 
1113	 0.316593684443161 
1114	 0.317961241195833 
1115	 0.319340043107001 
1116	 0.32072003178107 
1117	 0.322134729960106 
1118	 0.323686822204881 
1119	 0.325456585746615 
1120	 0.327317373238196 
1121	 0.329269114273658 
1122	 0.331103316450071 
1123	 0.332674827273785 
1124	 0.334047646466552 
1125	 0.335341840699621 
1126	 0.336762335072783 
1127	 0.337933545111602 
1128	 0.339561418691418 
1129	 0.341484641136107 
1130	 0.343092995693723 
1131	 0.344835756519339 
1132	 0.346294672205748 
1133	 0.347435185035604 
1134	 0.348587809123281 
1135	 0.349770781694047 
1136	 0.350958740306592 
1137	 0.352296095063477 
1138	 0.353536588103256 
1139	 0.354644052269737 
1140	 0.355714964458648 
1141	 0.356820899889675 
1142	 0.357949167182548 
1143	 0.359261423824963 
1144	 0.360870703994515 
1145	 0.362308568940809 
1146	 0.363768902194197 
1147	 0.365252593536938 
1148	 0.36667817211033 
1149	 0.368059909679929 
1150	 0.369329099211217 
1151	 0.370611508264598 
1152	 0.371757255758129 
1153	 0.372982109505298 
1154	 0.374285350163084 
1155	 0.375546484666117 
1156	 0.376773315926368 
1157	 0.378050017166887 
1158	 0.379249577117977 
1159	 0.380383550223227 
1160	 0.381436155783247 
1161	 0.382397728544364 
1162	 0.383382723439915 
1163	 0.384280885052899 
1164	 0.38533977046769 
1165	 0.386517877358599 
1166	 0.38761760162835 
1167	 0.388847914357599 
1168	 0.389921198632888 
1169	 0.390850389108718 
1170	 0.391922507489726 
1171	 0.392936970296902 
1172	 0.393880776693902 
1173	 0.394902725734142 
1174	 0.3959427173717 
1175	 0.397051127708436 
1176	 0.39814039502458 
1177	 0.39918905479222 
1178	 0.400248188963336 
1179	 0.40128843859755 
1180	 0.40227103003834 
1181	 0.40329665153507 
1182	 0.404352299437193 
1183	 0.405354177874916 
1184	 0.406295555938536 
1185	 0.407289439575223 
1186	 0.408293567278588 
1187	 0.409309051375596 
1188	 0.410359753167158 
1189	 0.411390783644113 
1190	 0.412410961577287 
1191	 0.413340013910961 
1192	 0.414220693192032 
1193	 0.415071879648389 
1194	 0.415969084504075 
1195	 0.416885822509081 
1196	 0.417737272845528 
1197	 0.418568953022178 
1198	 0.419460889439619 
1199	 0.420345540976218 
1200	 0.421201005914157 
1201	 0.422107135414479 
1202	 0.422990152928228 
1203	 0.423790469955371 
1204	 0.424627608144674 
1205	 0.425502877102854 
1206	 0.426360914743648 
1207	 0.427137395312584 
1208	 0.428009285090663 
1209	 0.428915365148435 
1210	 0.42989789501665 
1211	 0.430901970987078 
1212	 0.4317948944109 
1213	 0.432643403264236 
1214	 0.433393533206544 
1215	 0.434210025406964 
1216	 0.435019121947307 
1217	 0.435821278504925 
1218	 0.436649400299669 
1219	 0.43744717450938 
1220	 0.438224885299926 
1221	 0.438976694567119 
1222	 0.439728125327813 
1223	 0.440444528295429 
1224	 0.441100389431125 
1225	 0.441789852390358 
1226	 0.442450984585864 
1227	 0.443166417148421 
1228	 0.443958823584962 
1229	 0.444688257157496 
1230	 0.445390148743896 
1231	 0.446123062862148 
1232	 0.446829638949686 
1233	 0.447463583582202 
1234	 0.44821047942788 
1235	 0.449038004199147 
1236	 0.449792942231057 
1237	 0.45058444184367 
1238	 0.451316191000633 
1239	 0.451976721521312 
1240	 0.452680019148225 
1241	 0.453358084002608 
1242	 0.454095443981992 
1243	 0.454905921243994 
1244	 0.455649297922366 
1245	 0.456375762235612 
1246	 0.457131487457236 
1247	 0.457899604928684 
1248	 0.458617627668973 
1249	 0.459336738573997 
1250	 0.460061151597798 
1251	 0.460741841083953 
1252	 0.461398636689256 
1253	 0.46211704129863 
1254	 0.46290577254183 
1255	 0.463653062541206 
1256	 0.464412090699364 
1257	 0.465147773907299 
1258	 0.465879400068268 
1259	 0.466614444368016 
1260	 0.467333185358823 
1261	 0.468077030260277 
1262	 0.468812191252034 
1263	 0.469591761858226 
1264	 0.470441734647396 
1265	 0.471211506623265 
1266	 0.471971623537381 
1267	 0.472705090513045 
1268	 0.473339742056107 
1269	 0.473996439133341 
1270	 0.47467871172628 
1271	 0.475294452369368 
1272	 0.475885109226417 
1273	 0.476421167179985 
1274	 0.476883803666482 
1275	 0.477248351357683 
1276	 0.477682916499222 
1277	 0.478057897549661 
1278	 0.478519465265213 
1279	 0.479057404405942 
1280	 0.479552007708962 
1281	 0.48003242557617 
1282	 0.48056479904458 
1283	 0.481132795469368 
1284	 0.481666469229966 
1285	 0.482260242113624 
1286	 0.482765286051315 
1287	 0.483204578078434 
1288	 0.483635597212037 
1289	 0.484020187896066 
1290	 0.484412996946576 
1291	 0.484747897595007 
1292	 0.485152875930868 
1293	 0.485586461033739 
1294	 0.48604334561496 
1295	 0.486501641024833 
1296	 0.487082300876025 
1297	 0.487626933047665 
1298	 0.488174319082701 
1299	 0.488783688327599 
1300	 0.489487850432554 
1301	 0.49006087690304 
1302	 0.490632774397182 
1303	 0.491165728561017 
1304	 0.491545957268493 
1305	 0.492098018307524 
1306	 0.492739833016742 
1307	 0.49335674596451 
1308	 0.494072522239071 
1309	 0.49469327396707 
1310	 0.495180813980285 
1311	 0.49582968700743 
1312	 0.496557287420343 
1313	 0.497245362049174 
1314	 0.498031710747368 
1315	 0.498768268937839 
1316	 0.499495068828983 
1317	 0.500122259485053 
1318	 0.50070440152946 
1319	 0.501262507913635 
1320	 0.50165780587263 
1321	 0.502118485574011 
1322	 0.502653548826085 
1323	 0.503278960544615 
1324	 0.503830326746982 
1325	 0.50442268647718 
1326	 0.504987300854801 
1327	 0.505515270003172 
1328	 0.506060745156281 
1329	 0.506587666124541 
1330	 0.507214718982238 
1331	 0.507869634715611 
1332	 0.508538555967633 
1333	 0.509346162098984 
1334	 0.510022572652081 
1335	 0.510630016295679 
1336	 0.511213272443234 
1337	 0.511817386163614 
1338	 0.512289375852558 
1339	 0.51267600167331 
1340	 0.513032477257885 
1341	 0.51328848635072 
1342	 0.513518059742635 
1343	 0.51375858556291 
1344	 0.513915122632815 
1345	 0.513793927821239 
1346	 0.513879411803718 
1347	 0.514179597921621 
1348	 0.514081835226913 
1349	 0.514099107499235 
1350	 0.514177310485719 
1351	 0.514372095024783 
1352	 0.514399336312784 
1353	 0.514700317038883 
1354	 0.516104560138698 
1355	 0.516705367849927 
1356	 0.516067871989306 
1357	 0.515552279847239 
1358	 0.512169177220845 
1359	 0.510444334471533 
1360	 0.511398332340083 
1361	 0.511942327410727 
1362	 0.518987671980935 
1363	 0.526023883849289 
1364	 0.531700409192895 
1365	 0.535162541022892 
1366	 0.53262778201715 
1367	 0.533198079220369 
1368	 0.533237156471029 
1369	 0.531511373322326 
1370	 0.528428600988874 
1371	 0.529158574516678 
1372	 0.530346677242951 
1373	 0.530786653254258 
1374	 0.531810405243589 
1375	 0.535063676454047 
1376	 0.537413313340026 
1377	 0.536059159749367 
1378	 0.53702527700553 
1379	 0.539794426623586 
1380	 0.540072573075944 
1381	 0.538115288289044 
1382	 0.539398861621044 
1383	 0.541369366979893 
1384	 0.54245943262187 
1385	 0.545386101022148 
1386	 0.546127747262064 
1387	 0.544404261863161 
1388	 0.544549963178192 
1389	 0.5455488216942 
1390	 0.545667777393859 
1391	 0.545125497266349 
1392	 0.545896794014465 
1393	 0.547511026886439 
1394	 0.547976312805986 
1395	 0.548748798441563 
1396	 0.548941032749044 
1397	 0.547486177286879 
1398	 0.547461544283727 
1399	 0.548823963089552 
1400	 0.549232726708242 
1401	 0.549206983365365 
1402	 0.54952007453672 
1403	 0.549095678302215 
1404	 0.549498205320511 
1405	 0.55093953794917 
1406	 0.551657878943322 
1407	 0.552580464708126 
1408	 0.553711936339853 
1409	 0.55398270053656 
1410	 0.554905927327522 
1411	 0.555624434515782 
1412	 0.556463053997533 
1413	 0.556633754098306 
1414	 0.556654617061873 
1415	 0.556684775180517 
1416	 0.55608198786953 
1417	 0.556533934633718 
1418	 0.557642820993989 
1419	 0.558081885873334 
1420	 0.558449951415484 
1421	 0.559032177570088 
1422	 0.55944711470171 
1423	 0.559913015079469 
1424	 0.560719444953452 
1425	 0.561246457880999 
1426	 0.561345020262918 
1427	 0.561882943049298 
1428	 0.562785499806266 
1429	 0.563412621868492 
1430	 0.564180410155511 
1431	 0.56473202852241 
1432	 0.564995808707188 
1433	 0.565374734647752 
1434	 0.565687618961456 
1435	 0.566114892647626 
1436	 0.566657291237363 
1437	 0.56709893746242 
1438	 0.567522221025706 
1439	 0.567963275610864 
1440	 0.568239117054324 
1441	 0.568702567330339 
1442	 0.569371630946035 
1443	 0.569903922280093 
1444	 0.570327797421745 
1445	 0.57088782058708 
1446	 0.571527609938367 
1447	 0.572167870805507 
1448	 0.5727477544297 
1449	 0.573399960491366 
1450	 0.574010201403371 
1451	 0.574553575965367 
1452	 0.575005448359997 
1453	 0.575443177213068 
1454	 0.575922729595312 
1455	 0.576303178157564 
1456	 0.576756997369106 
1457	 0.577355935329558 
1458	 0.57789264462837 
1459	 0.578529146827206 
1460	 0.578882988880708 
1461	 0.579134930601997 
1462	 0.579443902331842 
1463	 0.579431193958503 
1464	 0.579818916676608 
1465	 0.58059907512418 
1466	 0.581186225748568 
1467	 0.581856592006241 
1468	 0.582475798151436 
1469	 0.582985660317679 
1470	 0.583512245354257 
1471	 0.583958278183081 
1472	 0.584509309975698 
1473	 0.585047418220728 
1474	 0.585607560678178 
1475	 0.586319626631974 
1476	 0.586860821513939 
1477	 0.587258674771838 
1478	 0.587679615549638 
1479	 0.588014938095986 
1480	 0.588395044313861 
1481	 0.588731636287947 
1482	 0.589186858250634 
1483	 0.589768823999111 
1484	 0.590246305496964 
1485	 0.590746581909572 
1486	 0.591218416986367 
1487	 0.591625929045071 
1488	 0.591947937606322 
1489	 0.592422554090727 
1490	 0.592921059581253 
1491	 0.593388082470386 
1492	 0.593884316242329 
1493	 0.594363715337364 
1494	 0.594799701388934 
1495	 0.595195714586331 
1496	 0.595560219042963 
1497	 0.595993591319569 
1498	 0.596385487136654 
1499	 0.596894653088707 
1500	 0.597554502439412 
1501	 0.598074548471829 
1502	 0.598593342144688 
1503	 0.599051060602523 
1504	 0.599385698230536 
1505	 0.599897383795001 
1506	 0.600460723733345 
1507	 0.60102519313644 
1508	 0.601716026404786 
1509	 0.602251568374871 
1510	 0.602705845758763 
1511	 0.603178888623903 
1512	 0.603592688973328 
1513	 0.604062565581232 
1514	 0.604554902442154 
1515	 0.605044004177027 
1516	 0.605565241835361 
1517	 0.606066981547687 
1518	 0.606572301488697 
1519	 0.607055218152098 
1520	 0.6075663382492 
1521	 0.607981781576855 
1522	 0.608309971640371 
1523	 0.608692837604762 
1524	 0.608999618882555 
1525	 0.609409948783109 
1526	 0.609942748105733 
1527	 0.610391407949926 
1528	 0.61085717746535 
1529	 0.611281783501892 
1530	 0.61162601914963 
1531	 0.612025990858033 
1532	 0.612488635105932 
1533	 0.612862205108583 
1534	 0.613180843184263 
1535	 0.613536999802543 
1536	 0.613826415020899 
1537	 0.614177031138013 
1538	 0.614605074289852 
1539	 0.615018699104753 
1540	 0.615430361482861 
1541	 0.615862014168902 
1542	 0.61632034971486 
1543	 0.616765042762045 
1544	 0.617233677470522 
1545	 0.617670677214781 
1546	 0.618123871935192 
1547	 0.618515270517066 
1548	 0.618771894132384 
1549	 0.619156425859538 
1550	 0.619598284130538 
1551	 0.620004760580431 
1552	 0.620527997868043 
1553	 0.620961989518237 
1554	 0.621319037495628 
1555	 0.621640250070408 
1556	 0.621818536015176 
1557	 0.622139604704267 
1558	 0.622502413599238 
1559	 0.622874396031431 
1560	 0.623389452950828 
1561	 0.623861215813227 
1562	 0.624285647605494 
1563	 0.624721466812109 
1564	 0.625205091332825 
1565	 0.625623861723492 
1566	 0.626040070163108 
1567	 0.626496387888596 
1568	 0.626950517493184 
1569	 0.627433656522234 
1570	 0.627839357189833 
1571	 0.628248119938866 
1572	 0.628557559291545 
1573	 0.628748075582828 
1574	 0.629052898180598 
1575	 0.629330994673876 
1576	 0.629681761130682 
1577	 0.630120003524521 
1578	 0.63047627853162 
1579	 0.630773812587001 
1580	 0.631225918886613 
1581	 0.631750741541579 
1582	 0.632166132633627 
1583	 0.63267574188804 
1584	 0.633009183595723 
1585	 0.63311575550285 
1586	 0.633484431707061 
1587	 0.633894521783726 
1588	 0.634390775495204 
1589	 0.635064603525114 
1590	 0.635575042713638 
1591	 0.636080873667199 
1592	 0.636532037572805 
1593	 0.6369107753481 
1594	 0.637296479902025 
1595	 0.637637159618886 
1596	 0.638061749758325 
1597	 0.638506489669309 
1598	 0.638939853047602 
1599	 0.639453717957218 
1600	 0.639855906119238 
1601	 0.640191839627053 
1602	 0.640523953574594 
1603	 0.640777798467032 
1604	 0.641153735923195 
1605	 0.64156904384245 
1606	 0.641952817620092 
1607	 0.642421657537126 
1608	 0.642772781270609 
1609	 0.643045382922587 
1610	 0.643304176816097 
1611	 0.643491211178228 
1612	 0.643770013248459 
1613	 0.644023888083564 
1614	 0.644362691634186 
1615	 0.64483220254125 
1616	 0.6451685899703 
1617	 0.645479318580289 
1618	 0.645769732789593 
1619	 0.645990202341925 
1620	 0.64626371761393 
1621	 0.646566107897281 
1622	 0.646837001902996 
1623	 0.64710187423356 
1624	 0.64736336511979 
1625	 0.647566919517357 
1626	 0.647902608294229 
1627	 0.64832515073707 
1628	 0.648660768750807 
1629	 0.649038940545254 
1630	 0.649400699587557 
1631	 0.649667994553903 
1632	 0.650042972432316 
1633	 0.650544432248434 
1634	 0.650898056174955 
1635	 0.651198016750521 
1636	 0.651570036115174 
1637	 0.651851144738508 
1638	 0.652312230592347 
1639	 0.65289779076568 
1640	 0.653488923130302 
1641	 0.654244656644906 
1642	 0.654732192788914 
1643	 0.655170563901501 
1644	 0.655503409235104 
1645	 0.655537094392861 
1646	 0.655906225686961 
1647	 0.656361883472678 
1648	 0.656852871675677 
1649	 0.657558460559096 
1650	 0.658049994202378 
1651	 0.658462945231465 
1652	 0.658861171979743 
1653	 0.659149639765212 
1654	 0.659565130925475 
1655	 0.660069959433005 
1656	 0.660444580779098 
1657	 0.66080437891278 
1658	 0.661094800027872 
1659	 0.661337109829348 
1660	 0.661658012896622 
1661	 0.662074253943642 
1662	 0.662457650329888 
1663	 0.662785313599399 
1664	 0.663184045376951 
1665	 0.663524223881851 
1666	 0.663735644264905 
1667	 0.664073720535212 
1668	 0.664397820227365 
1669	 0.664670342853752 
1670	 0.664979811855535 
1671	 0.665233235060243 
1672	 0.665512132587877 
1673	 0.665835365992162 
1674	 0.666163940907563 
1675	 0.666603977900742 
1676	 0.667033407857195 
1677	 0.667420681883714 
1678	 0.667819401429078 
1679	 0.668144630025709 
1680	 0.668427095157408 
1681	 0.668688373871104 
1682	 0.66902137261092 
1683	 0.669359296881916 
1684	 0.669539012695415 
1685	 0.66978382096814 
1686	 0.670068855890984 
1687	 0.670295302550112 
1688	 0.670603258649764 
1689	 0.670986672958773 
1690	 0.671256895445854 
1691	 0.671577808901879 
1692	 0.671936212837841 
1693	 0.6722572320012 
1694	 0.672658710203272 
1695	 0.672985810541793 
1696	 0.67320297366929 
1697	 0.673483503829718 
1698	 0.673714400904599 
1699	 0.67399208513854 
1700	 0.674455080657307 
1701	 0.674724096914594 
1702	 0.674855295080116 
1703	 0.675025516166856 
1704	 0.675046780746455 
1705	 0.675184188397245 
1706	 0.675375308426404 
1707	 0.675682378283784 
1708	 0.676116357286528 
1709	 0.676480457598141 
1710	 0.677054152484743 
1711	 0.677298965339532 
1712	 0.677240534450372 
1713	 0.677331816182804 
1714	 0.677231516188703 
1715	 0.677361127022796 
1716	 0.677732635056696 
1717	 0.678091259347731 
1718	 0.678525183142029 
1719	 0.678927755484469 
1720	 0.679387528720581 
1721	 0.679669852565843 
1722	 0.679849003397735 
1723	 0.68011967606071 
1724	 0.680297687192678 
1725	 0.680581414427439 
1726	 0.68100278331995 
1727	 0.681401947213531 
1728	 0.681816393159861 
1729	 0.682161268691267 
1730	 0.682524173699416 
1731	 0.682565873826919 
1732	 0.682809447719754 
1733	 0.683032426242687 
1734	 0.683195624625497 
1735	 0.683566401019949 
1736	 0.684019804295739 
1737	 0.684463266818082 
1738	 0.684895205117389 
1739	 0.685165182942515 
1740	 0.685251294481692 
1741	 0.685434700196297 
1742	 0.685716509776003 
1743	 0.685880417325235 
1744	 0.686097127081693 
1745	 0.686356255988685 
1746	 0.686584171775402 
1747	 0.687024384578 
1748	 0.68735844351822 
1749	 0.687555176977532 
1750	 0.687735763595898 
1751	 0.687872317896211 
1752	 0.688284226264814 
1753	 0.688559423924807 
1754	 0.688666951127892 
1755	 0.688927565664872 
1756	 0.689048438272056 
1757	 0.689377024265202 
1758	 0.689675824103422 
1759	 0.689876308125128 
1760	 0.690109167289395 
1761	 0.69030735271718 
1762	 0.690621136659562 
1763	 0.691141307994889 
1764	 0.691410319648868 
1765	 0.691582597129669 
1766	 0.691901554559072 
1767	 0.691919798831848 
1768	 0.692420416163622 
1769	 0.693610277188864 
1770	 0.694045857841561 
1771	 0.69419062032801 
1772	 0.694463364354041 
1773	 0.694425653378784 
1774	 0.694696791894866 
1775	 0.695082630213021 
1776	 0.6953010404279 
1777	 0.695272090077145 
1778	 0.695100577078409 
1779	 0.695417534433668 
1780	 0.695739947873096 
1781	 0.69604129115721 
1782	 0.696776117825275 
1783	 0.697031093521979 
1784	 0.697541516417303 
1785	 0.697864247751246 
1786	 0.697873029445615 
1787	 0.698579716583695 
1788	 0.699112437730334 
1789	 0.69957732594734 
1790	 0.700156738534174 
1791	 0.700554245513096 
1792	 0.700461206157935 
1793	 0.700512562639916 
1794	 0.700601437437868 
1795	 0.699928922508295 
1796	 0.699982747057487 
1797	 0.700370648543399 
1798	 0.700794224625036 
1799	 0.702242642567638 
1800	 0.702480174671903 
1801	 0.703654576581003 
1802	 0.70491616620491 
1803	 0.705622403719498 
1804	 0.705534366829881 
1805	 0.705717927274315 
1806	 0.706498982852176 
1807	 0.706364362282412 
1808	 0.704849784690331 
1809	 0.703618137286938 
1810	 0.704018274707745 
1811	 0.705243861575012 
1812	 0.70591978155481 
1813	 0.710063891222279 
1814	 0.710105755425929 
1815	 0.704313035030598 
1816	 0.702514710097242 
1817	 0.700422883393338 
1818	 0.699220515391017 
1819	 0.699483699003813 
1820	 0.704837714055688 
1821	 0.706227075084537 
1822	 0.706365524425414 
1823	 0.706784192766523 
1824	 0.705562968805171 
1825	 0.705743695833934 
1826	 0.708064054136596 
1827	 0.708173736715501 
1828	 0.707256001645619 
1829	 0.706042058242731 
1830	 0.702119581050589 
1831	 0.686703043526502 
1832	 0.681222744387643 
1833	 0.688791571581408 
1834	 0.68356277165985 
1835	 0.678427505786554 
1836	 0.674988517053972 
1837	 0.656484515115079 
1838	 0.641469128668846 
1839	 0.632990866140733 
1840	 0.6421089388067 
1841	 0.654738317745059 
1842	 0.700349230314959 
1843	 0.67941012765837 
1844	 0.612932305693062 
1845	 0.605162153810612 
1846	 0.568932109849636 
1847	 0.568813498654941 
1848	 0.596161713728878 
1849	 0.713475296715774 
1850	 0.753046741060659 
1851	 0.784245990101518 
1852	 0.792010642813368 
1853	 0.754231094695992 
1854	 0.736701656935681 
1855	 0.689312402865151 
1856	 0.681859272238338 
1857	 0.698580008231807 
1858	 0.716198212075984 
1859	 0.724603479426216 
1860	 0.751058072972371 
1861	 0.754241089586509 
1862	 0.746434160906691 
1863	 0.729231777654484 
1864	 0.686743329111204 
1865	 0.671763118261228 
1866	 0.650673545146361 
1867	 0.635538668578951 
1868	 0.677242492566132 
1869	 0.707307816688828 
1870	 0.719115277722423 
1871	 0.725591381069745 
1872	 0.726857937560999 
1873	 0.696386250781161 
1874	 0.691614345823182 
1875	 0.698670900082342 
1876	 0.701918394579225 
1877	 0.704141626991756 
1878	 0.711905183849105 
1879	 0.71347459253585 
1880	 0.710170892272182 
1881	 0.709302568301684 
1882	 0.704694294724364 
1883	 0.705545385260832 
1884	 0.711512023489489 
1885	 0.712865930476766 
1886	 0.716810764117166 
1887	 0.71226182362983 
1888	 0.713387438616549 
1889	 0.714889014312804 
1890	 0.714920732035542 
1891	 0.717926279539649 
1892	 0.720854354030299 
1893	 0.721812904540856 
1894	 0.721638294456638 
1895	 0.722101496358447 
1896	 0.72167155072361 
1897	 0.717084413984404 
1898	 0.714610106241073 
1899	 0.71401744937464 
1900	 0.712640523165876 
1901	 0.709363413593061 
1902	 0.696422418543645 
1903	 0.695318222504625 
1904	 0.702949580667308 
1905	 0.709602669472702 
1906	 0.720584522178708 
1907	 0.74587315071886 
1908	 0.736925002954873 
1909	 0.724070145441691 
1910	 0.716368039729581 
1911	 0.70036655254282 
1912	 0.698342838738647 
1913	 0.701916655470614 
1914	 0.703930726688604 
1915	 0.709307379375928 
1916	 0.71149747417035 
1917	 0.713259337951404 
1918	 0.714219637203761 
1919	 0.715593609058309 
1920	 0.711583623459757 
1921	 0.703973750412279 
1922	 0.700168707289986 
1923	 0.699718445444016 
1924	 0.6998312642384 
1925	 0.701948147227935 
1926	 0.709318054827314 
1927	 0.712453661756138 
1928	 0.715902978582544 
1929	 0.713883737751407 
1930	 0.714020686780806 
1931	 0.715322569253871 
1932	 0.713665200890575 
1933	 0.716935122783174 
1934	 0.717742645549181 
1935	 0.71669946012184 
1936	 0.716990288173194 
1937	 0.71791183472965 
1938	 0.718256943047115 
1939	 0.718234306336866 
1940	 0.720131383669453 
1941	 0.720777868444194 
1942	 0.720406194039698 
1943	 0.720582256778585 
1944	 0.720389702032187 
1945	 0.719944554292616 
1946	 0.720119093454727 
1947	 0.720103197349983 
1948	 0.719957313319641 
1949	 0.720233951150462 
1950	 0.720904094307295 
1951	 0.720527541645707 
1952	 0.721968730582149 
1953	 0.723194698509715 
1954	 0.723550108311544 
1955	 0.724911836700172 
1956	 0.726484127351629 
1957	 0.726550877728979 
1958	 0.726664839585246 
1959	 0.726944978870806 
1960	 0.727537109273872 
1961	 0.727421635279246 
1962	 0.727865526024873 
1963	 0.729915792747294 
1964	 0.730406364146282 
1965	 0.730757066608252 
1966	 0.731503238508405 
1967	 0.731792306946138 
1968	 0.732453039416942 
1969	 0.73286960102286 
1970	 0.733136461730268 
1971	 0.733698837041877 
1972	 0.73427817745149 
1973	 0.734803370032199 
1974	 0.735770865961285 
1975	 0.736819280890461 
1976	 0.737229999686512 
1977	 0.737460368347533 
1978	 0.737841663659401 
1979	 0.738253582630031 
1980	 0.739162720462458 
1981	 0.74000991389256 
1982	 0.740409490823082 
1983	 0.740600499001803 
1984	 0.740573709707029 
1985	 0.740203252653634 
1986	 0.740606984984056 
1987	 0.741394206425186 
1988	 0.742222405064439 
1989	 0.743496831404554 
1990	 0.743878938246354 
1991	 0.744049624692252 
1992	 0.744312088698644 
1993	 0.743994860589222 
1994	 0.744499890069903 
1995	 0.745171682659805 
1996	 0.746462742967711 
1997	 0.747243451557317 
1998	 0.74816490938254 
1999	 0.748551707188446 
2000	 0.747929538037355 
2001	 0.747494007203326 
2002	 0.747390765328897 
2003	 0.746971235724727 
2004	 0.747078334700577 
2005	 0.748228707953526 
2006	 0.749447304941165 
2007	 0.751275037708052 
2008	 0.753087229792562 
2009	 0.754218293441746 
2010	 0.75379445592054 
2011	 0.753296618441796 
2012	 0.753523350144374 
2013	 0.75388967354277 
2014	 0.755247624085552 
2015	 0.757008079486458 
2016	 0.758237749807946 
2017	 0.758941896645672 
2018	 0.759837669003421 
2019	 0.760438432952432 
2020	 0.760703041509804 
2021	 0.760671251538068 
2022	 0.761337027094921 
2023	 0.761807298895211 
2024	 0.762586777180693 
2025	 0.763771273372889 
2026	 0.764294894865405 
2027	 0.764615681192797 
2028	 0.764837378008121 
2029	 0.76499527031869 
2030	 0.765350141735037 
2031	 0.765880546184939 
2032	 0.766595728858005 
2033	 0.767582960916532 
2034	 0.768351062562287 
2035	 0.768811057325146 
2036	 0.769293563113068 
2037	 0.769490775522728 
2038	 0.769926743365887 
2039	 0.770795440155698 
2040	 0.771726182201097 
2041	 0.772493701891823 
2042	 0.772868542400121 
2043	 0.772866183495328 
2044	 0.77263737809976 
2045	 0.772858872929617 
2046	 0.773255847361266 
2047	 0.773734675500144 
2048	 0.774255576555853 
2049	 0.775002091771863 
2050	 0.77515720426264 
2051	 0.775250217344688 
2052	 0.775669573977176 
2053	 0.776296520836721 
2054	 0.777100731845043 
2055	 0.777388387070801 
2056	 0.777586244700412 
2057	 0.778111513473889 
2058	 0.778802449599879 
2059	 0.779364225886534 
2060	 0.780235452599894 
2061	 0.780856029749614 
2062	 0.780975061145432 
2063	 0.780673394890537 
2064	 0.780884795190915 
2065	 0.781342469094261 
2066	 0.78153152642861 
2067	 0.782425034497982 
2068	 0.782960942392746 
2069	 0.783211011511981 
2070	 0.783848452639906 
2071	 0.784117310474221 
2072	 0.784382738836531 
2073	 0.784454525830257 
2074	 0.784807593609588 
2075	 0.78526244003502 
2076	 0.785658177527661 
2077	 0.786219650605788 
2078	 0.786687086427477 
2079	 0.78721908831965 
2080	 0.787839671684681 
2081	 0.788330520233843 
2082	 0.788946071053412 
2083	 0.789035666068566 
2084	 0.78875456934995 
2085	 0.788547138588846 
2086	 0.788388773013556 
2087	 0.788646925734944 
2088	 0.789183685561655 
2089	 0.790235494009091 
2090	 0.791389513533846 
2091	 0.792190229494378 
2092	 0.792658691809082 
2093	 0.792964176006558 
2094	 0.793047624841734 
2095	 0.793368142292507 
2096	 0.794263911002425 
2097	 0.794870678529652 
2098	 0.79503735509697 
2099	 0.795411496406865 
2100	 0.796087756719059 
2101	 0.796871096447816 
2102	 0.79748890352667 
2103	 0.798446772863393 
2104	 0.799047691178799 
2105	 0.799156099180565 
2106	 0.79946281222836 
2107	 0.800149012220574 
2108	 0.801062007683791 
2109	 0.801969423419632 
2110	 0.802352532249126 
2111	 0.802019151024852 
2112	 0.801945254696828 
2113	 0.802362441351814 
2114	 0.802734570422595 
2115	 0.803565530303276 
2116	 0.80454837490723 
2117	 0.805039239654588 
2118	 0.804894717740948 
2119	 0.805122306508129 
2120	 0.805313976867256 
2121	 0.805443276300787 
2122	 0.80596139490936 
2123	 0.80658061714364 
2124	 0.807314754219974 
2125	 0.807904052591161 
2126	 0.808590563741741 
2127	 0.809552750365489 
2128	 0.810671095714126 
2129	 0.811766771125984 
2130	 0.812297404036873 
2131	 0.812750605252892 
2132	 0.812888503997883 
2133	 0.812342911121012 
2134	 0.812084751933512 
2135	 0.811846270982694 
2136	 0.81174489800079 
2137	 0.811198311684524 
2138	 0.811342915967079 
2139	 0.812150548991173 
2140	 0.812118392195508 
2141	 0.81243737770565 
2142	 0.81299705273598 
2143	 0.812829170151341 
2144	 0.812549275703721 
2145	 0.81282974940962 
2146	 0.812951519714683 
2147	 0.812318702945701 
2148	 0.812263404505554 
2149	 0.812208732983087 
2150	 0.811943295065576 
2151	 0.811993106023836 
2152	 0.812972530396113 
2153	 0.81292827784022 
2154	 0.812311320468948 
2155	 0.811925485436047 
2156	 0.811791085713515 
2157	 0.81163185016677 
2158	 0.811769732809167 
2159	 0.811622124608581 
2160	 0.810696645713518 
2161	 0.809897743497134 
2162	 0.809255265817739 
2163	 0.808746043119056 
2164	 0.808722085479147 
2165	 0.808553764062199 
2166	 0.808599580289181 
2167	 0.808651781346562 
2168	 0.808211574286383 
2169	 0.807141106566076 
2170	 0.806877228044484 
2171	 0.80658018568221 
2172	 0.806454127171322 
2173	 0.806983967138192 
2174	 0.807043681333717 
2175	 0.8068232013998 
2176	 0.806338130688306 
2177	 0.806028057208389 
2178	 0.806378115332744 
2179	 0.806405266643294 
2180	 0.806360293450017 
2181	 0.806302841359525 
2182	 0.805700703563357 
2183	 0.805096144680616 
2184	 0.805064767860742 
2185	 0.805092223398663 
2186	 0.805092681558931 
2187	 0.804869957586165 
2188	 0.804225581534736 
2189	 0.803833735844196 
2190	 0.803348901999054 
2191	 0.803304136466957 
2192	 0.803065018572933 
2193	 0.80340483818001 
2194	 0.803863655895203 
2195	 0.803667123968993 
2196	 0.803657100328019 
2197	 0.803877344689226 
2198	 0.803628129917625 
2199	 0.803195341326029 
2200	 0.802892685239126 
2201	 0.802403241027801 
2202	 0.801930488569131 
2203	 0.802004156854631 
2204	 0.801964603795978 
2205	 0.80167826679809 
2206	 0.801748790915622 
2207	 0.801362363823707 
2208	 0.8012043544846 
2209	 0.801504836621079 
2210	 0.801711282031157 
2211	 0.801762398133133 
2212	 0.80203147451464 
2213	 0.802523817507556 
2214	 0.801884723288541 
2215	 0.801612591016351 
2216	 0.801599380416529 
2217	 0.801014070345451 
2218	 0.801126238710215 
2219	 0.801500083076526 
2220	 0.801200582508082 
2221	 0.801647587360639 
2222	 0.802550635461086 
2223	 0.802308616566435 
2224	 0.802530774940941 
2225	 0.803154070929019 
2226	 0.802597588228048 
2227	 0.802458333499327 
2228	 0.802489603937694 
2229	 0.80196737001721 
2230	 0.801914413761991 
2231	 0.801874641866101 
2232	 0.801963287426138 
2233	 0.802118644197925 
2234	 0.802360432175367 
2235	 0.802757504602017 
2236	 0.802770559159972 
2237	 0.803330268677732 
2238	 0.803801070034732 
2239	 0.803123576278491 
2240	 0.802917439791754 
2241	 0.803159036966358 
2242	 0.803127536314893 
2243	 0.803833504367336 
2244	 0.804115830495155 
2245	 0.803766556370342 
2246	 0.803787039157091 
2247	 0.803381218477829 
2248	 0.803423920660977 
2249	 0.803590872073472 
2250	 0.802939242397922 
2251	 0.802400489874931 
2252	 0.802526059293936 
2253	 0.803027390600163 
2254	 0.803096544355344 
2255	 0.803338208399924 
2256	 0.803388066961195 
2257	 0.803062117439626 
2258	 0.802033874242235 
2259	 0.802240947417002 
2260	 0.803410202245263 
2261	 0.804488520654301 
2262	 0.805486931663555 
2263	 0.80607631947404 
2264	 0.80580255650342 
2265	 0.805092156931267 
2266	 0.80485141442885 
2267	 0.80514521296856 
2268	 0.804812751809268 
2269	 0.804166841950951 
2270	 0.804243491769072 
2271	 0.803560944236273 
2272	 0.802440377767637 
2273	 0.801948626246098 
2274	 0.801259626193538 
2275	 0.801262180448356 
2276	 0.802202068770109 
2277	 0.802684772530539 
2278	 0.802780118397283 
2279	 0.802993266631607 
2280	 0.80290758784762 
2281	 0.802455349299387 
2282	 0.801646351209676 
2283	 0.800927642257422 
2284	 0.801369206493463 
2285	 0.801469156604652 
2286	 0.801560507991072 
2287	 0.802259963376148 
2288	 0.802719822622289 
2289	 0.801844429976655 
2290	 0.802189352547143 
2291	 0.802675836938253 
2292	 0.80357502436247 
2293	 0.804409250981903 
2294	 0.804276186776179 
2295	 0.804624142145888 
2296	 0.804508914164692 
2297	 0.804481815018174 
2298	 0.804973390591696 
2299	 0.805668849978401 
2300	 0.806689913022994 
2301	 0.807029228196756 
2302	 0.808057012698718 
2303	 0.809125926588751 
2304	 0.808511831021162 
2305	 0.80905636544425 
2306	 0.809870524477596 
2307	 0.810058346986409 
2308	 0.811033309401805 
2309	 0.812300296390275 
2310	 0.81265922864473 
2311	 0.812009843566027 
2312	 0.811985856263647 
2313	 0.812370473809639 
2314	 0.813066456465468 
2315	 0.814198694621627 
2316	 0.81520256995071 
2317	 0.81549227260757 
2318	 0.815408025731577 
2319	 0.816761602532694 
2320	 0.81896880317627 
2321	 0.820025101652044 
2322	 0.820199553057597 
2323	 0.821086148783247 
2324	 0.821746633235053 
2325	 0.822386460557459 
2326	 0.823180706145921 
2327	 0.824645965675015 
2328	 0.824162377479478 
2329	 0.824265223396455 
2330	 0.825377450290571 
2331	 0.825637919942766 
2332	 0.826975497752074 
2333	 0.82724656155443 
2334	 0.826346438043209 
2335	 0.825948602355763 
2336	 0.82574132170054 
2337	 0.825806651954245 
2338	 0.826159024770367 
2339	 0.826295634668756 
2340	 0.826843680931809 
2341	 0.828416616390345 
2342	 0.827829507283338 
2343	 0.827248897552143 
2344	 0.82809859964979 
2345	 0.826245664732684 
2346	 0.825608018582581 
2347	 0.827270513629105 
2348	 0.828601691572639 
2349	 0.829372747904061 
2350	 0.829414577785408 
2351	 0.830364732050527 
2352	 0.830204860330428 
2353	 0.828982912841724 
2354	 0.828509091024729 
2355	 0.82877978408573 
2356	 0.829500596338792 
2357	 0.829650930506769 
2358	 0.831259435113095 
2359	 0.832891098106223 
2360	 0.831466235105791 
2361	 0.831344935122997 
2362	 0.833255293709215 
2363	 0.832190509741169 
2364	 0.83189438256232 
2365	 0.833796142829895 
2366	 0.831794669378047 
2367	 0.829860162072111 
2368	 0.831042147054728 
2369	 0.831689748729683 
2370	 0.833049282784611 
2371	 0.834896129101065 
2372	 0.8355598369945 
2373	 0.834447537211724 
2374	 0.83454175315804 
2375	 0.833992432477441 
2376	 0.834646956783882 
2377	 0.836698058708795 
2378	 0.837109566951777 
2379	 0.838041829691722 
2380	 0.838992961106197 
2381	 0.8386220358118 
2382	 0.839818264310136 
2383	 0.842331751180591 
2384	 0.842039291480475 
2385	 0.840605088318667 
2386	 0.839444235583273 
2387	 0.835980098159523 
2388	 0.835299630287418 
2389	 0.837406431558331 
2390	 0.838446108137395 
2391	 0.841062320818025 
2392	 0.841778142328408 
2393	 0.839865744922845 
2394	 0.839058564693215 
2395	 0.836336732675285 
2396	 0.836406620445649 
2397	 0.841241568385742 
2398	 0.842363356144297 
2399	 0.84346476998278 
2400	 0.842181936890675 
2401	 0.837137754811726 
2402	 0.832215117915137 
2403	 0.83206267855224 
2404	 0.832576047287962 
2405	 0.834651186341853 
2406	 0.837799007305955 
2407	 0.834777629274035 
2408	 0.834726982579608 
2409	 0.837501178895676 
2410	 0.835155398589297 
2411	 0.835123606919149 
2412	 0.835299641905219 
2413	 0.831589123835708 
2414	 0.831844105826458 
2415	 0.834362891253729 
2416	 0.836942655078536 
2417	 0.843502778539626 
2418	 0.84606596031949 
2419	 0.846076483838681 
2420	 0.845731431255085 
2421	 0.843659016584966 
2422	 0.844124475984821 
2423	 0.842959082581219 
2424	 0.840537181485843 
2425	 0.836243176769103 
2426	 0.833452721462352 
2427	 0.831660565504181 
2428	 0.832854899547723 
2429	 0.838743421419774 
2430	 0.841474904685999 
2431	 0.848012508786004 
2432	 0.853191518680818 
2433	 0.85113182406801 
2434	 0.850086528576623 
2435	 0.846636133696641 
2436	 0.84448291706495 
2437	 0.84336537321939 
2438	 0.841553929280328 
2439	 0.837403504825947 
2440	 0.834612479832401 
2441	 0.832654491724096 
2442	 0.83114132952341 
2443	 0.832995363758958 
2444	 0.832168215994736 
2445	 0.826944681105895 
2446	 0.826829084109033 
2447	 0.827428611332626 
2448	 0.829435199499873 
2449	 0.839685462053769 
2450	 0.843073214423549 
2451	 0.841977059833928 
2452	 0.842059372451909 
2453	 0.839753895863591 
2454	 0.838075945631642 
2455	 0.837257480877126 
2456	 0.834778730959444 
2457	 0.830337969065556 
2458	 0.827774165769255 
2459	 0.823332034220449 
2460	 0.823959349960563 
2461	 0.830669512887562 
2462	 0.832756719947814 
2463	 0.835033287343435 
2464	 0.83902179579854 
2465	 0.840826078310193 
2466	 0.84146781487865 
2467	 0.844397823317987 
2468	 0.842034580336607 
2469	 0.837133277952318 
2470	 0.830211652193541 
2471	 0.814391127256205 
2472	 0.813991174960011 
2473	 0.819201053551133 
2474	 0.819451124101539 
2475	 0.829799941837994 
2476	 0.840379222314646 
2477	 0.845501689477505 
2478	 0.848544142066183 
2479	 0.862161143527758 
2480	 0.865530216089919 
2481	 0.850091885489333 
2482	 0.844881658992807 
2483	 0.845505394506246 
2484	 0.846568767946723 
2485	 0.845376836231326 
2486	 0.845385627522553 
2487	 0.865649346228635 
2488	 0.855129603343715 
2489	 0.813948125868836 
2490	 0.817691961347125 
2491	 0.795474091147003 
2492	 0.825033387230318 
2493	 0.935781094018752 
2494	 0.975746575994789 
2495	 1.00015672694897 
2496	 0.991782242535149 
2497	 0.929763547877972 
2498	 0.906833710819935 
2499	 0.894843900715418 
2500	 0.89317432442017 
