Wavelength	ref00132.asd
350	 0.293308032026368 
351	 0.286186979689321 
352	 0.26168222115921 
353	 0.259377983969049 
354	 0.28374251730557 
355	 0.291360375671138 
356	 0.263245634270812 
357	 0.250273845566378 
358	 0.258620873487686 
359	 0.270548122710132 
360	 0.265744134544854 
361	 0.257853357451958 
362	 0.252882713142293 
363	 0.25209290187805 
364	 0.253034799286976 
365	 0.250928078289993 
366	 0.249518451537974 
367	 0.246639549147514 
368	 0.230135628015879 
369	 0.232468980481141 
370	 0.234617445153207 
371	 0.221807254065462 
372	 0.232326512450809 
373	 0.224948475439371 
374	 0.211159167188816 
375	 0.220909687376864 
376	 0.215601196606575 
377	 0.206520184346808 
378	 0.206053911566278 
379	 0.221556772489922 
380	 0.209541471547219 
381	 0.196980092419657 
382	 0.205687870404104 
383	 0.205167756845402 
384	 0.201922897038909 
385	 0.199914834926105 
386	 0.201044407332942 
387	 0.198168129903139 
388	 0.194743389228346 
389	 0.192419963159658 
390	 0.19004095903316 
391	 0.187794933256166 
392	 0.184967817993039 
393	 0.181948224521824 
394	 0.182953709695897 
395	 0.180838861927266 
396	 0.178900699114359 
397	 0.181181326674891 
398	 0.177002630996067 
399	 0.177246712269528 
400	 0.180479068535424 
401	 0.175933024884257 
402	 0.17419470443662 
403	 0.172616840081628 
404	 0.169767361540802 
405	 0.17030140402811 
406	 0.170920449447166 
407	 0.169277423705269 
408	 0.165042032052686 
409	 0.166227923790455 
410	 0.164276999565593 
411	 0.160523494099478 
412	 0.164145309912811 
413	 0.165295996009242 
414	 0.164101995764025 
415	 0.162747120208561 
416	 0.16445068262367 
417	 0.164882579814605 
418	 0.163519022229533 
419	 0.161536299527526 
420	 0.161263878216058 
421	 0.162224024326832 
422	 0.16388472355164 
423	 0.165726619420562 
424	 0.166410455339198 
425	 0.164973212815929 
426	 0.162321501723678 
427	 0.162931542421495 
428	 0.163973658951122 
429	 0.164268974290519 
430	 0.163696657440436 
431	 0.164262192584401 
432	 0.165339442100517 
433	 0.165735021556547 
434	 0.164284309718685 
435	 0.166052791619086 
436	 0.167068731014086 
437	 0.165278755760935 
438	 0.165220995825813 
439	 0.165648496532277 
440	 0.166352635884071 
441	 0.167101850590385 
442	 0.166199143218602 
443	 0.16559939411048 
444	 0.165835452863118 
445	 0.165987710737683 
446	 0.167700809897071 
447	 0.168136572589684 
448	 0.166381980456619 
449	 0.168026838505665 
450	 0.168426648429957 
451	 0.167531141558905 
452	 0.167176224422677 
453	 0.168309417233756 
454	 0.167928435709648 
455	 0.166413872218247 
456	 0.168192758054999 
457	 0.169243171892215 
458	 0.168627262060578 
459	 0.166921233944124 
460	 0.166769432907182 
461	 0.16724289428048 
462	 0.167043814308019 
463	 0.165104879144046 
464	 0.163966908092201 
465	 0.164164218784938 
466	 0.165057155434938 
467	 0.164714415921282 
468	 0.163872443748558 
469	 0.16293801550984 
470	 0.16228652394148 
471	 0.162368815527317 
472	 0.162602121036069 
473	 0.162739855487788 
474	 0.162777701348743 
475	 0.162417806879717 
476	 0.16187707141143 
477	 0.161212326995863 
478	 0.159948692005849 
479	 0.159889409321735 
480	 0.160497389269518 
481	 0.160619893985351 
482	 0.160535321284264 
483	 0.160104243180717 
484	 0.159651170192986 
485	 0.159908458942747 
486	 0.160138382391101 
487	 0.160136565240842 
488	 0.159877002946399 
489	 0.159406491107747 
490	 0.159519490238857 
491	 0.160126178351693 
492	 0.160584960080328 
493	 0.159294668638529 
494	 0.1598124959218 
495	 0.162738333195939 
496	 0.164700623741758 
497	 0.165212909341567 
498	 0.166512556060734 
499	 0.169891839429469 
500	 0.171126251733628 
501	 0.172819778390868 
502	 0.175575448681868 
503	 0.178746481792015 
504	 0.182332374380263 
505	 0.185770541985376 
506	 0.188976585518311 
507	 0.192678486464392 
508	 0.197632909203659 
509	 0.202693845085855 
510	 0.20684297346763 
511	 0.21219823215916 
512	 0.218116813284644 
513	 0.224112228655318 
514	 0.230026601603838 
515	 0.236325693989213 
516	 0.244261179268258 
517	 0.253636368748852 
518	 0.260628708266063 
519	 0.267879526615354 
520	 0.275656978191647 
521	 0.283340827335874 
522	 0.290358968852707 
523	 0.297538016659008 
524	 0.305083179750261 
525	 0.312295906062033 
526	 0.319822504125378 
527	 0.327307060922345 
528	 0.334141591014887 
529	 0.339503922356381 
530	 0.34442376878609 
531	 0.349491962414427 
532	 0.354958670756662 
533	 0.360248376231532 
534	 0.364588624700373 
535	 0.367881322928012 
536	 0.371118314987423 
537	 0.373283698718681 
538	 0.37543077773301 
539	 0.378581698818141 
540	 0.380653370545448 
541	 0.38307775299273 
542	 0.385461659805183 
543	 0.386008017508545 
544	 0.387337142830717 
545	 0.388719311979413 
546	 0.389569021156846 
547	 0.39089425625663 
548	 0.392556122485493 
549	 0.393882836750619 
550	 0.394161565987982 
551	 0.394057980734573 
552	 0.393702511340353 
553	 0.393122781520249 
554	 0.392272270273395 
555	 0.390172389201176 
556	 0.38782383880241 
557	 0.385929883565467 
558	 0.382592808432267 
559	 0.379192790618691 
560	 0.375778657724937 
561	 0.371632545405862 
562	 0.367934586694234 
563	 0.363677324396123 
564	 0.358694599570312 
565	 0.354775432803993 
566	 0.350854474002333 
567	 0.346154739732711 
568	 0.340416617167508 
569	 0.335357708827258 
570	 0.329956918371581 
571	 0.324378677712449 
572	 0.319849510365363 
573	 0.314650314411145 
574	 0.309675694299691 
575	 0.305553087146482 
576	 0.301134146164733 
577	 0.296711904502533 
578	 0.29247483272885 
579	 0.288577912135769 
580	 0.285206477523845 
581	 0.282002928051685 
582	 0.278904159295119 
583	 0.276292795499545 
584	 0.273468456372212 
585	 0.270751551346944 
586	 0.268440660503721 
587	 0.265595048393015 
588	 0.263332168605027 
589	 0.261387525095035 
590	 0.258689693936074 
591	 0.257192863543195 
592	 0.255742726513557 
593	 0.253760950248587 
594	 0.252611104311541 
595	 0.25128828400345 
596	 0.249668502705125 
597	 0.247949771118735 
598	 0.246411051727858 
599	 0.244765574721484 
600	 0.243252473621565 
601	 0.242568066262265 
602	 0.240831628969904 
603	 0.238773047209315 
604	 0.237137210694908 
605	 0.235245436600149 
606	 0.233316159266085 
607	 0.231177139405188 
608	 0.228588338835 
609	 0.226259806696259 
610	 0.223642975933794 
611	 0.220761431920219 
612	 0.218565811794227 
613	 0.215885302400281 
614	 0.213363744770953 
615	 0.211559504082823 
616	 0.20882541786565 
617	 0.205947490676145 
618	 0.203556335254933 
619	 0.201961701209775 
620	 0.200241524090566 
621	 0.198596007681445 
622	 0.197166100391073 
623	 0.195656274714851 
624	 0.194469272025329 
625	 0.193373363985381 
626	 0.192164230033833 
627	 0.191994599749222 
628	 0.191628359060825 
629	 0.190824269876039 
630	 0.190357826047653 
631	 0.189392273328409 
632	 0.188410561513956 
633	 0.18768101544635 
634	 0.186258839180323 
635	 0.184850228966296 
636	 0.18335289238741 
637	 0.181367246013788 
638	 0.178999432783347 
639	 0.176554125049878 
640	 0.173993600582216 
641	 0.170905933692685 
642	 0.168277176645543 
643	 0.165423187100617 
644	 0.161894068572362 
645	 0.159466241271544 
646	 0.157325002261888 
647	 0.154796187923987 
648	 0.151539263680518 
649	 0.149324667386526 
650	 0.147478266392576 
651	 0.145586240225208 
652	 0.144040122448238 
653	 0.142892097827871 
654	 0.141719265260058 
655	 0.140161760306997 
656	 0.139133155423044 
657	 0.137075314765455 
658	 0.134302593827939 
659	 0.132156176283097 
660	 0.13056786569082 
661	 0.128204143985291 
662	 0.125041181066446 
663	 0.123831564340107 
664	 0.121699053102083 
665	 0.118812398159213 
666	 0.116383763990052 
667	 0.115228610018446 
668	 0.113299373962666 
669	 0.110962402994191 
670	 0.11064072229124 
671	 0.109440006616604 
672	 0.108247894496284 
673	 0.107847245084352 
674	 0.107153289631819 
675	 0.106534988375326 
676	 0.106036538506164 
677	 0.105694304504075 
678	 0.106035880898474 
679	 0.106605213586679 
680	 0.107283709272697 
681	 0.108364287744264 
682	 0.109934911868026 
683	 0.112410006966375 
684	 0.115836639533039 
685	 0.119152308471472 
686	 0.123793565028198 
687	 0.130407749930201 
688	 0.138289434111087 
689	 0.145261154057296 
690	 0.153273789470197 
691	 0.163294774348908 
692	 0.174419614092743 
693	 0.186416658619307 
694	 0.199713467491469 
695	 0.21439074198583 
696	 0.229377775926152 
697	 0.245633841219866 
698	 0.262326794487627 
699	 0.278173791961059 
700	 0.295614583079568 
701	 0.31348796647433 
702	 0.331083514564766 
703	 0.348636459209954 
704	 0.365658621453182 
705	 0.382658758319336 
706	 0.400172513403701 
707	 0.417780832357078 
708	 0.435719359008483 
709	 0.453749738584039 
710	 0.47139913160659 
711	 0.489387848645981 
712	 0.507550421499349 
713	 0.525791994793913 
714	 0.544243853793248 
715	 0.562438868695769 
716	 0.579292239039753 
717	 0.595128240467402 
718	 0.612700635269073 
719	 0.632508450490404 
720	 0.654577826396731 
721	 0.677824591282389 
722	 0.698473388103937 
723	 0.717634644909975 
724	 0.7369111354416 
725	 0.75605557653821 
726	 0.776173115761871 
727	 0.796263813850055 
728	 0.816036569615807 
729	 0.83642102227336 
730	 0.85546596313771 
731	 0.874154856296507 
732	 0.894147735957902 
733	 0.913590103726225 
734	 0.931043019072402 
735	 0.946885886797412 
736	 0.962604660763164 
737	 0.977441032254261 
738	 0.991274467867206 
739	 1.00447299894132 
740	 1.01767325580043 
741	 1.02992866674649 
742	 1.04089647220357 
743	 1.05060485367869 
744	 1.06012204878421 
745	 1.06847796746466 
746	 1.07566028930637 
747	 1.08240889778354 
748	 1.08884737543177 
749	 1.09436164444758 
750	 1.09889392682532 
751	 1.10348297194025 
752	 1.10710701503536 
753	 1.11035228510757 
754	 1.1136562527281 
755	 1.11526951601142 
756	 1.11701350562298 
757	 1.1183736615315 
758	 1.11797716239185 
759	 1.1200692592668 
760	 1.12290118376354 
761	 1.12389112474409 
762	 1.12216672216744 
763	 1.12171631303114 
764	 1.1215502847481 
765	 1.12090764110861 
766	 1.12140315631706 
767	 1.12091151578634 
768	 1.12004232313314 
769	 1.11980085285843 
770	 1.11944786993066 
771	 1.11847606317948 
772	 1.11713399577143 
773	 1.11622009104011 
774	 1.11516060161561 
775	 1.11410630072544 
776	 1.11304201502272 
777	 1.1115023857481 
778	 1.11008379598282 
779	 1.1089470397034 
780	 1.1079593221613 
781	 1.106383667996 
782	 1.10537956158761 
783	 1.10484771621798 
784	 1.10389468883729 
785	 1.1014517501028 
786	 1.09919738784617 
787	 1.09746602105539 
788	 1.09499681873013 
789	 1.09261477656695 
790	 1.0911899023274 
791	 1.09073560070533 
792	 1.08953344500259 
793	 1.08883607468756 
794	 1.08793668589082 
795	 1.08596868562277 
796	 1.0837628533101 
797	 1.08232826700356 
798	 1.08141344779905 
799	 1.08006233256235 
800	 1.07826724774402 
801	 1.07646756260695 
802	 1.07504624497038 
803	 1.07418828542831 
804	 1.0737577950158 
805	 1.07292655900151 
806	 1.07140089957608 
807	 1.07022096283304 
808	 1.06833925950132 
809	 1.06629280873864 
810	 1.06458069946349 
811	 1.06169568175141 
812	 1.05739670865175 
813	 1.05254461747462 
814	 1.04851813791172 
815	 1.04475048071653 
816	 1.04204551410381 
817	 1.04056540990826 
818	 1.03966877251147 
819	 1.04028135732316 
820	 1.04087804641623 
821	 1.0404809459723 
822	 1.0396586342797 
823	 1.03826279806491 
824	 1.03653810555165 
825	 1.03519037909281 
826	 1.03584372470009 
827	 1.03591383235871 
828	 1.03480126290401 
829	 1.03297422295723 
830	 1.03117541682522 
831	 1.03102139285922 
832	 1.03160800255434 
833	 1.03057015907628 
834	 1.03008715052803 
835	 1.02992984144942 
836	 1.0298781212949 
837	 1.03002700554142 
838	 1.03001990997907 
839	 1.02941673200919 
840	 1.02826689089565 
841	 1.02753367141727 
842	 1.02687732702563 
843	 1.02612682896585 
844	 1.02529671474555 
845	 1.02493003548874 
846	 1.02393346754193 
847	 1.02280988804026 
848	 1.02238548699501 
849	 1.02106394767056 
850	 1.02013653715512 
851	 1.01943846339624 
852	 1.01795880138692 
853	 1.0182255552737 
854	 1.01764445893093 
855	 1.01541082115199 
856	 1.01340844976443 
857	 1.01242120805324 
858	 1.01159539847242 
859	 1.01065138662085 
860	 1.01069475300075 
861	 1.00948506467687 
862	 1.00798298790508 
863	 1.00739096836035 
864	 1.00750554254782 
865	 1.00664823568052 
866	 1.00576155012653 
867	 1.00575602404877 
868	 1.00365127742066 
869	 1.00092240431213 
870	 0.999532467854107 
871	 1.00038388767301 
872	 0.998658224350647 
873	 0.998000231168981 
874	 0.997868834173791 
875	 0.995278115729086 
876	 0.994528738021393 
877	 0.994229272650804 
878	 0.992894266014475 
879	 0.989971747880584 
880	 0.989647973246908 
881	 0.988871950316211 
882	 0.986736423568904 
883	 0.986482645359759 
884	 0.985057936374662 
885	 0.983727717874083 
886	 0.98332682718915 
887	 0.982401434391283 
888	 0.980625156764264 
889	 0.978973286633154 
890	 0.977717281290785 
891	 0.97447992628661 
892	 0.971056029425758 
893	 0.968050408977856 
894	 0.965191552416947 
895	 0.960393028840423 
896	 0.958358019457881 
897	 0.95685066124218 
898	 0.952527968587633 
899	 0.952048812144741 
900	 0.951347963382826 
901	 0.949714999585298 
902	 0.948482979322701 
903	 0.948494881220794 
904	 0.947487905434275 
905	 0.945819159950463 
906	 0.94522753920388 
907	 0.94475947750028 
908	 0.94084950397532 
909	 0.935863543097935 
910	 0.93588135325528 
911	 0.933741579340358 
912	 0.932481809456263 
913	 0.931727812525337 
914	 0.927831769215251 
915	 0.927990098908058 
916	 0.927393074787228 
917	 0.925308030514341 
918	 0.926638329497183 
919	 0.926503015263276 
920	 0.926132833782874 
921	 0.925806008732176 
922	 0.92367613207431 
923	 0.922770800701727 
924	 0.920794065593727 
925	 0.916623236671227 
926	 0.912352974633453 
927	 0.907596464953622 
928	 0.90270765901285 
929	 0.89717723203325 
930	 0.888997519732324 
931	 0.884640720107966 
932	 0.879732887723662 
933	 0.870910378263723 
934	 0.864048554114535 
935	 0.862904792601318 
936	 0.860074863354239 
937	 0.852990086474026 
938	 0.853237796707253 
939	 0.853773922701643 
940	 0.8547681323853 
941	 0.855881280978661 
942	 0.852905422942437 
943	 0.851719301512588 
944	 0.851483982970269 
945	 0.849425698385187 
946	 0.842760464820822 
947	 0.839026949706556 
948	 0.835812583549452 
949	 0.831786740961807 
950	 0.833236089325712 
951	 0.828683459257049 
952	 0.823568468786768 
953	 0.823196908789159 
954	 0.823267975375488 
955	 0.8193434150376 
956	 0.817292091156987 
957	 0.818953810352859 
958	 0.813454094283641 
959	 0.81179214571244 
960	 0.81323168485475 
961	 0.814565970205446 
962	 0.813792704308485 
963	 0.816488544796502 
964	 0.815965193158084 
965	 0.81155346536533 
966	 0.815964027225831 
967	 0.815566767883639 
968	 0.813273318483588 
969	 0.812273998752161 
970	 0.810704304787495 
971	 0.813639569401841 
972	 0.814498550797851 
973	 0.81133713427122 
974	 0.811703020992375 
975	 0.811416041930536 
976	 0.812328879650814 
977	 0.814501063161739 
978	 0.814552412724192 
979	 0.809969040114356 
980	 0.810435996902444 
981	 0.815432122198634 
982	 0.813175230839638 
983	 0.812031648379021 
984	 0.814994697081863 
985	 0.817710331244579 
986	 0.812660144972312 
987	 0.816134249847101 
988	 0.817673110001805 
989	 0.816181340570322 
990	 0.818400018575779 
991	 0.817712379393538 
992	 0.818433601087828 
993	 0.820304874150873 
994	 0.820631016085505 
995	 0.823423809423408 
996	 0.82037192510799 
997	 0.816335292371048 
998	 0.819885128128939 
999	 0.826383957706109 
1000	 0.821794836923796 
1001	 0.850099727187895 
1002	 0.850364131329508 
1003	 0.8507200058043 
1004	 0.850986777076744 
1005	 0.851572619473992 
1006	 0.852642817757634 
1007	 0.853321543817412 
1008	 0.853921055517475 
1009	 0.85453628126222 
1010	 0.855212586825738 
1011	 0.855570732652241 
1012	 0.855645602296818 
1013	 0.855990357252828 
1014	 0.85631422037408 
1015	 0.856799845656252 
1016	 0.857609464436297 
1017	 0.858556222945576 
1018	 0.85952145057475 
1019	 0.860699652658259 
1020	 0.861471861957009 
1021	 0.862215655357459 
1022	 0.862754520952584 
1023	 0.862989611919993 
1024	 0.86314794242841 
1025	 0.863312308901103 
1026	 0.863742352760021 
1027	 0.86456024853639 
1028	 0.865562545137445 
1029	 0.866010589543507 
1030	 0.86611069350599 
1031	 0.866108670960094 
1032	 0.865502845384215 
1033	 0.865425683749728 
1034	 0.865952048128286 
1035	 0.866326419630944 
1036	 0.866696101002393 
1037	 0.866915971695976 
1038	 0.867215162943989 
1039	 0.867168858140245 
1040	 0.86701829469361 
1041	 0.866946958518926 
1042	 0.867010231134736 
1043	 0.867190397282643 
1044	 0.867278698357355 
1045	 0.867731776575051 
1046	 0.868098816227722 
1047	 0.867781282439243 
1048	 0.867537377108683 
1049	 0.867873544190615 
1050	 0.868064716582943 
1051	 0.868317806005855 
1052	 0.868718996200684 
1053	 0.869198943002832 
1054	 0.869114789285989 
1055	 0.869040553273775 
1056	 0.869184585144653 
1057	 0.869205783566693 
1058	 0.869180467301635 
1059	 0.869346050830273 
1060	 0.869169153355447 
1061	 0.868679423338667 
1062	 0.868604167531392 
1063	 0.868492784069968 
1064	 0.868516962734118 
1065	 0.868617559754009 
1066	 0.869074924915889 
1067	 0.869124650827333 
1068	 0.869014675985308 
1069	 0.8688870921172 
1070	 0.868626965374508 
1071	 0.868298361438132 
1072	 0.867734803677278 
1073	 0.867349964234239 
1074	 0.867075485869329 
1075	 0.866450509458993 
1076	 0.865894658902548 
1077	 0.865334362712537 
1078	 0.86456220701684 
1079	 0.863909376484216 
1080	 0.86353628323981 
1081	 0.862936817734943 
1082	 0.862281052812833 
1083	 0.861330292530939 
1084	 0.860430311399743 
1085	 0.859736645285671 
1086	 0.858907173579765 
1087	 0.858094483002942 
1088	 0.85746762154646 
1089	 0.856147685805211 
1090	 0.85462301200401 
1091	 0.853500572074612 
1092	 0.851906095977608 
1093	 0.85018975115401 
1094	 0.848542753267122 
1095	 0.846573339888579 
1096	 0.844829711946006 
1097	 0.843387653210542 
1098	 0.841591696834469 
1099	 0.839717950698649 
1100	 0.837830669767008 
1101	 0.83547347990303 
1102	 0.833112215194358 
1103	 0.830745759362589 
1104	 0.828179283738419 
1105	 0.826124526424621 
1106	 0.824031447607875 
1107	 0.821588256994228 
1108	 0.818935889125689 
1109	 0.815675425445189 
1110	 0.81203229630154 
1111	 0.808107639471077 
1112	 0.803451701059758 
1113	 0.799028743503008 
1114	 0.79437149361761 
1115	 0.789238280059554 
1116	 0.783602777613667 
1117	 0.77824777637527 
1118	 0.772778657803617 
1119	 0.766587796830108 
1120	 0.760785395813575 
1121	 0.755472746472015 
1122	 0.750115823907924 
1123	 0.745373951108722 
1124	 0.741695153431017 
1125	 0.7384271028389 
1126	 0.735430982715512 
1127	 0.733188758740683 
1128	 0.730803716295892 
1129	 0.729085647188115 
1130	 0.726962852353703 
1131	 0.724865471973467 
1132	 0.722471236276088 
1133	 0.720046478740319 
1134	 0.717303849470504 
1135	 0.714402493609401 
1136	 0.711626831712627 
1137	 0.708807788327966 
1138	 0.705011995921865 
1139	 0.700511641844509 
1140	 0.695964676473169 
1141	 0.690357181191095 
1142	 0.685211923134164 
1143	 0.680146943103367 
1144	 0.674932338745173 
1145	 0.669723705269873 
1146	 0.664646136695837 
1147	 0.659695130861388 
1148	 0.654297503232085 
1149	 0.650390991719407 
1150	 0.647433045027981 
1151	 0.644733693788405 
1152	 0.642832837632966 
1153	 0.641422151040769 
1154	 0.639975780089372 
1155	 0.638910709486294 
1156	 0.638291678172929 
1157	 0.637814472743907 
1158	 0.63776188365644 
1159	 0.637438359766488 
1160	 0.637220154792763 
1161	 0.637225125163129 
1162	 0.637009595337186 
1163	 0.636717914119996 
1164	 0.636360925812498 
1165	 0.635868816804073 
1166	 0.635335432839915 
1167	 0.634742077314419 
1168	 0.634136550513159 
1169	 0.633506126869228 
1170	 0.632802162924806 
1171	 0.632062431651105 
1172	 0.631275682956774 
1173	 0.630559429269099 
1174	 0.629956384394213 
1175	 0.629301091413868 
1176	 0.628621912418017 
1177	 0.62769955892992 
1178	 0.626529865600647 
1179	 0.625421238660248 
1180	 0.624078189029114 
1181	 0.622989659392704 
1182	 0.621960767011347 
1183	 0.621048795678875 
1184	 0.620217282588308 
1185	 0.619548550209628 
1186	 0.619215973928365 
1187	 0.618609982702634 
1188	 0.61804350954634 
1189	 0.617378268384492 
1190	 0.616339543183985 
1191	 0.615464614768529 
1192	 0.615010939107616 
1193	 0.614609901058918 
1194	 0.61418888914135 
1195	 0.614014625512933 
1196	 0.613635281307815 
1197	 0.61305359006153 
1198	 0.612672804875369 
1199	 0.612403044160203 
1200	 0.61210184064147 
1201	 0.611721013478167 
1202	 0.611553838123611 
1203	 0.61152167496049 
1204	 0.611520000207728 
1205	 0.611679362508844 
1206	 0.611787958864997 
1207	 0.611885947773941 
1208	 0.612003713951648 
1209	 0.611936612854761 
1210	 0.612221864831562 
1211	 0.612961919259046 
1212	 0.613585329833714 
1213	 0.614151258509844 
1214	 0.614906574377322 
1215	 0.615647088414514 
1216	 0.616088041960858 
1217	 0.616943284558239 
1218	 0.618274184859745 
1219	 0.619255965141392 
1220	 0.620132117404507 
1221	 0.621146646244886 
1222	 0.622135158838501 
1223	 0.623159259427002 
1224	 0.624515379337522 
1225	 0.625445032937105 
1226	 0.626089172721773 
1227	 0.626806087476362 
1228	 0.627423210085302 
1229	 0.627774251883414 
1230	 0.628550726451076 
1231	 0.629396939778769 
1232	 0.630238512839653 
1233	 0.631279439874224 
1234	 0.632027449779587 
1235	 0.632638282059387 
1236	 0.633289739084674 
1237	 0.633817261392037 
1238	 0.634394686752163 
1239	 0.63515968582295 
1240	 0.635606302221447 
1241	 0.635723633601434 
1242	 0.636117343050023 
1243	 0.636512109257074 
1244	 0.636873915668626 
1245	 0.637457392566846 
1246	 0.637862627329059 
1247	 0.63798442355115 
1248	 0.638284532907729 
1249	 0.638786210306667 
1250	 0.639066914400974 
1251	 0.639339315236762 
1252	 0.639446210158844 
1253	 0.639623923567173 
1254	 0.639670290512848 
1255	 0.639742471418862 
1256	 0.639967271275364 
1257	 0.639898920213675 
1258	 0.639623564455909 
1259	 0.639335045870735 
1260	 0.638825771697279 
1261	 0.638510164664636 
1262	 0.638216417728659 
1263	 0.637909875417366 
1264	 0.637666145380928 
1265	 0.637457447111768 
1266	 0.637247035546907 
1267	 0.637035347285238 
1268	 0.636909230950962 
1269	 0.636758154233101 
1270	 0.636617561113436 
1271	 0.636400606265974 
1272	 0.636184945983977 
1273	 0.63599503327882 
1274	 0.635510212038015 
1275	 0.634742457624184 
1276	 0.634305092082971 
1277	 0.633805376133323 
1278	 0.633419720088474 
1279	 0.633415858082186 
1280	 0.632916826785869 
1281	 0.632205190889402 
1282	 0.631450003204329 
1283	 0.63046562464728 
1284	 0.629539465932936 
1285	 0.628503352805861 
1286	 0.627603972329331 
1287	 0.626894999047081 
1288	 0.625888305854979 
1289	 0.624787223541651 
1290	 0.623687488406137 
1291	 0.622417475554896 
1292	 0.621091622421618 
1293	 0.61988098635806 
1294	 0.618458882509521 
1295	 0.617040601856295 
1296	 0.615137580212853 
1297	 0.61307848136229 
1298	 0.610657555158295 
1299	 0.608597414023648 
1300	 0.606382882526758 
1301	 0.604240522874335 
1302	 0.602468275505836 
1303	 0.600226084368818 
1304	 0.597631402559818 
1305	 0.59510686911406 
1306	 0.592488830268777 
1307	 0.58983310710774 
1308	 0.587130923660816 
1309	 0.584307065717823 
1310	 0.581440143131751 
1311	 0.578406736436717 
1312	 0.575148351311301 
1313	 0.571933862215985 
1314	 0.56872137558103 
1315	 0.56534053604668 
1316	 0.561813897052988 
1317	 0.558357620068749 
1318	 0.554759654349256 
1319	 0.551201812759977 
1320	 0.547825370094609 
1321	 0.544218154554042 
1322	 0.54055395310726 
1323	 0.536799713843586 
1324	 0.532805008217784 
1325	 0.528584742395705 
1326	 0.524193057317444 
1327	 0.51932390461097 
1328	 0.514750714168771 
1329	 0.510147826078431 
1330	 0.50549063625974 
1331	 0.500864258388081 
1332	 0.496328742519595 
1333	 0.491716347989368 
1334	 0.487377750108288 
1335	 0.483220494404767 
1336	 0.479365819452049 
1337	 0.475829292178125 
1338	 0.472156173562222 
1339	 0.46865864314171 
1340	 0.464935310564428 
1341	 0.460219165739495 
1342	 0.456195227828439 
1343	 0.452211637470182 
1344	 0.448045652564365 
1345	 0.443929471812925 
1346	 0.439380897895174 
1347	 0.434631657046446 
1348	 0.42914312361194 
1349	 0.423531412348095 
1350	 0.418015510254964 
1351	 0.411433442540462 
1352	 0.403706831018834 
1353	 0.395544290682915 
1354	 0.389075303786594 
1355	 0.378709940111773 
1356	 0.368745042519634 
1357	 0.358039725538895 
1358	 0.356511763548541 
1359	 0.345042588629437 
1360	 0.35031071234654 
1361	 0.342429700811569 
1362	 0.302357132801337 
1363	 0.286149059134095 
1364	 0.330641322873687 
1365	 0.326734063667928 
1366	 0.315564612403498 
1367	 0.307358613713296 
1368	 0.273685447801145 
1369	 0.261375503339973 
1370	 0.273452406686688 
1371	 0.270457834769909 
1372	 0.256339965513665 
1373	 0.25220635887878 
1374	 0.249725137145346 
1375	 0.247911045336476 
1376	 0.246787218895045 
1377	 0.248957945823392 
1378	 0.242523828098726 
1379	 0.228776389051852 
1380	 0.218584461124751 
1381	 0.203397890500304 
1382	 0.196629344820164 
1383	 0.196556721845375 
1384	 0.19042492700152 
1385	 0.184965587159424 
1386	 0.182347579199325 
1387	 0.175382375956043 
1388	 0.176370657828406 
1389	 0.188537749640124 
1390	 0.18668063822881 
1391	 0.181136859007158 
1392	 0.176569158251027 
1393	 0.165144784413872 
1394	 0.158672699731251 
1395	 0.156316886208651 
1396	 0.151851848527989 
1397	 0.146184086816626 
1398	 0.142429505371067 
1399	 0.139057145817826 
1400	 0.135940075823041 
1401	 0.134401620066948 
1402	 0.131848127600989 
1403	 0.129498221366975 
1404	 0.126602677305634 
1405	 0.123101167213555 
1406	 0.119796022441179 
1407	 0.117120434895758 
1408	 0.11585347084794 
1409	 0.116070875768522 
1410	 0.114128308665484 
1411	 0.113575867294846 
1412	 0.113565849708875 
1413	 0.112153868194715 
1414	 0.110353622696995 
1415	 0.109163945497743 
1416	 0.107163235365228 
1417	 0.10675663499914 
1418	 0.107772843677592 
1419	 0.107314553850736 
1420	 0.10657553837298 
1421	 0.105822219757853 
1422	 0.104838400866032 
1423	 0.103849475798954 
1424	 0.102462187037175 
1425	 0.10185895171926 
1426	 0.100953853263627 
1427	 0.101068635162061 
1428	 0.103482557695993 
1429	 0.103148968818833 
1430	 0.101366330074788 
1431	 0.10038149560213 
1432	 9.75860567499948E-02 
1433	 9.67148082825417E-02 
1434	 9.79361453432861E-02 
1435	 9.81934220978289E-02 
1436	 9.88008178092692E-02 
1437	 0.098826649479514 
1438	 9.82883993894108E-02 
1439	 9.77972089334469E-02 
1440	 9.66178901890564E-02 
1441	 9.63158890057358E-02 
1442	 9.62713457844423E-02 
1443	 9.67838312072901E-02 
1444	 9.72056111563277E-02 
1445	 9.72464375395325E-02 
1446	 9.73495371381698E-02 
1447	 9.74060053120035E-02 
1448	 9.75523282797286E-02 
1449	 9.78752367467858E-02 
1450	 9.83153128040352E-02 
1451	 9.87267834262895E-02 
1452	 9.91217681238343E-02 
1453	 9.97739202488007E-02 
1454	 0.100196964549405 
1455	 0.100425965261977 
1456	 0.100627380116254 
1457	 0.100971000438137 
1458	 0.101029396256735 
1459	 0.100730361276336 
1460	 0.100737647154841 
1461	 0.100764207152959 
1462	 0.100873623874766 
1463	 0.10122481473755 
1464	 0.101388592631737 
1465	 0.101467108339239 
1466	 0.10156812900481 
1467	 0.101476392078757 
1468	 0.10172266669873 
1469	 0.101942062311467 
1470	 0.102569191402773 
1471	 0.103856377704778 
1472	 0.10465612168674 
1473	 0.105324845135526 
1474	 0.106137258817524 
1475	 0.106566641343996 
1476	 0.107386932653029 
1477	 0.108448226130859 
1478	 0.109714036890894 
1479	 0.111434441872661 
1480	 0.112651607104721 
1481	 0.113655422785168 
1482	 0.114864094060232 
1483	 0.115683407381289 
1484	 0.116881798330779 
1485	 0.118680328324893 
1486	 0.120105011721 
1487	 0.121360727409611 
1488	 0.122582256718744 
1489	 0.124120340780669 
1490	 0.125320928011395 
1491	 0.126704903824357 
1492	 0.128525178369237 
1493	 0.129793831543673 
1494	 0.130780262656823 
1495	 0.131893739753636 
1496	 0.132846821618584 
1497	 0.134037044129593 
1498	 0.135476968436328 
1499	 0.136565653107125 
1500	 0.137495672781073 
1501	 0.138700647395766 
1502	 0.139861189250766 
1503	 0.141112910311539 
1504	 0.142674435022429 
1505	 0.143989855763003 
1506	 0.144999280716264 
1507	 0.146381393618996 
1508	 0.148073578173545 
1509	 0.149363871827338 
1510	 0.150674961901326 
1511	 0.151810837689079 
1512	 0.152512709160042 
1513	 0.153610233317368 
1514	 0.15487255768108 
1515	 0.156099724244122 
1516	 0.157475150007046 
1517	 0.158744349387747 
1518	 0.159979032989978 
1519	 0.16122747588401 
1520	 0.162375161979401 
1521	 0.163713129890782 
1522	 0.165310327011297 
1523	 0.166551675153565 
1524	 0.167733725073325 
1525	 0.168886362455933 
1526	 0.169632109096394 
1527	 0.170780736879958 
1528	 0.172195024781606 
1529	 0.173564808686478 
1530	 0.175109726302806 
1531	 0.176541034047341 
1532	 0.178168172628459 
1533	 0.179363783197941 
1534	 0.180064910708387 
1535	 0.181171946822831 
1536	 0.182254235478436 
1537	 0.183306817876045 
1538	 0.184681894074065 
1539	 0.185893170069625 
1540	 0.186666683670359 
1541	 0.187818969916552 
1542	 0.18945005792881 
1543	 0.190693966266098 
1544	 0.191866802340553 
1545	 0.193035031478709 
1546	 0.193848309372752 
1547	 0.194875430621871 
1548	 0.196252665097378 
1549	 0.197348127467854 
1550	 0.198099508815781 
1551	 0.199230068010481 
1552	 0.200674753904175 
1553	 0.20175294601036 
1554	 0.202820307982661 
1555	 0.203961436712819 
1556	 0.204682301548907 
1557	 0.205637308295993 
1558	 0.207147129077601 
1559	 0.208312047031905 
1560	 0.209111749190719 
1561	 0.21015723884413 
1562	 0.211305759217224 
1563	 0.21230581852877 
1564	 0.213159162844978 
1565	 0.214501498517242 
1566	 0.215577121987568 
1567	 0.216142956554241 
1568	 0.217100734836528 
1569	 0.218231644522402 
1570	 0.219089077664449 
1571	 0.219867344813031 
1572	 0.220714042369313 
1573	 0.221395469432265 
1574	 0.222321775271163 
1575	 0.223469612024521 
1576	 0.224345458500617 
1577	 0.225119793091458 
1578	 0.226043737687561 
1579	 0.226863660869143 
1580	 0.227882695375107 
1581	 0.229159545727672 
1582	 0.230145331075056 
1583	 0.231066470345885 
1584	 0.231959432131503 
1585	 0.232738713002258 
1586	 0.233557568260734 
1587	 0.234474539381843 
1588	 0.235084274717457 
1589	 0.235374019755418 
1590	 0.236215917071475 
1591	 0.237196113308919 
1592	 0.237963894828648 
1593	 0.239081989309956 
1594	 0.239766249407452 
1595	 0.239881523469522 
1596	 0.240547817333695 
1597	 0.241483969323399 
1598	 0.242179741320632 
1599	 0.242873442922905 
1600	 0.243665418811034 
1601	 0.244372410017736 
1602	 0.245196658294053 
1603	 0.246264799252105 
1604	 0.24707361748683 
1605	 0.247769520184655 
1606	 0.24843698071714 
1607	 0.249019444044942 
1608	 0.249608315735875 
1609	 0.250067129770022 
1610	 0.250770637659626 
1611	 0.251626931332217 
1612	 0.252288779138958 
1613	 0.253050657371736 
1614	 0.253609323109045 
1615	 0.253831856170268 
1616	 0.254421335777886 
1617	 0.255146039935456 
1618	 0.25581172492509 
1619	 0.256646733424069 
1620	 0.257310829450844 
1621	 0.257918413166725 
1622	 0.258346796542232 
1623	 0.258610684494515 
1624	 0.259014938274817 
1625	 0.259257414672824 
1626	 0.25978324069331 
1627	 0.260661259551505 
1628	 0.261099168287872 
1629	 0.261328843275693 
1630	 0.261881840110466 
1631	 0.26244742466215 
1632	 0.262849159493876 
1633	 0.263433460924506 
1634	 0.26389904122322 
1635	 0.264109235606133 
1636	 0.264322113204822 
1637	 0.264614391565381 
1638	 0.264918212327366 
1639	 0.264998884860745 
1640	 0.265268694871485 
1641	 0.265790666022719 
1642	 0.266173451205265 
1643	 0.266406781475672 
1644	 0.266799683801838 
1645	 0.26747252444713 
1646	 0.267677669943781 
1647	 0.267707264385292 
1648	 0.267621399474013 
1649	 0.267124065773637 
1650	 0.26706364832367 
1651	 0.26725721850506 
1652	 0.267125676983767 
1653	 0.266945892385896 
1654	 0.266871138870583 
1655	 0.266620625097504 
1656	 0.266492100366346 
1657	 0.266660747194127 
1658	 0.266426187463841 
1659	 0.265976384316024 
1660	 0.265786626132623 
1661	 0.26562099806068 
1662	 0.265260920011981 
1663	 0.265088529885713 
1664	 0.265090557669509 
1665	 0.265115338626819 
1666	 0.265336628302873 
1667	 0.265533651639379 
1668	 0.26522025639147 
1669	 0.265035449687829 
1670	 0.265374669649482 
1671	 0.265337282996208 
1672	 0.26529380817585 
1673	 0.265505731172709 
1674	 0.26552306299377 
1675	 0.265777243104739 
1676	 0.26613772463841 
1677	 0.266330542092308 
1678	 0.266452246437476 
1679	 0.266350115432495 
1680	 0.266070720707478 
1681	 0.265799202558565 
1682	 0.265643793152926 
1683	 0.265747364911144 
1684	 0.265969925369594 
1685	 0.26611953570175 
1686	 0.265851665631945 
1687	 0.265079188453201 
1688	 0.26456909288895 
1689	 0.26440053494638 
1690	 0.263779209769525 
1691	 0.263462248108601 
1692	 0.263359327373442 
1693	 0.26291597315245 
1694	 0.262550260487784 
1695	 0.262202938023522 
1696	 0.261423181307448 
1697	 0.260893100997201 
1698	 0.260661784335396 
1699	 0.260343159450969 
1700	 0.260113097907209 
1701	 0.259637113733201 
1702	 0.259116350072546 
1703	 0.258480131362927 
1704	 0.257507736093768 
1705	 0.256766958194095 
1706	 0.256095273659414 
1707	 0.255332331534546 
1708	 0.25446420869012 
1709	 0.253839738657268 
1710	 0.253425036839795 
1711	 0.252944653651871 
1712	 0.252738407357848 
1713	 0.252075518561935 
1714	 0.251040570239315 
1715	 0.250103658124191 
1716	 0.24883229974003 
1717	 0.248130355441962 
1718	 0.24785021383826 
1719	 0.24714200510257 
1720	 0.246531928402954 
1721	 0.245913022680478 
1722	 0.244889447675096 
1723	 0.244314607155747 
1724	 0.244285563519736 
1725	 0.243515459060247 
1726	 0.242419891978538 
1727	 0.241624571019864 
1728	 0.240620407691496 
1729	 0.23987469970372 
1730	 0.239284756599297 
1731	 0.238975236610419 
1732	 0.238589848004781 
1733	 0.237849395276456 
1734	 0.237811760906748 
1735	 0.23764151937818 
1736	 0.236896315665153 
1737	 0.236134172113705 
1738	 0.235199621496134 
1739	 0.234241629432894 
1740	 0.233645457593459 
1741	 0.232939404720616 
1742	 0.232522247758 
1743	 0.232403747312734 
1744	 0.231534974644891 
1745	 0.230928117421427 
1746	 0.230775787062482 
1747	 0.229941148921441 
1748	 0.2295314590407 
1749	 0.229479393139961 
1750	 0.228454347830497 
1751	 0.227448424215062 
1752	 0.226413858483156 
1753	 0.22514998467865 
1754	 0.22484748822372 
1755	 0.224232231126684 
1756	 0.223192853570332 
1757	 0.222595282120744 
1758	 0.22138408955197 
1759	 0.219942480024986 
1760	 0.218850320342026 
1761	 0.217101250088482 
1762	 0.216197171078134 
1763	 0.2162540027771 
1764	 0.215940823354368 
1765	 0.216017180816685 
1766	 0.215541416197821 
1767	 0.214480431612984 
1768	 0.213837140954593 
1769	 0.213107996340425 
1770	 0.212345533652361 
1771	 0.212056478384379 
1772	 0.211402037215859 
1773	 0.210183246502475 
1774	 0.209767103842906 
1775	 0.209147423633221 
1776	 0.208586126655398 
1777	 0.207430564014774 
1778	 0.206810927038265 
1779	 0.206520609793531 
1780	 0.205562735766973 
1781	 0.205813884998748 
1782	 0.206164696959598 
1783	 0.205562991512933 
1784	 0.20492916766336 
1785	 0.204552161267734 
1786	 0.203325587076396 
1787	 0.202016209637283 
1788	 0.202338193235685 
1789	 0.202119962591048 
1790	 0.201456790467034 
1791	 0.201498943381866 
1792	 0.200682032189871 
1793	 0.198875812546359 
1794	 0.19778576991089 
1795	 0.196445593907744 
1796	 0.195238027667291 
1797	 0.196134717781025 
1798	 0.195693992266423 
1799	 0.195120888123761 
1800	 0.195956423543601 
1801	 0.193738892418967 
1802	 0.197269571216541 
1803	 0.198168933353806 
1804	 0.199225100067677 
1805	 0.199142942190089 
1806	 0.195502297061759 
1807	 0.193598688785188 
1808	 0.192203607676645 
1809	 0.190186104275662 
1810	 0.189932192398351 
1811	 0.191912402927671 
1812	 0.1916536212666 
1813	 0.192464249936693 
1814	 0.191272169483725 
1815	 0.185093252300129 
1816	 0.182541540413224 
1817	 0.182824976607126 
1818	 0.180947987055645 
1819	 0.178801357783848 
1820	 0.178544889655254 
1821	 0.175020318236282 
1822	 0.16649767251223 
1823	 0.160866177747354 
1824	 0.149101355168234 
1825	 0.148443991716205 
1826	 0.160878829172345 
1827	 0.169952615612033 
1828	 0.184384280349154 
1829	 0.22579018885911 
1830	 0.240709013559105 
1831	 0.227680071963847 
1832	 0.232937031211181 
1833	 0.214764435726126 
1834	 0.214362200608592 
1835	 0.251083897079017 
1836	 0.271628418580888 
1837	 0.285554580609573 
1838	 0.29528869540685 
1839	 0.299241271321514 
1840	 0.282707546728128 
1841	 0.294276718811248 
1842	 0.321375231363061 
1843	 0.320568624858486 
1844	 0.327322824173073 
1845	 0.318143747345061 
1846	 0.261244962052428 
1847	 0.240200553451211 
1848	 0.230371903833353 
1849	 0.228687306590584 
1850	 0.238091485030863 
1851	 0.298898375693523 
1852	 0.289971132190257 
1853	 0.26747467288802 
1854	 0.225405842050963 
1855	 0.112333478539791 
1856	 7.57073226818227E-02 
1857	 9.00877237989596E-02 
1858	 5.05956047784318E-02 
1859	 6.08489811552306E-02 
1860	 0.104755998698204 
1861	 0.125569542891029 
1862	 0.170045189409274 
1863	 0.184075997635276 
1864	 0.157027862513719 
1865	 0.168811812910008 
1866	 0.221462884793378 
1867	 0.214131379939376 
1868	 0.186868079736369 
1869	 0.26783321986567 
1870	 0.289664379103782 
1871	 0.263957802684356 
1872	 0.247270458646687 
1873	 0.277785119495358 
1874	 0.235529740284251 
1875	 0.132476164034142 
1876	 9.77953137692636E-02 
1877	 7.84647961638786E-02 
1878	 5.25779367431229E-02 
1879	 5.35495048650534E-02 
1880	 5.90177903307006E-02 
1881	 5.87090423609753E-02 
1882	 4.94774191485544E-02 
1883	 5.56607560103469E-02 
1884	 0.077522814909657 
1885	 8.20490291898775E-02 
1886	 9.44929593558838E-02 
1887	 8.00833168564618E-02 
1888	 0.068277186599447 
1889	 0.059474360376467 
1890	 6.34706402562145E-02 
1891	 9.45023151802349E-02 
1892	 9.67671133614768E-02 
1893	 0.084164579096598 
1894	 8.03700220908434E-02 
1895	 4.59180304787246E-02 
1896	 4.29854738187043E-02 
1897	 0.071282689822573 
1898	 0.135547755941911 
1899	 0.158296552864414 
1900	 0.160933154949279 
1901	 0.181560880914951 
1902	 0.161904437279646 
1903	 0.154268582115643 
1904	 0.197887331594108 
1905	 0.182622490176736 
1906	 0.104441835727605 
1907	 2.41930171369501E-02 
1908	 6.62642960165739E-03 
1909	 3.46316902916589E-02 
1910	 4.29169231094214E-02 
1911	 6.63223900393777E-02 
1912	 7.41905680089111E-02 
1913	 5.46799533596897E-02 
1914	 5.81247797352175E-02 
1915	 8.02702630756115E-02 
1916	 8.32011605695452E-02 
1917	 7.48447236620812E-02 
1918	 0.090511332557035 
1919	 9.15910584052044E-02 
1920	 7.69153051197427E-02 
1921	 6.40515756458067E-02 
1922	 6.50435565713798E-02 
1923	 6.17100945027736E-02 
1924	 5.27357380568481E-02 
1925	 5.62213893922183E-02 
1926	 0.066822892015488 
1927	 6.87701007630236E-02 
1928	 7.45877298977919E-02 
1929	 8.38609560219016E-02 
1930	 6.47404143752025E-02 
1931	 5.35746152968403E-02 
1932	 0.049682865460743 
1933	 4.77560159387107E-02 
1934	 0.046924693565626 
1935	 5.41620746601008E-02 
1936	 5.41726607390566E-02 
1937	 5.13527039511318E-02 
1938	 4.73793358088235E-02 
1939	 4.08634913606556E-02 
1940	 4.01817437653635E-02 
1941	 3.83251045048444E-02 
1942	 3.51482751227295E-02 
1943	 3.67655563485307E-02 
1944	 3.77032862849583E-02 
1945	 3.67137177035302E-02 
1946	 3.83896264946611E-02 
1947	 3.79987097399102E-02 
1948	 3.47695974435233E-02 
1949	 3.51877465370496E-02 
1950	 3.79260324853839E-02 
1951	 3.72075373964966E-02 
1952	 3.85922826482943E-02 
1953	 4.21775675067492E-02 
1954	 4.43012900075493E-02 
1955	 4.47567695927495E-02 
1956	 4.52904461577154E-02 
1957	 4.73321450583504E-02 
1958	 4.72222107750027E-02 
1959	 4.53118339809729E-02 
1960	 4.52222667084702E-02 
1961	 4.51189521793762E-02 
1962	 4.40200442800089E-02 
1963	 4.71376414863451E-02 
1964	 4.93775425231954E-02 
1965	 4.96193102261218E-02 
1966	 4.93432962014113E-02 
1967	 4.70902008411679E-02 
1968	 0.045044153200831 
1969	 4.44921704400049E-02 
1970	 4.59272669322742E-02 
1971	 4.58222655493499E-02 
1972	 4.56215862566922E-02 
1973	 4.49535782579491E-02 
1974	 0.044309227924122 
1975	 4.40635570229028E-02 
1976	 4.51664436366137E-02 
1977	 4.51376749960498E-02 
1978	 4.45079177531138E-02 
1979	 4.40245553757613E-02 
1980	 4.28261481948919E-02 
1981	 4.32096434301918E-02 
1982	 4.44043088546246E-02 
1983	 4.71888820548928E-02 
1984	 4.88877807576561E-02 
1985	 5.03930053202509E-02 
1986	 5.17320813477104E-02 
1987	 5.18223880700017E-02 
1988	 5.09030820716529E-02 
1989	 4.85811551873936E-02 
1990	 4.70207015454443E-02 
1991	 4.64882787937179E-02 
1992	 4.62568265009366E-02 
1993	 4.85952040652548E-02 
1994	 5.03208501144725E-02 
1995	 5.17010232898442E-02 
1996	 5.23445079301003E-02 
1997	 5.44127006642295E-02 
1998	 5.52038674738231E-02 
1999	 0.056871684196684 
2000	 5.79094796449278E-02 
2001	 5.61947476692974E-02 
2002	 5.46739687680438E-02 
2003	 5.35866922030179E-02 
2004	 5.31255332531086E-02 
2005	 5.29556478937243E-02 
2006	 5.35150584998209E-02 
2007	 5.51076593592937E-02 
2008	 0.05593672222234 
2009	 5.67277812901639E-02 
2010	 5.86560781210387E-02 
2011	 5.84614761340993E-02 
2012	 0.058099591554626 
2013	 5.89485367710691E-02 
2014	 5.93809275272416E-02 
2015	 5.99227982072791E-02 
2016	 6.03154462978768E-02 
2017	 6.07325701723685E-02 
2018	 6.03537049933115E-02 
2019	 6.02590872404115E-02 
2020	 6.02946918709892E-02 
2021	 6.13689941776018E-02 
2022	 6.11981327680311E-02 
2023	 6.09442328299212E-02 
2024	 6.18394278291078E-02 
2025	 6.19419083888813E-02 
2026	 6.20294567672438E-02 
2027	 6.33189157809285E-02 
2028	 6.37291600765606E-02 
2029	 6.34263305340292E-02 
2030	 6.38604832535268E-02 
2031	 6.41055905528254E-02 
2032	 6.38480242796309E-02 
2033	 6.32991106779942E-02 
2034	 6.29631397700387E-02 
2035	 6.23538765923309E-02 
2036	 6.19446568749165E-02 
2037	 6.24488761688086E-02 
2038	 6.33059343804914E-02 
2039	 6.45002904513188E-02 
2040	 6.58177866224501E-02 
2041	 6.66041921375425E-02 
2042	 6.76981419568945E-02 
2043	 6.87300646293002E-02 
2044	 6.84128120283044E-02 
2045	 6.80960079632779E-02 
2046	 6.72627474077699E-02 
2047	 6.66657588604845E-02 
2048	 6.66416875314451E-02 
2049	 0.06728848204581 
2050	 6.87010130535504E-02 
2051	 7.10430834890685E-02 
2052	 7.12908973034174E-02 
2053	 7.07970466970591E-02 
2054	 7.13702717159094E-02 
2055	 7.05780882684803E-02 
2056	 7.09646862794519E-02 
2057	 7.23606707561616E-02 
2058	 7.23598648204292E-02 
2059	 7.26943706789334E-02 
2060	 7.29748754840452E-02 
2061	 7.30180397295445E-02 
2062	 7.35540772361174E-02 
2063	 7.45094612325263E-02 
2064	 7.42672831940512E-02 
2065	 7.42470570798911E-02 
2066	 7.44562813736752E-02 
2067	 7.53179116841834E-02 
2068	 7.64758493702176E-02 
2069	 7.69426772089807E-02 
2070	 0.077230310442662 
2071	 7.71754741939237E-02 
2072	 7.73416390417321E-02 
2073	 7.77368029140651E-02 
2074	 7.80044445867545E-02 
2075	 7.77179029914988E-02 
2076	 7.87209608844298E-02 
2077	 8.01913698943876E-02 
2078	 8.16321613385056E-02 
2079	 8.35301817888714E-02 
2080	 8.44759801940077E-02 
2081	 8.47987362664851E-02 
2082	 8.51925723576141E-02 
2083	 8.56007364704727E-02 
2084	 8.60886155079502E-02 
2085	 0.085330142080542 
2086	 0.084562686952122 
2087	 8.46470618044173E-02 
2088	 8.54262541605757E-02 
2089	 8.53852218883252E-02 
2090	 0.085412551597645 
2091	 8.63540076720753E-02 
2092	 8.74596662760313E-02 
2093	 8.75850593439713E-02 
2094	 8.85966408917215E-02 
2095	 8.99148999109976E-02 
2096	 0.089193713101765 
2097	 9.04400358830186E-02 
2098	 9.13016421876949E-02 
2099	 9.00664506479597E-02 
2100	 0.089803927344183 
2101	 8.92845910266997E-02 
2102	 8.91046936837663E-02 
2103	 8.89400260840397E-02 
2104	 8.98898998922483E-02 
2105	 9.09866290752881E-02 
2106	 9.21089684772667E-02 
2107	 9.30417825252905E-02 
2108	 9.39999406551984E-02 
2109	 9.57434002594096E-02 
2110	 9.67423105649313E-02 
2111	 9.62861291099996E-02 
2112	 9.61635536064244E-02 
2113	 9.52742143592034E-02 
2114	 9.35616913486333E-02 
2115	 9.34560975985834E-02 
2116	 9.46788346972276E-02 
2117	 9.53509346897463E-02 
2118	 9.64968485491194E-02 
2119	 9.69261885166278E-02 
2120	 9.69332057394285E-02 
2121	 9.69281748795589E-02 
2122	 9.66386642328927E-02 
2123	 9.71969502541978E-02 
2124	 9.86231633115555E-02 
2125	 9.91198593694867E-02 
2126	 0.100306768715798 
2127	 0.10062843221198 
2128	 9.97459774604735E-02 
2129	 9.98091557632574E-02 
2130	 9.90025261427868E-02 
2131	 9.89405229460252E-02 
2132	 0.100040002066088 
2133	 0.100753362176681 
2134	 0.100993962702994 
2135	 0.101102680666992 
2136	 0.100809275073468 
2137	 0.10049717440774 
2138	 9.95908665577207E-02 
2139	 0.100366712746805 
2140	 0.102310854931883 
2141	 0.102108911524813 
2142	 0.102804343404879 
2143	 0.104454075743515 
2144	 0.104223473320824 
2145	 0.104381025533068 
2146	 0.10591671585819 
2147	 0.106494237376827 
2148	 0.105823048936652 
2149	 0.104942884567108 
2150	 0.104634004882537 
2151	 0.104935819581588 
2152	 0.105023655230166 
2153	 0.105719327330484 
2154	 0.107946922950941 
2155	 0.109417993149835 
2156	 0.110003044556123 
2157	 0.109893174064279 
2158	 0.109166913006056 
2159	 0.107457227717855 
2160	 0.105518169626498 
2161	 0.104530701743988 
2162	 0.104850419616627 
2163	 0.106012978165361 
2164	 0.107103887899966 
2165	 0.108080235773992 
2166	 0.108802190014756 
2167	 0.109923259928617 
2168	 0.110180682025057 
2169	 0.109002908456907 
2170	 0.109166559716455 
2171	 0.109253115568247 
2172	 0.11044121475133 
2173	 0.1127613003147 
2174	 0.114797202726356 
2175	 0.114839619790478 
2176	 0.113373923406179 
2177	 0.112127481547472 
2178	 0.111847901579958 
2179	 0.111833120994928 
2180	 0.112697762873797 
2181	 0.112623278451464 
2182	 0.111951661751021 
2183	 0.11386654212292 
2184	 0.114454699440779 
2185	 0.114459957235588 
2186	 0.116525680902949 
2187	 0.117014412084005 
2188	 0.115965089105216 
2189	 0.116150163951346 
2190	 0.116740928344291 
2191	 0.116223073323675 
2192	 0.116623461661257 
2193	 0.117016405562173 
2194	 0.117080692047421 
2195	 0.116681087792678 
2196	 0.116200718577724 
2197	 0.11581318147524 
2198	 0.116813723415545 
2199	 0.118178608879594 
2200	 0.118414421682048 
2201	 0.120256883599269 
2202	 0.121457985655735 
2203	 0.121179300306006 
2204	 0.121407367948145 
2205	 0.12016342684618 
2206	 0.118742687564216 
2207	 0.119323683982613 
2208	 0.119785757680329 
2209	 0.121161078635898 
2210	 0.122036521126792 
2211	 0.123451216852308 
2212	 0.123463900868503 
2213	 0.121604705254873 
2214	 0.122181059551256 
2215	 0.122103756108763 
2216	 0.119776702738122 
2217	 0.120566187318413 
2218	 0.120498016480993 
2219	 0.119183214485928 
2220	 0.120720161194425 
2221	 0.122843269517508 
2222	 0.124107631856569 
2223	 0.125941120934184 
2224	 0.12622290448791 
2225	 0.124444890773703 
2226	 0.122768410111312 
2227	 0.120425937239246 
2228	 0.119873755256026 
2229	 0.120825254235064 
2230	 0.121108955645917 
2231	 0.12165002272127 
2232	 0.123591560405334 
2233	 0.12344638662827 
2234	 0.121994405260297 
2235	 0.12127068980321 
2236	 0.119222110532636 
2237	 0.117013259684527 
2238	 0.116678054949444 
2239	 0.115914092399924 
2240	 0.115555030342935 
2241	 0.116689993603948 
2242	 0.116852150914644 
2243	 0.117649515464747 
2244	 0.118636036794383 
2245	 0.118308484277245 
2246	 0.117237184986109 
2247	 0.115295955617442 
2248	 0.116013019340689 
2249	 0.11753261953016 
2250	 0.117895854297129 
2251	 0.119220202772845 
2252	 0.117613864677518 
2253	 0.115080335173588 
2254	 0.115985217877831 
2255	 0.117540396620695 
2256	 0.117453978498186 
2257	 0.117591871217347 
2258	 0.116230444209703 
2259	 0.114199267105809 
2260	 0.113691362061886 
2261	 0.114228017692254 
2262	 0.115771492741679 
2263	 0.115311891683361 
2264	 0.113395579878423 
2265	 0.112345353436281 
2266	 0.110246307629333 
2267	 0.110801994888883 
2268	 0.110151171146905 
2269	 0.105884166513017 
2270	 0.10648947200967 
2271	 0.108683144819949 
2272	 0.108709046011945 
2273	 0.11115488919791 
2274	 0.113043513060304 
2275	 0.110614197149108 
2276	 0.10818317706305 
2277	 0.106502876446301 
2278	 0.105081491571936 
2279	 0.10421703921327 
2280	 0.103808179062033 
2281	 0.10620287477496 
2282	 0.107234053139313 
2283	 0.106046009849105 
2284	 0.108154632262954 
2285	 0.108071036004964 
2286	 0.10807873498506 
2287	 0.107707986648782 
2288	 0.110416038315644 
2289	 0.107565748751709 
2290	 0.105361350830304 
2291	 0.106499807274761 
2292	 0.104610781161763 
2293	 0.103660140384555 
2294	 0.102598711370058 
2295	 9.77276956154424E-02 
2296	 9.62239368360576E-02 
2297	 9.66963205595971E-02 
2298	 9.71841324407974E-02 
2299	 9.92810212380987E-02 
2300	 9.57843387210173E-02 
2301	 9.33920125656476E-02 
2302	 9.59056974455058E-02 
2303	 9.54954070285379E-02 
2304	 9.54276079235376E-02 
2305	 9.56799226346706E-02 
2306	 9.39952701876077E-02 
2307	 9.44295621716034E-02 
2308	 9.66636619803753E-02 
2309	 9.67645713635526E-02 
2310	 9.41713208619747E-02 
2311	 8.97795897278963E-02 
2312	 0.086773933248889 
2313	 8.80017959878591E-02 
2314	 9.24230847028842E-02 
2315	 9.50577609559717E-02 
2316	 9.21421065631957E-02 
2317	 8.87597679878289E-02 
2318	 8.77456870107316E-02 
2319	 8.70092756410854E-02 
2320	 8.88302022487657E-02 
2321	 8.96844583719063E-02 
2322	 8.87056976307503E-02 
2323	 8.75834194979667E-02 
2324	 8.64195170616053E-02 
2325	 8.65267542139383E-02 
2326	 8.32137177187917E-02 
2327	 8.23077539457459E-02 
2328	 8.24312246654471E-02 
2329	 7.91251429381388E-02 
2330	 7.97332235755818E-02 
2331	 8.23969891757795E-02 
2332	 8.18975195366313E-02 
2333	 8.23983709270641E-02 
2334	 8.30545361405773E-02 
2335	 8.40880750306831E-02 
2336	 8.55549336561968E-02 
2337	 8.77539027102535E-02 
2338	 8.82453611866154E-02 
2339	 0.087278488224931 
2340	 8.67166550560079E-02 
2341	 8.62447722847573E-02 
2342	 9.13986144363203E-02 
2343	 9.46895406420427E-02 
2344	 9.11042180721564E-02 
2345	 8.84727883090337E-02 
2346	 8.38977899546818E-02 
2347	 7.88311104860031E-02 
2348	 7.88641284048404E-02 
2349	 7.78194053815223E-02 
2350	 7.75677153493897E-02 
2351	 7.94220418939107E-02 
2352	 0.080598328325635 
2353	 8.01776580388316E-02 
2354	 7.94809485375191E-02 
2355	 8.08467437026735E-02 
2356	 8.12672111763165E-02 
2357	 8.21998600440544E-02 
2358	 8.06155432930941E-02 
2359	 7.67580601901789E-02 
2360	 7.41766907066424E-02 
2361	 0.073045085616991 
2362	 7.57363775021275E-02 
2363	 0.077697775752711 
2364	 0.078557292043653 
2365	 8.20103388616698E-02 
2366	 8.08003348668416E-02 
2367	 0.082544829796671 
2368	 9.25480642450592E-02 
2369	 0.090796686891141 
2370	 0.087126059337458 
2371	 9.11698822904699E-02 
2372	 8.91693136360601E-02 
2373	 8.09440075662071E-02 
2374	 7.34623436323464E-02 
2375	 0.058652276404566 
2376	 5.45856189076507E-02 
2377	 5.45758356356323E-02 
2378	 5.40490295121519E-02 
2379	 6.73114621657769E-02 
2380	 7.10440669101555E-02 
2381	 0.062039084718455 
2382	 6.21086275826993E-02 
2383	 0.066528058879172 
2384	 6.76362380793013E-02 
2385	 6.91551903724478E-02 
2386	 7.46148297689432E-02 
2387	 8.14098990315392E-02 
2388	 0.086613794629671 
2389	 9.90043665631245E-02 
2390	 0.100203638156438 
2391	 9.10320320395539E-02 
2392	 8.84610169035041E-02 
2393	 8.17851012134203E-02 
2394	 0.076467239938972 
2395	 7.72323304338513E-02 
2396	 7.22850763029049E-02 
2397	 6.04170169600335E-02 
2398	 5.69220251832218E-02 
2399	 5.61938862990123E-02 
2400	 5.45790588745796E-02 
2401	 5.56767969869672E-02 
2402	 6.03482877759748E-02 
2403	 0.060722395419568 
2404	 6.25427725444474E-02 
2405	 7.00457045768856E-02 
2406	 7.42779119150208E-02 
2407	 6.50061851706455E-02 
2408	 5.99649015967388E-02 
2409	 5.74794906177969E-02 
2410	 4.07960800575895E-02 
2411	 4.14824219140024E-02 
2412	 5.85782119431215E-02 
2413	 5.68525118477209E-02 
2414	 5.09324060752901E-02 
2415	 5.20073656650879E-02 
2416	 3.73834392964595E-02 
2417	 3.22853342898296E-02 
2418	 0.053193718297753 
2419	 6.47555469012601E-02 
2420	 6.39864791149563E-02 
2421	 7.51969101718609E-02 
2422	 8.52009016839876E-02 
2423	 8.74040923943685E-02 
2424	 9.71692632184266E-02 
2425	 9.06558541620429E-02 
2426	 7.23059624473233E-02 
2427	 6.33946286228933E-02 
2428	 0.058801469618643 
2429	 6.18326765228829E-02 
2430	 6.94772260594091E-02 
2431	 0.07614053988455 
2432	 7.82705770904416E-02 
2433	 0.062288199422503 
2434	 5.48535058833276E-02 
2435	 5.53304864126362E-02 
2436	 4.82728524271619E-02 
2437	 3.94230101298209E-02 
2438	 3.66856436868651E-02 
2439	 2.57228626835796E-02 
2440	 0.028107932149147 
2441	 4.58489013284033E-02 
2442	 5.20454032434179E-02 
2443	 6.43009661481348E-02 
2444	 0.065818502570298 
2445	 4.63309625692311E-02 
2446	 5.17562389773163E-02 
2447	 7.98530522600225E-02 
2448	 8.42019707891041E-02 
2449	 0.091249696815463 
2450	 8.56633941397548E-02 
2451	 3.20629090095671E-02 
2452	 2.55768878453855E-02 
2453	 5.09386769059563E-02 
2454	 6.72010490394278E-02 
2455	 0.116148100151164 
2456	 0.123080076899519 
2457	 9.07129968587884E-02 
2458	 8.26757155630438E-02 
2459	 5.96102453656472E-02 
2460	 5.63912856106263E-02 
2461	 9.16280692275327E-02 
2462	 9.74669213784421E-02 
2463	 9.24672510595902E-02 
2464	 9.25942880670653E-02 
2465	 7.17694976233819E-02 
2466	 5.97742109347091E-02 
2467	 5.74302117733434E-02 
2468	 5.67184942066552E-02 
2469	 5.69962087806605E-02 
2470	 6.63252258111018E-02 
2471	 9.47986933201874E-02 
2472	 0.101414624226123 
2473	 9.81542120266035E-02 
2474	 8.11773279147506E-02 
2475	 0.019315065803913 
2476	 3.60523679282029E-02 
2477	 0.118653031716145 
2478	 0.145239099257467 
2479	 0.237156506627579 
2480	 0.226226728408193 
2481	 2.99532267047842E-02 
2482	 1.25114901641066E-02 
2483	 6.38240628998959E-02 
2484	 0.14044923989937 
2485	 0.42574460282571 
2486	 0.416218459223236 
2487	 0.231597214382496 
2488	 0.153463319258636 
2489	 0.076062414288311 
2490	 4.73447634691385E-02 
2491	 0.278888778449162 
2492	 0.25494640153728 
2493	 0.231234367205397 
2494	 0.384483982569474 
2495	 0.510112750101047 
2496	 0.680290792560025 
2497	 0.84412325358912 
2498	 0.782431276132365 
2499	 0.479087663220284 
2500	 8.07568571390153E-02 
