Wavelength	ref00122.asd
350	 0.566131530936713 
351	 0.552230992055957 
352	 0.564414352865421 
353	 0.54888691151193 
354	 0.547358163290506 
355	 0.544036341092453 
356	 0.531126747127815 
357	 0.535093002499585 
358	 0.55053801788885 
359	 0.552086244441012 
360	 0.525089521242782 
361	 0.524643706046755 
362	 0.513686564299641 
363	 0.498760027361774 
364	 0.510776025342572 
365	 0.507895785906054 
366	 0.501822875331023 
367	 0.499765630489344 
368	 0.493712294737312 
369	 0.492766073546203 
370	 0.490341984972048 
371	 0.479469196660845 
372	 0.461102934902374 
373	 0.461985561004307 
374	 0.467739818757764 
375	 0.451100420288947 
376	 0.448758073599833 
377	 0.450215084720639 
378	 0.448875352546438 
379	 0.447931933995638 
380	 0.443985548912744 
381	 0.43480497670488 
382	 0.423820646749939 
383	 0.428438375332706 
384	 0.432696164260912 
385	 0.426474684504772 
386	 0.40861256465014 
387	 0.412823859083049 
388	 0.414519666078973 
389	 0.40788387514815 
390	 0.408277883300372 
391	 0.397138947014155 
392	 0.38933360632173 
393	 0.390988065259287 
394	 0.377176185892976 
395	 0.375448043658388 
396	 0.379595331329898 
397	 0.375820348642542 
398	 0.371871102969838 
399	 0.371650307794617 
400	 0.37122112128787 
401	 0.362140843945884 
402	 0.357379266162826 
403	 0.354177719284677 
404	 0.350474639229357 
405	 0.349804118058848 
406	 0.350747694370157 
407	 0.350310895706851 
408	 0.346059193126962 
409	 0.340603885849001 
410	 0.33842970411316 
411	 0.338076667431545 
412	 0.33378505482032 
413	 0.332031579542355 
414	 0.332857439375884 
415	 0.334131470919349 
416	 0.331287522271308 
417	 0.329533404145332 
418	 0.32853390276207 
419	 0.32686121499466 
420	 0.327163133348641 
421	 0.327741770416451 
422	 0.327303139925537 
423	 0.325354343487048 
424	 0.325705401165845 
425	 0.325581623071212 
426	 0.324099409501902 
427	 0.327013924653166 
428	 0.327532198447173 
429	 0.325059457065145 
430	 0.321700822585135 
431	 0.320089868936499 
432	 0.321035931296505 
433	 0.32192332275573 
434	 0.318197384434785 
435	 0.317929689787767 
436	 0.317815485691145 
437	 0.315418819210232 
438	 0.313573101053225 
439	 0.312927716684926 
440	 0.312285337764594 
441	 0.310300112393002 
442	 0.308700175170092 
443	 0.307307259256232 
444	 0.306172422846536 
445	 0.305557085551186 
446	 0.30355758777648 
447	 0.302359903338536 
448	 0.302819202621846 
449	 0.300883621045931 
450	 0.299320924301605 
451	 0.298628436605269 
452	 0.298079161723544 
453	 0.295448381994752 
454	 0.293988622859288 
455	 0.293935656545385 
456	 0.291739380477151 
457	 0.290966446257746 
458	 0.28978862019336 
459	 0.286798656474897 
460	 0.285220448546024 
461	 0.284118979275596 
462	 0.28256231714976 
463	 0.280003238958762 
464	 0.279186865480203 
465	 0.279204956600043 
466	 0.278907594250099 
467	 0.277413441278516 
468	 0.275824825894867 
469	 0.274178570132005 
470	 0.272413567365171 
471	 0.271252575604933 
472	 0.27031106797455 
473	 0.26920575470289 
474	 0.267678845070899 
475	 0.266794958118376 
476	 0.265337424810418 
477	 0.263029370329874 
478	 0.261837372569177 
479	 0.261804465706532 
480	 0.261723039263908 
481	 0.260415058322284 
482	 0.259407397468824 
483	 0.258112753023724 
484	 0.256901979661902 
485	 0.256992503756867 
486	 0.255256475771887 
487	 0.253647279529365 
488	 0.253491187230935 
489	 0.251966591310685 
490	 0.249827595974413 
491	 0.248731074059495 
492	 0.249730837572345 
493	 0.247379321751103 
494	 0.245703208548895 
495	 0.246157197146899 
496	 0.246230155672765 
497	 0.245931742758696 
498	 0.245816091453164 
499	 0.2461131691754 
500	 0.245194443203426 
501	 0.245534998943868 
502	 0.246636098985631 
503	 0.246383965353512 
504	 0.246083039379165 
505	 0.245998098796916 
506	 0.246530302465874 
507	 0.248570042053793 
508	 0.249573135343619 
509	 0.250707625474345 
510	 0.253520587293075 
511	 0.255694686483187 
512	 0.259723025199702 
513	 0.264748420618397 
514	 0.267429492379234 
515	 0.272417932666231 
516	 0.279056454501986 
517	 0.285966622812686 
518	 0.292294378892991 
519	 0.299737288473974 
520	 0.308257954045763 
521	 0.317144879484597 
522	 0.325954831606631 
523	 0.335253272358553 
524	 0.344943425276015 
525	 0.35397813999884 
526	 0.364038307029827 
527	 0.374611042459256 
528	 0.38456475056606 
529	 0.392266884181109 
530	 0.400274567906993 
531	 0.408535598637235 
532	 0.415731667181214 
533	 0.422685011912479 
534	 0.429643527714208 
535	 0.435923576626328 
536	 0.439388527343163 
537	 0.443246138892404 
538	 0.447512870082669 
539	 0.451420966631772 
540	 0.455517437863207 
541	 0.457911059346603 
542	 0.459258097336673 
543	 0.462187578963876 
544	 0.464716425637384 
545	 0.466320798748576 
546	 0.467466570698095 
547	 0.470378006871588 
548	 0.472834290985305 
549	 0.474521946362531 
550	 0.475736462802102 
551	 0.475224905298675 
552	 0.47505876912841 
553	 0.475188332596255 
554	 0.472851987875821 
555	 0.469683035853592 
556	 0.466091951315531 
557	 0.4619798640353 
558	 0.456595609250531 
559	 0.450963195469626 
560	 0.444767321928926 
561	 0.437067434023465 
562	 0.430338615916966 
563	 0.422846575770219 
564	 0.413976743569063 
565	 0.405969118346227 
566	 0.398381236110242 
567	 0.390027389264472 
568	 0.380103764477313 
569	 0.37092739969098 
570	 0.362210046072544 
571	 0.353811336055773 
572	 0.345749578018576 
573	 0.337158286754692 
574	 0.329460878148258 
575	 0.323253186205442 
576	 0.316143855173751 
577	 0.309225140888001 
578	 0.303160077323671 
579	 0.298186191893708 
580	 0.293076465084183 
581	 0.28791321154487 
582	 0.283118516981949 
583	 0.279368789261136 
584	 0.275322924713577 
585	 0.271534540696076 
586	 0.268608901025131 
587	 0.265367568902261 
588	 0.262037416983092 
589	 0.25898244304585 
590	 0.256601389050771 
591	 0.253880437847463 
592	 0.251272635181042 
593	 0.249111736493537 
594	 0.247324647909362 
595	 0.246013410495387 
596	 0.244413943060848 
597	 0.241837448171009 
598	 0.239401094691779 
599	 0.237272973172736 
600	 0.23554293671226 
601	 0.234231487973607 
602	 0.232374280558776 
603	 0.230106740149269 
604	 0.227708429074235 
605	 0.225091389708936 
606	 0.222663055279834 
607	 0.220136660941418 
608	 0.21701651669727 
609	 0.214061055320764 
610	 0.211382824156917 
611	 0.208668204968369 
612	 0.205093852986177 
613	 0.202931216490055 
614	 0.200888600187909 
615	 0.197618488057915 
616	 0.19536401637407 
617	 0.19271532097852 
618	 0.189918134443565 
619	 0.18820932424726 
620	 0.186530346167554 
621	 0.184899617150869 
622	 0.183468686721403 
623	 0.18243262670042 
624	 0.180620217111174 
625	 0.179026975217334 
626	 0.178884397197492 
627	 0.178454638613296 
628	 0.177143861264835 
629	 0.175689970976288 
630	 0.175895030506675 
631	 0.175303376447756 
632	 0.17408373577919 
633	 0.172817815646352 
634	 0.171764399911707 
635	 0.17043583156864 
636	 0.168813555246623 
637	 0.167093994015382 
638	 0.165188690944065 
639	 0.163507469497253 
640	 0.162037002957915 
641	 0.160236527437556 
642	 0.158392789499525 
643	 0.156567845535054 
644	 0.154818781211206 
645	 0.153515179235646 
646	 0.151442681172076 
647	 0.149143934865858 
648	 0.148084361325013 
649	 0.147154298927175 
650	 0.146012438568652 
651	 0.144951197384575 
652	 0.14508381744451 
653	 0.144280191575192 
654	 0.143160828762341 
655	 0.142678292890203 
656	 0.141524660307445 
657	 0.140200649827968 
658	 0.139189899048905 
659	 0.138523103774959 
660	 0.137151046975715 
661	 0.135909041767287 
662	 0.135279741090898 
663	 0.134497112644712 
664	 0.133807240813258 
665	 0.133234767839862 
666	 0.13279480179396 
667	 0.132817487302981 
668	 0.132727008294346 
669	 0.132409980716603 
670	 0.132206293677078 
671	 0.132000021279061 
672	 0.132359421142166 
673	 0.133187475952997 
674	 0.132575469478902 
675	 0.131967318368658 
676	 0.13225605113935 
677	 0.133614388827933 
678	 0.133408112937189 
679	 0.133745637084656 
680	 0.134974714403071 
681	 0.135410558138528 
682	 0.136589573602413 
683	 0.13787140579873 
684	 0.138752161970476 
685	 0.14007291608505 
686	 0.142575150907671 
687	 0.145653922373313 
688	 0.147884974433909 
689	 0.150121115214204 
690	 0.15354877528865 
691	 0.15865384647755 
692	 0.165083301093415 
693	 0.174531182925462 
694	 0.186354895323918 
695	 0.200258527614082 
696	 0.218205769866221 
697	 0.239335769562157 
698	 0.262922238857156 
699	 0.288444303596058 
700	 0.317583794935012 
701	 0.348949410650224 
702	 0.38165803710991 
703	 0.415826827778127 
704	 0.45157292365512 
705	 0.488045121832468 
706	 0.525078488159561 
707	 0.563833357288726 
708	 0.603248556766072 
709	 0.642893060876191 
710	 0.682445163425296 
711	 0.722810389436916 
712	 0.764280518065832 
713	 0.806605084407212 
714	 0.849147335394317 
715	 0.889793484595026 
716	 0.929607213153921 
717	 0.971011220086885 
718	 1.01359027315606 
719	 1.05943538633574 
720	 1.10576311679497 
721	 1.14861600564306 
722	 1.18958338512186 
723	 1.22938541137488 
724	 1.26981219876645 
725	 1.30938517361602 
726	 1.34750021958185 
727	 1.38440469255062 
728	 1.42111020465033 
729	 1.45707803115073 
730	 1.49062534760998 
731	 1.52228098082484 
732	 1.55339594845805 
733	 1.58279514249986 
734	 1.60990143967456 
735	 1.63482086587595 
736	 1.65770667358532 
737	 1.67976863162312 
738	 1.70021918777881 
739	 1.71892181946319 
740	 1.73700065523259 
741	 1.75360936737667 
742	 1.76846930891919 
743	 1.78152383810557 
744	 1.79340258016245 
745	 1.80378990802142 
746	 1.81321917683321 
747	 1.82262422165159 
748	 1.82996012923078 
749	 1.8358727912493 
750	 1.84109281688675 
751	 1.8458305242863 
752	 1.85014000110326 
753	 1.85390724979293 
754	 1.85681753438673 
755	 1.85795856115319 
756	 1.85899045160906 
757	 1.85981978396149 
758	 1.8599369010226 
759	 1.8655334192028 
760	 1.87268407358842 
761	 1.87564941696223 
762	 1.87199999217238 
763	 1.8699358799885 
764	 1.86742497352765 
765	 1.86303195675163 
766	 1.86023030201712 
767	 1.85660239673916 
768	 1.85308378224327 
769	 1.85088501702987 
770	 1.84805566118954 
771	 1.84525134938742 
772	 1.8430377688798 
773	 1.84155897469585 
774	 1.83810528869479 
775	 1.83517590773272 
776	 1.83370916488131 
777	 1.83069811791598 
778	 1.8278663618606 
779	 1.82536577502939 
780	 1.82295010083321 
781	 1.82040665482542 
782	 1.81805893607934 
783	 1.81597797734663 
784	 1.81387755724231 
785	 1.81015760028692 
786	 1.80678679370736 
787	 1.80399581262773 
788	 1.80001996964087 
789	 1.79686719922834 
790	 1.79441234134769 
791	 1.79209214898364 
792	 1.78932982119153 
793	 1.78687474215924 
794	 1.78463507668031 
795	 1.7820808772671 
796	 1.77797123082526 
797	 1.77512756597361 
798	 1.77323402599053 
799	 1.77034903118061 
800	 1.76787394280365 
801	 1.76488228511927 
802	 1.7616758606358 
803	 1.7599521024717 
804	 1.75774527330222 
805	 1.75475554776353 
806	 1.75162401025785 
807	 1.75023369483587 
808	 1.74736873320372 
809	 1.7442346305427 
810	 1.74222726310591 
811	 1.73771338772213 
812	 1.73274167295329 
813	 1.72830304672592 
814	 1.72454484546212 
815	 1.72036996421403 
816	 1.71679804997067 
817	 1.71372914096183 
818	 1.70990744894501 
819	 1.70892041788087 
820	 1.70906427790431 
821	 1.70822967659062 
822	 1.7051885430564 
823	 1.70314733487947 
824	 1.70143741985559 
825	 1.69915121771986 
826	 1.69790263336648 
827	 1.69659133921925 
828	 1.69479531700372 
829	 1.69249581348275 
830	 1.68975339391298 
831	 1.68842757004941 
832	 1.68792372645934 
833	 1.68612312222047 
834	 1.68480162818203 
835	 1.68380896709674 
836	 1.68273070920448 
837	 1.68115844703413 
838	 1.67992400915037 
839	 1.67869480539929 
840	 1.67692103452349 
841	 1.6739874525245 
842	 1.67313679403593 
843	 1.67243258699006 
844	 1.66991541337508 
845	 1.66896105124621 
846	 1.66697408003784 
847	 1.66465647373651 
848	 1.66363601415699 
849	 1.66223099875141 
850	 1.65961283367458 
851	 1.65675794242516 
852	 1.65568412672881 
853	 1.65561507924571 
854	 1.65465878283741 
855	 1.65181197079242 
856	 1.64759788266946 
857	 1.64583256823701 
858	 1.64412002967323 
859	 1.64151582841601 
860	 1.64099316870734 
861	 1.63875935007142 
862	 1.63671541593686 
863	 1.63655005741753 
864	 1.63590038190183 
865	 1.6342331369323 
866	 1.63252300841848 
867	 1.63142133280336 
868	 1.62790026885872 
869	 1.62478880158584 
870	 1.62296629655822 
871	 1.62196303142397 
872	 1.62044945725317 
873	 1.61920383046523 
874	 1.61780416197602 
875	 1.61525932514329 
876	 1.6133042065319 
877	 1.61189275315033 
878	 1.61022421360209 
879	 1.60724442578839 
880	 1.60539979722427 
881	 1.6032220229505 
882	 1.60059521448614 
883	 1.59977495348113 
884	 1.59751987435862 
885	 1.59525984118997 
886	 1.59419728076622 
887	 1.59342101491105 
888	 1.59063057322113 
889	 1.58798381622859 
890	 1.5867461495982 
891	 1.58291502533656 
892	 1.57940830749124 
893	 1.57597734907423 
894	 1.57196147123807 
895	 1.56888183819439 
896	 1.56702713173608 
897	 1.56419827755633 
898	 1.55905636419721 
899	 1.55886093269901 
900	 1.55818157066496 
901	 1.55552265674433 
902	 1.55252346549322 
903	 1.55359811297683 
904	 1.55026913307015 
905	 1.54550534500067 
906	 1.54751511985826 
907	 1.54738455276882 
908	 1.54247088068305 
909	 1.53693320343445 
910	 1.53818669530702 
911	 1.53543510126303 
912	 1.53265151759528 
913	 1.53059656600435 
914	 1.52631761051919 
915	 1.52743860151617 
916	 1.52500359446941 
917	 1.52017178661097 
918	 1.52542922097583 
919	 1.52236742246548 
920	 1.51926512523214 
921	 1.51956275369265 
922	 1.51601952469539 
923	 1.51671865147467 
924	 1.51539537138367 
925	 1.50985175326467 
926	 1.50766662140309 
927	 1.5021931301617 
928	 1.49707365632384 
929	 1.49388553290675 
930	 1.48632434812988 
931	 1.48288869221149 
932	 1.47826304980014 
933	 1.46895318775484 
934	 1.46396751354844 
935	 1.46229979629768 
936	 1.45717288867304 
937	 1.44829701358584 
938	 1.44905051728693 
939	 1.44818587520545 
940	 1.44936404435921 
941	 1.45409659720239 
942	 1.45390836605627 
943	 1.45041945186808 
944	 1.45027162623827 
945	 1.45324570351832 
946	 1.44202363332063 
947	 1.43741525022258 
948	 1.43408850738026 
949	 1.42772475119689 
950	 1.43014735318905 
951	 1.43196993370978 
952	 1.43120039232697 
953	 1.42791156618649 
954	 1.42222018887622 
955	 1.42109585992001 
956	 1.4226981204188 
957	 1.42317857010062 
958	 1.42008118316124 
959	 1.41612820061447 
960	 1.41843858933512 
961	 1.42589750358125 
962	 1.42219745162274 
963	 1.42511601097058 
964	 1.42533885767735 
965	 1.41866911803099 
966	 1.41865663854751 
967	 1.42425508267082 
968	 1.4260245452622 
969	 1.42045110975649 
970	 1.41603005539246 
971	 1.42079210904691 
972	 1.42279499812033 
973	 1.41784908846484 
974	 1.41818970156568 
975	 1.41620596778455 
976	 1.41425482753154 
977	 1.41530912865798 
978	 1.41988744970116 
979	 1.41825306539808 
980	 1.41604738444057 
981	 1.41611660817728 
982	 1.41515498846164 
983	 1.40862186029342 
984	 1.40908847507589 
985	 1.41535037117223 
986	 1.41386619373313 
987	 1.41472412319888 
988	 1.41230755328837 
989	 1.40629287698495 
990	 1.40195879931495 
991	 1.4046069421746 
992	 1.40810367989047 
993	 1.41137648937228 
994	 1.41574771196507 
995	 1.41462102874161 
996	 1.40869436423816 
997	 1.40492800990083 
998	 1.40897919219395 
999	 1.41123223204851 
1000	 1.40674176536131 
1001	 1.44369164637322 
1002	 1.44334765669194 
1003	 1.44325908301593 
1004	 1.4436982747607 
1005	 1.44356603905106 
1006	 1.4435598270438 
1007	 1.44355576175086 
1008	 1.44336716590101 
1009	 1.44283235673369 
1010	 1.44227507833077 
1011	 1.44179644287589 
1012	 1.44039815520242 
1013	 1.43980762283393 
1014	 1.44012386028022 
1015	 1.43997354169581 
1016	 1.43966422123392 
1017	 1.43891648424608 
1018	 1.43850247280642 
1019	 1.43795629443735 
1020	 1.43771009804791 
1021	 1.43812033874389 
1022	 1.4377835422278 
1023	 1.4373512095409 
1024	 1.43590545837582 
1025	 1.43503347761669 
1026	 1.43506038334949 
1027	 1.43467909258918 
1028	 1.43424856520458 
1029	 1.43371756174052 
1030	 1.4327131120592 
1031	 1.43173108695121 
1032	 1.43122774357483 
1033	 1.43064198035134 
1034	 1.42997740176145 
1035	 1.42902077004891 
1036	 1.42794509235802 
1037	 1.42714119157569 
1038	 1.42620341104596 
1039	 1.42540219374146 
1040	 1.42454529954788 
1041	 1.4235616701004 
1042	 1.42277106431005 
1043	 1.42209154054454 
1044	 1.42189829871686 
1045	 1.42153120363091 
1046	 1.42029179900665 
1047	 1.41900163740949 
1048	 1.41768106229727 
1049	 1.4173650038911 
1050	 1.4170696936917 
1051	 1.41746727841696 
1052	 1.41696769717382 
1053	 1.41661235080289 
1054	 1.41637720273033 
1055	 1.4159490122501 
1056	 1.41544096781675 
1057	 1.41491341521398 
1058	 1.41453538735447 
1059	 1.41427179744969 
1060	 1.41382128566365 
1061	 1.41313735568198 
1062	 1.41202774005281 
1063	 1.41065574172736 
1064	 1.4099813839304 
1065	 1.40937467440241 
1066	 1.40932330610754 
1067	 1.40911610743809 
1068	 1.40860090071054 
1069	 1.407652706604 
1070	 1.40716375386267 
1071	 1.40691108154912 
1072	 1.40609480128786 
1073	 1.40580299905215 
1074	 1.40546940948876 
1075	 1.40414395838875 
1076	 1.40317479056634 
1077	 1.40237794074256 
1078	 1.40176517387872 
1079	 1.40155262314845 
1080	 1.40110715225377 
1081	 1.40026907715948 
1082	 1.39911177357172 
1083	 1.39738744077249 
1084	 1.39625409751204 
1085	 1.39577891164492 
1086	 1.39535424568085 
1087	 1.39510227680407 
1088	 1.39438607939848 
1089	 1.39270287803609 
1090	 1.39081863467858 
1091	 1.38950972658901 
1092	 1.38808952242743 
1093	 1.38662415145353 
1094	 1.38537543844024 
1095	 1.38384227935979 
1096	 1.38235382878156 
1097	 1.38094509398802 
1098	 1.37922465401137 
1099	 1.37733730575325 
1100	 1.37541274744332 
1101	 1.37354614125206 
1102	 1.37184900971705 
1103	 1.3702868602936 
1104	 1.36850355151186 
1105	 1.36658230266552 
1106	 1.3644549412199 
1107	 1.36237083405537 
1108	 1.36022601801616 
1109	 1.35744121149129 
1110	 1.35412872032407 
1111	 1.35071582177676 
1112	 1.34645285735584 
1113	 1.34279663778932 
1114	 1.33964943475909 
1115	 1.3353791391796 
1116	 1.33068636588919 
1117	 1.32551136826565 
1118	 1.31965015116669 
1119	 1.31326455082883 
1120	 1.30761487655768 
1121	 1.30319344411438 
1122	 1.29947615072042 
1123	 1.29671269662023 
1124	 1.29406481878446 
1125	 1.29184389941735 
1126	 1.29016566400666 
1127	 1.28879884656964 
1128	 1.28725217286819 
1129	 1.28671292551598 
1130	 1.28559516871126 
1131	 1.2837831416843 
1132	 1.28270571206567 
1133	 1.28221771254252 
1134	 1.28135922964004 
1135	 1.28036518766837 
1136	 1.27879127576292 
1137	 1.27710549275426 
1138	 1.27486831171597 
1139	 1.27220065414756 
1140	 1.26921976325435 
1141	 1.26548100423147 
1142	 1.26215654052797 
1143	 1.25894158512725 
1144	 1.25583955898819 
1145	 1.25258999192834 
1146	 1.24933517700429 
1147	 1.24605338910873 
1148	 1.24236315069101 
1149	 1.23960943420274 
1150	 1.23723405605787 
1151	 1.23557919590006 
1152	 1.23465105715209 
1153	 1.23391155152696 
1154	 1.23372142619235 
1155	 1.23381299483789 
1156	 1.23363716287639 
1157	 1.23350599981512 
1158	 1.23362867026984 
1159	 1.23299774624021 
1160	 1.23284753074268 
1161	 1.23305040181838 
1162	 1.23304569661165 
1163	 1.23316096514454 
1164	 1.23298667787891 
1165	 1.23261369878086 
1166	 1.23205049719929 
1167	 1.23098194524392 
1168	 1.23045253367615 
1169	 1.23009969791533 
1170	 1.22987765869273 
1171	 1.22934089171475 
1172	 1.22870986940552 
1173	 1.22814635132663 
1174	 1.22724873170667 
1175	 1.22650550741231 
1176	 1.22594237958067 
1177	 1.22507091103303 
1178	 1.22387891280266 
1179	 1.22264558463979 
1180	 1.22122205308352 
1181	 1.22006344174842 
1182	 1.218667521305 
1183	 1.21766942526279 
1184	 1.21711111475581 
1185	 1.21642398781807 
1186	 1.21588863451698 
1187	 1.21524949047023 
1188	 1.21457029879484 
1189	 1.2140015163246 
1190	 1.21320639178266 
1191	 1.21252154609509 
1192	 1.21203907450884 
1193	 1.21149776929648 
1194	 1.21106237517345 
1195	 1.21088625221365 
1196	 1.21038666136665 
1197	 1.20973263104955 
1198	 1.20913570658504 
1199	 1.20834639345874 
1200	 1.20777383062706 
1201	 1.20728669802777 
1202	 1.20691235569217 
1203	 1.20654304958587 
1204	 1.20639514845272 
1205	 1.20657005159261 
1206	 1.20659684291469 
1207	 1.20688012300237 
1208	 1.20689471255515 
1209	 1.20674335763654 
1210	 1.20628439324821 
1211	 1.20625360862144 
1212	 1.20625761306142 
1213	 1.20638826405289 
1214	 1.20678250858823 
1215	 1.20716144495301 
1216	 1.20756831916221 
1217	 1.20802850118279 
1218	 1.20868191780501 
1219	 1.20913876444558 
1220	 1.2093916025813 
1221	 1.20987823630695 
1222	 1.21054784469453 
1223	 1.21104607078703 
1224	 1.21172831787356 
1225	 1.21211093565733 
1226	 1.21210241135395 
1227	 1.21225089313791 
1228	 1.21243671332851 
1229	 1.21238350704238 
1230	 1.21269741979251 
1231	 1.21309738570809 
1232	 1.21347571093799 
1233	 1.21406186551304 
1234	 1.2143624134201 
1235	 1.21459199250529 
1236	 1.21466783314909 
1237	 1.21445079122104 
1238	 1.21449375391062 
1239	 1.21463592462732 
1240	 1.21460281397972 
1241	 1.21461146755698 
1242	 1.21454032055054 
1243	 1.21420929331436 
1244	 1.2140327875039 
1245	 1.21397852273184 
1246	 1.21389099293117 
1247	 1.2138086014151 
1248	 1.21370014617776 
1249	 1.21367087514682 
1250	 1.2134861000693 
1251	 1.21316848129464 
1252	 1.21280676826365 
1253	 1.21260185957338 
1254	 1.21243990012574 
1255	 1.2121294308201 
1256	 1.2119452954699 
1257	 1.21150897787648 
1258	 1.21074262094536 
1259	 1.21013923031781 
1260	 1.209543733445 
1261	 1.20893520286192 
1262	 1.20832822931952 
1263	 1.20766441845022 
1264	 1.20688943956916 
1265	 1.20626631924812 
1266	 1.20566314833159 
1267	 1.20512646467965 
1268	 1.20491246775309 
1269	 1.20441437333675 
1270	 1.20366912570995 
1271	 1.20309777496095 
1272	 1.20241204979354 
1273	 1.20193733079121 
1274	 1.20132876977068 
1275	 1.2008828909647 
1276	 1.20022660295804 
1277	 1.19925319075538 
1278	 1.19872832381203 
1279	 1.19836548068523 
1280	 1.19798665858034 
1281	 1.19795728510998 
1282	 1.19751181453216 
1283	 1.1968811751369 
1284	 1.19622474020748 
1285	 1.19524518432882 
1286	 1.19458603105345 
1287	 1.19423622425912 
1288	 1.19351385332042 
1289	 1.19278651138582 
1290	 1.19193532598953 
1291	 1.1906463258132 
1292	 1.18957593571258 
1293	 1.18878552248021 
1294	 1.1876959920347 
1295	 1.1866810086816 
1296	 1.18523737897278 
1297	 1.18371520417288 
1298	 1.1818390548092 
1299	 1.18020116597108 
1300	 1.17850451105113 
1301	 1.17681200089091 
1302	 1.17520461690666 
1303	 1.17344102125868 
1304	 1.17170917258151 
1305	 1.16960525554699 
1306	 1.16718952165225 
1307	 1.16490313980779 
1308	 1.16237887137318 
1309	 1.15992405271625 
1310	 1.15762984124243 
1311	 1.1551731644496 
1312	 1.15251389916544 
1313	 1.14992030401348 
1314	 1.1475395653134 
1315	 1.14481158322352 
1316	 1.14172996432078 
1317	 1.13885613835858 
1318	 1.13589362755542 
1319	 1.13289695145572 
1320	 1.13007817617501 
1321	 1.12728087744084 
1322	 1.12384311608917 
1323	 1.11992287209214 
1324	 1.11604369265664 
1325	 1.11169808937477 
1326	 1.10745002557432 
1327	 1.10303543639331 
1328	 1.09871633061239 
1329	 1.09422459909026 
1330	 1.0898681129998 
1331	 1.08584134159041 
1332	 1.0814553213424 
1333	 1.0767313712304 
1334	 1.07246747858012 
1335	 1.0683667775773 
1336	 1.06427170187115 
1337	 1.0604263416137 
1338	 1.05651659209663 
1339	 1.05219576532913 
1340	 1.04805687214326 
1341	 1.04381716143598 
1342	 1.03951006268421 
1343	 1.0345465867633 
1344	 1.02968823631049 
1345	 1.02474737734771 
1346	 1.01857503378672 
1347	 1.01236115014839 
1348	 1.00577181158016 
1349	 0.998292743037558 
1350	 0.989323830367214 
1351	 0.980128171633747 
1352	 0.970399103424306 
1353	 0.959140408396355 
1354	 0.948948423628428 
1355	 0.936744844976546 
1356	 0.931233761996063 
1357	 0.918079565641498 
1358	 0.915176194855744 
1359	 0.900125914606226 
1360	 0.870239075985939 
1361	 0.847020418636043 
1362	 0.862530823452272 
1363	 0.854129106178351 
1364	 0.878354291392353 
1365	 0.877065105087363 
1366	 0.848953654943002 
1367	 0.818756953262043 
1368	 0.78062399793159 
1369	 0.767524162753455 
1370	 0.760637245975264 
1371	 0.757263664391666 
1372	 0.769216769689279 
1373	 0.769647868739907 
1374	 0.771365202207816 
1375	 0.757773236559006 
1376	 0.739909173872664 
1377	 0.735337004913099 
1378	 0.725593828358976 
1379	 0.712322379943681 
1380	 0.703126056025106 
1381	 0.699104042951299 
1382	 0.685891576495417 
1383	 0.670553001257976 
1384	 0.657599830552411 
1385	 0.641592033958526 
1386	 0.629222267645187 
1387	 0.621070127992603 
1388	 0.613553706821943 
1389	 0.609536141077881 
1390	 0.600784422734382 
1391	 0.591801222441619 
1392	 0.580779493391333 
1393	 0.564653665271618 
1394	 0.552201628819287 
1395	 0.543268512060673 
1396	 0.531081248380389 
1397	 0.513846438159884 
1398	 0.50412902097864 
1399	 0.498000355212118 
1400	 0.488826890509826 
1401	 0.484827463303661 
1402	 0.476552580721416 
1403	 0.46464582764835 
1404	 0.45280350156535 
1405	 0.440885344938925 
1406	 0.428923713695 
1407	 0.418992671477729 
1408	 0.408819683854571 
1409	 0.401876236566388 
1410	 0.397399215893403 
1411	 0.392696775980065 
1412	 0.388953446377131 
1413	 0.385017751209689 
1414	 0.381771442283138 
1415	 0.377403317936213 
1416	 0.372357568686538 
1417	 0.368670491147207 
1418	 0.36480572100988 
1419	 0.362062371979899 
1420	 0.360396274292684 
1421	 0.358341793801509 
1422	 0.356633926922613 
1423	 0.354415863230652 
1424	 0.351653620424671 
1425	 0.349716307672117 
1426	 0.347850790803874 
1427	 0.345999414327689 
1428	 0.344464259478247 
1429	 0.343022764478048 
1430	 0.34142230306242 
1431	 0.339935244444212 
1432	 0.338630117018843 
1433	 0.337424617880384 
1434	 0.33591976449197 
1435	 0.334936736722439 
1436	 0.334858220659239 
1437	 0.334122976775061 
1438	 0.333056068283814 
1439	 0.332291382746105 
1440	 0.331079998500564 
1441	 0.330477209889369 
1442	 0.330401355917224 
1443	 0.330445877698615 
1444	 0.330843329007712 
1445	 0.331230320978412 
1446	 0.332089053980084 
1447	 0.333256158692124 
1448	 0.333905991817864 
1449	 0.334500262290502 
1450	 0.335140343771104 
1451	 0.335336081294052 
1452	 0.336175866068668 
1453	 0.337593915050428 
1454	 0.338294629802322 
1455	 0.338840267399263 
1456	 0.339602468727888 
1457	 0.340249319084939 
1458	 0.340775164193926 
1459	 0.341533252811465 
1460	 0.342116527615881 
1461	 0.342257092090549 
1462	 0.342858792881794 
1463	 0.343593404963895 
1464	 0.344781624496389 
1465	 0.346422768944552 
1466	 0.348062907326289 
1467	 0.350359019263352 
1468	 0.352188046754529 
1469	 0.353144726618579 
1470	 0.355287839762966 
1471	 0.357626405919107 
1472	 0.360386271319254 
1473	 0.364062846187636 
1474	 0.367298874351256 
1475	 0.370207277319512 
1476	 0.373418389644222 
1477	 0.376763248196747 
1478	 0.380003071485386 
1479	 0.382955199665846 
1480	 0.38646267598071 
1481	 0.390134597403239 
1482	 0.393835152294554 
1483	 0.397860795338998 
1484	 0.401890681117058 
1485	 0.405655404879203 
1486	 0.409677941244029 
1487	 0.414075881446022 
1488	 0.418110482597498 
1489	 0.421987890963632 
1490	 0.425889862651539 
1491	 0.43008829894366 
1492	 0.434442649825293 
1493	 0.438591197816137 
1494	 0.442298069461845 
1495	 0.445746226614533 
1496	 0.448446486715966 
1497	 0.45208958185055 
1498	 0.456153113812972 
1499	 0.459897952735419 
1500	 0.463884593204527 
1501	 0.467791747452663 
1502	 0.471452520951697 
1503	 0.475433026047811 
1504	 0.479952678690638 
1505	 0.483673819271746 
1506	 0.486907472009853 
1507	 0.490562563582208 
1508	 0.494025176631937 
1509	 0.497615810323417 
1510	 0.501645598381059 
1511	 0.505244840189386 
1512	 0.508411638584479 
1513	 0.511968544163586 
1514	 0.515755632240977 
1515	 0.519296984676249 
1516	 0.522853656389965 
1517	 0.526476522715306 
1518	 0.53000004219581 
1519	 0.533576080353504 
1520	 0.537399472422033 
1521	 0.540961832690088 
1522	 0.544360108158126 
1523	 0.547769269084372 
1524	 0.551140559245471 
1525	 0.554457584336191 
1526	 0.557705756224718 
1527	 0.560965123662724 
1528	 0.564239434533225 
1529	 0.567411310944667 
1530	 0.570502721069455 
1531	 0.573658769757058 
1532	 0.57680199698523 
1533	 0.579930269528661 
1534	 0.583106872075114 
1535	 0.58625796704931 
1536	 0.589570505363814 
1537	 0.592468147119656 
1538	 0.594869307335616 
1539	 0.597769616142315 
1540	 0.600832664124664 
1541	 0.603605825193721 
1542	 0.606579070678063 
1543	 0.609497845204176 
1544	 0.611972835487188 
1545	 0.614615378310674 
1546	 0.617570416424022 
1547	 0.620404248107621 
1548	 0.623095520327705 
1549	 0.625837806244759 
1550	 0.628717584604177 
1551	 0.63146049418787 
1552	 0.634295651517576 
1553	 0.63680204618013 
1554	 0.638795565280752 
1555	 0.641154208172824 
1556	 0.643579057855698 
1557	 0.645884593832271 
1558	 0.648535638746371 
1559	 0.650920135554464 
1560	 0.652774902986549 
1561	 0.654911950613603 
1562	 0.657205063540057 
1563	 0.659446296368902 
1564	 0.661681843521585 
1565	 0.664209439478057 
1566	 0.666686747629848 
1567	 0.668604567993801 
1568	 0.670496729302684 
1569	 0.672125447424137 
1570	 0.674130572275115 
1571	 0.675998161470284 
1572	 0.67820522749402 
1573	 0.680903138480529 
1574	 0.683029996523301 
1575	 0.684935829593265 
1576	 0.686994895075039 
1577	 0.68890421972039 
1578	 0.690853822351369 
1579	 0.692922550139662 
1580	 0.694790676566939 
1581	 0.696525009794993 
1582	 0.698155840803559 
1583	 0.69960247903841 
1584	 0.701387089997582 
1585	 0.703263397982078 
1586	 0.704886699345017 
1587	 0.706656666091139 
1588	 0.708279781484375 
1589	 0.709491603812731 
1590	 0.711133709173595 
1591	 0.713164388578278 
1592	 0.714736567591316 
1593	 0.716267968873931 
1594	 0.717572815420978 
1595	 0.718424154701542 
1596	 0.719896248042456 
1597	 0.721526590072087 
1598	 0.723111383895319 
1599	 0.725129963636787 
1600	 0.726632651757816 
1601	 0.727829231545909 
1602	 0.729081544249863 
1603	 0.730074734738252 
1604	 0.731495428094672 
1605	 0.733074456453092 
1606	 0.734557600290142 
1607	 0.736440863479023 
1608	 0.737601979773306 
1609	 0.738193133198894 
1610	 0.739275215981538 
1611	 0.740240838055927 
1612	 0.741292516023972 
1613	 0.742693126811048 
1614	 0.743717360198148 
1615	 0.744351055810609 
1616	 0.745474982701329 
1617	 0.74694151891792 
1618	 0.747818329466574 
1619	 0.748507714589321 
1620	 0.749537763294011 
1621	 0.750282044505965 
1622	 0.751319550444348 
1623	 0.753041220554437 
1624	 0.753964643863794 
1625	 0.754339893863797 
1626	 0.755186197198969 
1627	 0.755908100057772 
1628	 0.757010759218493 
1629	 0.75868878055521 
1630	 0.759645926647017 
1631	 0.760513792170177 
1632	 0.761085185264032 
1633	 0.761048946319531 
1634	 0.761532241451001 
1635	 0.762176721966944 
1636	 0.762697656687427 
1637	 0.76329514459947 
1638	 0.763814717956272 
1639	 0.764237440349888 
1640	 0.764692494747058 
1641	 0.765181336399398 
1642	 0.765671730090154 
1643	 0.76618909257869 
1644	 0.76636618794764 
1645	 0.766433909163663 
1646	 0.766540323544086 
1647	 0.766400334202023 
1648	 0.766342926199172 
1649	 0.766393700129142 
1650	 0.766391581016047 
1651	 0.766322640118305 
1652	 0.766157237211574 
1653	 0.766070770293122 
1654	 0.76573948016022 
1655	 0.765151816226454 
1656	 0.764562009900516 
1657	 0.763844863744274 
1658	 0.763369708452681 
1659	 0.762741538483266 
1660	 0.762551736926473 
1661	 0.76263701360261 
1662	 0.762327649570862 
1663	 0.762215139812576 
1664	 0.761976438039127 
1665	 0.761347839750341 
1666	 0.761204882048078 
1667	 0.761329210157054 
1668	 0.76134214836092 
1669	 0.761470898209995 
1670	 0.76153936408122 
1671	 0.761207933456628 
1672	 0.760900949903088 
1673	 0.760863085002723 
1674	 0.760775167994063 
1675	 0.760819208694559 
1676	 0.761113938139053 
1677	 0.761342639243167 
1678	 0.761304134976414 
1679	 0.761113077740552 
1680	 0.760845605802803 
1681	 0.760371168365845 
1682	 0.759833233746387 
1683	 0.759531659490165 
1684	 0.759181711965939 
1685	 0.758582855688424 
1686	 0.758157677618798 
1687	 0.757650100051377 
1688	 0.757011803359746 
1689	 0.756869144005665 
1690	 0.756290738222096 
1691	 0.755584440998347 
1692	 0.754362183758695 
1693	 0.753470940031167 
1694	 0.752899420912768 
1695	 0.752043668570855 
1696	 0.751245263233902 
1697	 0.750358165680265 
1698	 0.749023617786677 
1699	 0.748083019407833 
1700	 0.747558539820422 
1701	 0.746651539917328 
1702	 0.745921715140995 
1703	 0.744775039076946 
1704	 0.742764329101575 
1705	 0.741475199821167 
1706	 0.740490870681065 
1707	 0.739210089545163 
1708	 0.738206826789415 
1709	 0.737227832300923 
1710	 0.73593553615826 
1711	 0.734741660028414 
1712	 0.733774308223035 
1713	 0.732719820458519 
1714	 0.731626970370467 
1715	 0.730409314369756 
1716	 0.729271106591812 
1717	 0.728034618626987 
1718	 0.726343091904252 
1719	 0.724978581971809 
1720	 0.723986256957843 
1721	 0.722674927321991 
1722	 0.721311154596881 
1723	 0.719972974261555 
1724	 0.718388383025369 
1725	 0.717012233315049 
1726	 0.715773278537268 
1727	 0.714358339578543 
1728	 0.712808433744374 
1729	 0.71174667134826 
1730	 0.710878141738988 
1731	 0.710407314578805 
1732	 0.709713117989538 
1733	 0.707975121092653 
1734	 0.705902027442674 
1735	 0.703916909054974 
1736	 0.701744966964528 
1737	 0.700404125661577 
1738	 0.700083561624919 
1739	 0.699129023164699 
1740	 0.698264013784218 
1741	 0.697275052094946 
1742	 0.695285317148967 
1743	 0.693905756733544 
1744	 0.69240137796892 
1745	 0.690556765238369 
1746	 0.689086761314484 
1747	 0.686933212975859 
1748	 0.685183743134515 
1749	 0.684110180304885 
1750	 0.683244540985068 
1751	 0.682896566571559 
1752	 0.681652193094373 
1753	 0.6798583417719 
1754	 0.67805706653414 
1755	 0.675827868338945 
1756	 0.67429188400505 
1757	 0.672840107285172 
1758	 0.671027440648548 
1759	 0.668970389475999 
1760	 0.667226866535111 
1761	 0.665568808263653 
1762	 0.663778720399856 
1763	 0.662331559972862 
1764	 0.660590628360888 
1765	 0.658173985454031 
1766	 0.656491044678413 
1767	 0.655160591719156 
1768	 0.653882946835385 
1769	 0.652937448761885 
1770	 0.652073833785154 
1771	 0.651362913163669 
1772	 0.650212420110248 
1773	 0.649078154304246 
1774	 0.646940806957266 
1775	 0.645574896721137 
1776	 0.644394507852655 
1777	 0.642801998645096 
1778	 0.641494265286018 
1779	 0.640261214666236 
1780	 0.638058962144334 
1781	 0.636239093389245 
1782	 0.635700431155696 
1783	 0.635415936967155 
1784	 0.634975983211119 
1785	 0.635423845317016 
1786	 0.635579293133482 
1787	 0.633553708600282 
1788	 0.631868162340866 
1789	 0.63026324962215 
1790	 0.628420873478605 
1791	 0.628347902001132 
1792	 0.628205314681113 
1793	 0.62688988782763 
1794	 0.625032674671749 
1795	 0.622380365164177 
1796	 0.620375370985816 
1797	 0.619826562527141 
1798	 0.6182922034237 
1799	 0.616095611391416 
1800	 0.615683240463232 
1801	 0.611062408513457 
1802	 0.609077217515345 
1803	 0.606574732947728 
1804	 0.602045204056835 
1805	 0.598771070575195 
1806	 0.597101860170622 
1807	 0.59439707544933 
1808	 0.591034381079624 
1809	 0.586031688140096 
1810	 0.58549167380706 
1811	 0.588773591043756 
1812	 0.588264962317523 
1813	 0.590739777647727 
1814	 0.589656377947665 
1815	 0.57961645641621 
1816	 0.57611846936334 
1817	 0.577469711608092 
1818	 0.576900377649843 
1819	 0.577006793632441 
1820	 0.581362200459754 
1821	 0.581467167234292 
1822	 0.576078449794711 
1823	 0.576046152266271 
1824	 0.573268865859003 
1825	 0.579793724234351 
1826	 0.610787866796241 
1827	 0.624405534212414 
1828	 0.634153769330758 
1829	 0.646620839986059 
1830	 0.654856189250102 
1831	 0.620629884171162 
1832	 0.617681924236919 
1833	 0.673303928710459 
1834	 0.6777356713544 
1835	 0.611901675843712 
1836	 0.594603510792832 
1837	 0.537209153316284 
1838	 0.529857664816977 
1839	 0.565998199820289 
1840	 0.747163214860676 
1841	 0.799325184850754 
1842	 0.835536755246412 
1843	 0.822336485727167 
1844	 0.71322857453092 
1845	 0.668154092757997 
1846	 0.640486011436985 
1847	 0.579328299025269 
1848	 0.508194469311377 
1849	 0.396537515737438 
1850	 0.385258327568239 
1851	 0.395269631975502 
1852	 0.420961667678588 
1853	 0.587767254082032 
1854	 0.610751874800149 
1855	 0.542182714733669 
1856	 0.51149730892458 
1857	 0.441822331448008 
1858	 0.390640002483262 
1859	 0.400517516979325 
1860	 0.462820108290011 
1861	 0.472238036883304 
1862	 0.502373756399273 
1863	 0.50913578919527 
1864	 0.463628034882424 
1865	 0.453712853819678 
1866	 0.451435323061957 
1867	 0.480480835757065 
1868	 0.490001582730564 
1869	 0.531402746502605 
1870	 0.546103809373488 
1871	 0.592504009614241 
1872	 0.537956234651715 
1873	 0.408233558428064 
1874	 0.335073088171888 
1875	 0.236809831704513 
1876	 0.194624315516061 
1877	 0.177224801578957 
1878	 0.200825878462915 
1879	 0.225996357544893 
1880	 0.255191864055872 
1881	 0.254314229325401 
1882	 0.260917898549753 
1883	 0.243520715110516 
1884	 0.179710974915108 
1885	 0.166473992097629 
1886	 0.167327480420797 
1887	 0.171420859763026 
1888	 0.199722967481104 
1889	 0.197889409328204 
1890	 0.200615514684517 
1891	 0.199426017131769 
1892	 0.195296362654166 
1893	 0.168123091142919 
1894	 0.180328911909262 
1895	 0.21978690755812 
1896	 0.244414803016027 
1897	 0.298556774214571 
1898	 0.372794004495329 
1899	 0.432999962823823 
1900	 0.418119735879863 
1901	 0.378748335469461 
1902	 0.239670305592955 
1903	 0.18950070779259 
1904	 0.111004117189087 
1905	 8.59794440303183E-02 
1906	 0.174934316566202 
1907	 0.228029759490715 
1908	 0.215404097415489 
1909	 0.219201001112277 
1910	 0.239626133165317 
1911	 0.276448254079668 
1912	 0.250663914675068 
1913	 0.207911832029413 
1914	 0.177209617594976 
1915	 0.117551535677722 
1916	 9.22612449384017E-02 
1917	 7.72593254484385E-02 
1918	 9.01074478859771E-02 
1919	 8.52841190922757E-02 
1920	 9.36676261786792E-02 
1921	 0.112139618316338 
1922	 0.119199334387101 
1923	 0.122718324248207 
1924	 0.127740408811997 
1925	 0.124033333966934 
1926	 0.107314357608807 
1927	 0.103220948318767 
1928	 0.100883131057763 
1929	 9.90853287872509E-02 
1930	 0.102609674485996 
1931	 9.90107383359575E-02 
1932	 9.04355955881462E-02 
1933	 7.68025338993119E-02 
1934	 7.12285678602507E-02 
1935	 6.85339812758215E-02 
1936	 6.79972865112787E-02 
1937	 7.23335705493645E-02 
1938	 7.34397508688386E-02 
1939	 7.62370443011128E-02 
1940	 7.17215427722189E-02 
1941	 6.53644540034781E-02 
1942	 0.064190891959384 
1943	 6.51960555437458E-02 
1944	 6.58052283353723E-02 
1945	 7.13718171697622E-02 
1946	 7.40604942871431E-02 
1947	 7.44074973816917E-02 
1948	 7.27026077408829E-02 
1949	 7.15871639804142E-02 
1950	 6.82954673355212E-02 
1951	 6.49271545108949E-02 
1952	 0.067686175873866 
1953	 6.93802275558271E-02 
1954	 7.39789030786997E-02 
1955	 7.97880735667107E-02 
1956	 7.90018347300925E-02 
1957	 8.15912623495548E-02 
1958	 8.31395627181274E-02 
1959	 8.28160063898912E-02 
1960	 8.34918313379796E-02 
1961	 0.086130053540342 
1962	 8.56243890488093E-02 
1963	 8.40507162851789E-02 
1964	 0.084030055244574 
1965	 8.38441649325308E-02 
1966	 8.29649390127275E-02 
1967	 8.39646994311701E-02 
1968	 0.084597291545901 
1969	 8.43114634060302E-02 
1970	 8.36600462465878E-02 
1971	 8.37374141464943E-02 
1972	 8.31232650494062E-02 
1973	 8.31951837099186E-02 
1974	 8.44853507640598E-02 
1975	 8.55828583884956E-02 
1976	 8.64119330035692E-02 
1977	 8.71044782286871E-02 
1978	 8.86422224054189E-02 
1979	 0.091082084093573 
1980	 9.35941780741172E-02 
1981	 9.56509229964975E-02 
1982	 0.097394960425272 
1983	 9.90386468849482E-02 
1984	 9.95249649092068E-02 
1985	 0.100159921705411 
1986	 0.102099959228561 
1987	 0.104169793902831 
1988	 0.105818487587412 
1989	 0.106582873054857 
1990	 0.10614407826406 
1991	 0.104681509977517 
1992	 0.104285187873987 
1993	 0.106320339926763 
1994	 0.109086493346484 
1995	 0.111562476077026 
1996	 0.115484291303452 
1997	 0.118990644910885 
1998	 0.121344712729931 
1999	 0.122620327776917 
2000	 0.123753375937164 
2001	 0.126701706936454 
2002	 0.12755428052141 
2003	 0.126269531545348 
2004	 0.127526085893999 
2005	 0.130391282836324 
2006	 0.132873334132523 
2007	 0.135393004694015 
2008	 0.139777355446319 
2009	 0.144188615171902 
2010	 0.146431870126732 
2011	 0.147194164571936 
2012	 0.148937679960999 
2013	 0.149750991466114 
2014	 0.14771358566551 
2015	 0.147733543866314 
2016	 0.151742663560551 
2017	 0.155908513219435 
2018	 0.15772642185556 
2019	 0.159673122751998 
2020	 0.161489665180892 
2021	 0.162132563868134 
2022	 0.161664248807976 
2023	 0.164414620575431 
2024	 0.168212880678507 
2025	 0.170174667399591 
2026	 0.173140947381442 
2027	 0.175404271131453 
2028	 0.175945052628759 
2029	 0.177300656155632 
2030	 0.178611966412194 
2031	 0.179613623248536 
2032	 0.180900494348628 
2033	 0.182442295620934 
2034	 0.183944701868338 
2035	 0.185710532698687 
2036	 0.188191873700119 
2037	 0.190706434887724 
2038	 0.192147385782846 
2039	 0.193156169327561 
2040	 0.194489947617676 
2041	 0.196705760304869 
2042	 0.199308293177414 
2043	 0.201987621586322 
2044	 0.203397460124444 
2045	 0.204416654881037 
2046	 0.204204091252209 
2047	 0.204365099729018 
2048	 0.20493652682048 
2049	 0.20749978109469 
2050	 0.209281884947193 
2051	 0.211694908725023 
2052	 0.214901974801635 
2053	 0.215610778598427 
2054	 0.217089424555173 
2055	 0.218064224221813 
2056	 0.219142980110942 
2057	 0.221328905150248 
2058	 0.223540157381772 
2059	 0.225932243188641 
2060	 0.22907453555943 
2061	 0.23090463295018 
2062	 0.232689739171888 
2063	 0.234784774548894 
2064	 0.23585750924407 
2065	 0.237994200807834 
2066	 0.239129138266209 
2067	 0.239274712724677 
2068	 0.241908580038593 
2069	 0.243742794621949 
2070	 0.245540652889508 
2071	 0.24825750813451 
2072	 0.250134910298512 
2073	 0.251139660876408 
2074	 0.252563643112901 
2075	 0.253464410612759 
2076	 0.253751891777663 
2077	 0.254850229065749 
2078	 0.255830514052719 
2079	 0.257523802992173 
2080	 0.260271183427312 
2081	 0.262651521574643 
2082	 0.263864646129075 
2083	 0.264427443202434 
2084	 0.265943793943718 
2085	 0.268091589618596 
2086	 0.269633265112801 
2087	 0.271079004905127 
2088	 0.272739978045421 
2089	 0.274388510586767 
2090	 0.275423928205958 
2091	 0.276776318727273 
2092	 0.278290557769455 
2093	 0.278998217156867 
2094	 0.280205265306562 
2095	 0.281533964985713 
2096	 0.282230841134892 
2097	 0.283329170391724 
2098	 0.283770256649487 
2099	 0.283917101018209 
2100	 0.285442371419823 
2101	 0.286757305421551 
2102	 0.288051752030546 
2103	 0.28940056098223 
2104	 0.290808178995404 
2105	 0.291677229852028 
2106	 0.293539819808646 
2107	 0.295887867974854 
2108	 0.296051526165282 
2109	 0.295861619999038 
2110	 0.297198820228891 
2111	 0.297792153360422 
2112	 0.299463693211728 
2113	 0.301921081103934 
2114	 0.302864873210289 
2115	 0.303106709930211 
2116	 0.30422251405131 
2117	 0.305457433888243 
2118	 0.307154534546771 
2119	 0.308501821996226 
2120	 0.310044309257928 
2121	 0.31102988103623 
2122	 0.311897499486465 
2123	 0.313248059106561 
2124	 0.314446883899589 
2125	 0.31545082527003 
2126	 0.316129460362099 
2127	 0.316809276649299 
2128	 0.317899717718657 
2129	 0.319674080498968 
2130	 0.321423127703875 
2131	 0.323066384917081 
2132	 0.324160755218197 
2133	 0.323538478024557 
2134	 0.323431638759411 
2135	 0.323013933736671 
2136	 0.323014906196329 
2137	 0.32280153434793 
2138	 0.323820524209175 
2139	 0.324772937138634 
2140	 0.324890391160546 
2141	 0.32553426241341 
2142	 0.326226644731873 
2143	 0.327985632815674 
2144	 0.331235575685197 
2145	 0.334007339900465 
2146	 0.33645409301847 
2147	 0.338243627571635 
2148	 0.338185303608204 
2149	 0.33685126709438 
2150	 0.336476295098607 
2151	 0.337139492526898 
2152	 0.338724921621441 
2153	 0.339692778499203 
2154	 0.341770843502593 
2155	 0.342781575932332 
2156	 0.343109433773408 
2157	 0.34301457261431 
2158	 0.343179910972878 
2159	 0.344778496594472 
2160	 0.345564280267716 
2161	 0.345990442860617 
2162	 0.34816224501888 
2163	 0.349718457643486 
2164	 0.351350823324229 
2165	 0.353230480732261 
2166	 0.354649753924883 
2167	 0.356402587978186 
2168	 0.358115865570856 
2169	 0.360958159483254 
2170	 0.362238384903488 
2171	 0.362812334685926 
2172	 0.362281723564236 
2173	 0.362893006978933 
2174	 0.361991023040366 
2175	 0.361935467937273 
2176	 0.364199294989521 
2177	 0.364961661148437 
2178	 0.365500507830549 
2179	 0.367283198524211 
2180	 0.367052238264172 
2181	 0.366152194661818 
2182	 0.366632584172544 
2183	 0.366786710212265 
2184	 0.367407442678641 
2185	 0.369120675619018 
2186	 0.370746827766016 
2187	 0.372154705043184 
2188	 0.373844631551494 
2189	 0.374587042666238 
2190	 0.374829861827832 
2191	 0.374844799048453 
2192	 0.374964797994846 
2193	 0.375606588533632 
2194	 0.377951755093845 
2195	 0.381247594250525 
2196	 0.382938083965872 
2197	 0.384305826287377 
2198	 0.385141614406764 
2199	 0.384374636028341 
2200	 0.38465625902508 
2201	 0.386035098743285 
2202	 0.386318266078769 
2203	 0.385547420697227 
2204	 0.385402890640864 
2205	 0.384828339741119 
2206	 0.384693205862391 
2207	 0.387108381558283 
2208	 0.389125707809408 
2209	 0.391892208980288 
2210	 0.392592491971817 
2211	 0.392819602290602 
2212	 0.39361357940179 
2213	 0.390807116110011 
2214	 0.388911552070728 
2215	 0.389218093624172 
2216	 0.387357541826462 
2217	 0.38644322492462 
2218	 0.388768592443329 
2219	 0.391249872600338 
2220	 0.391310906343769 
2221	 0.392429226450802 
2222	 0.393898801864116 
2223	 0.391733935850089 
2224	 0.391279677212682 
2225	 0.392092340409594 
2226	 0.390538965195161 
2227	 0.391282563405946 
2228	 0.393497642024488 
2229	 0.393645877699563 
2230	 0.392980324037262 
2231	 0.393208362212868 
2232	 0.393610041371719 
2233	 0.393229527110629 
2234	 0.392942273819065 
2235	 0.393134159267968 
2236	 0.391403069109424 
2237	 0.388431738567774 
2238	 0.38664347699676 
2239	 0.386602511865077 
2240	 0.386358152933412 
2241	 0.387227310292196 
2242	 0.389249909928244 
2243	 0.388545678229092 
2244	 0.387660505252029 
2245	 0.387030327690947 
2246	 0.384273346944775 
2247	 0.382302851465934 
2248	 0.381104168220158 
2249	 0.37879699588496 
2250	 0.376043048777537 
2251	 0.373094149135324 
2252	 0.370031135122282 
2253	 0.36772596104532 
2254	 0.368019808820608 
2255	 0.370434465417079 
2256	 0.370338145149394 
2257	 0.370446509190475 
2258	 0.368341265920213 
2259	 0.364324166619391 
2260	 0.359367026720604 
2261	 0.357249349448135 
2262	 0.358665407429346 
2263	 0.360452038759359 
2264	 0.359087854004281 
2265	 0.354780980209759 
2266	 0.351960410240744 
2267	 0.349252198298951 
2268	 0.348487197092543 
2269	 0.350835991846416 
2270	 0.350837880910074 
2271	 0.348652860686444 
2272	 0.344484359944567 
2273	 0.341858757810035 
2274	 0.341998972268941 
2275	 0.342876838802799 
2276	 0.345008837548358 
2277	 0.345838619147976 
2278	 0.342901017119552 
2279	 0.338264678235155 
2280	 0.335984775953755 
2281	 0.334340765894578 
2282	 0.333147161005772 
2283	 0.331636988280221 
2284	 0.327169803071058 
2285	 0.323970793768124 
2286	 0.322501174211993 
2287	 0.322426040919828 
2288	 0.321258370999104 
2289	 0.320664530996845 
2290	 0.323375050103683 
2291	 0.323149818801931 
2292	 0.322242692109803 
2293	 0.32746195198787 
2294	 0.325207836988826 
2295	 0.318736125723211 
2296	 0.319089091366874 
2297	 0.315933981808015 
2298	 0.313815648739853 
2299	 0.316642221291056 
2300	 0.315179015579842 
2301	 0.311769230081851 
2302	 0.308365385406024 
2303	 0.303104282614742 
2304	 0.298794657528741 
2305	 0.29437690971114 
2306	 0.292546629703104 
2307	 0.294637601997239 
2308	 0.294549309919906 
2309	 0.294946990206167 
2310	 0.293590222630044 
2311	 0.288720943786914 
2312	 0.285412091447855 
2313	 0.286579621466245 
2314	 0.287595598459897 
2315	 0.282871427901389 
2316	 0.283254448253643 
2317	 0.284160087947074 
2318	 0.281485153776048 
2319	 0.283415826819259 
2320	 0.28557590073643 
2321	 0.287106039582695 
2322	 0.287711727815377 
2323	 0.286799783197902 
2324	 0.2865194252782 
2325	 0.284694914833591 
2326	 0.276160622763557 
2327	 0.27178652284648 
2328	 0.272399977476849 
2329	 0.26983869073502 
2330	 0.266730674901852 
2331	 0.26333475913418 
2332	 0.257340929498571 
2333	 0.252872167031004 
2334	 0.25696796165466 
2335	 0.264948186516296 
2336	 0.265575222312451 
2337	 0.266401312867243 
2338	 0.262984896598638 
2339	 0.253739508032119 
2340	 0.256757971385764 
2341	 0.25411141463983 
2342	 0.245316471246944 
2343	 0.244268941409366 
2344	 0.238882614143248 
2345	 0.237488969088853 
2346	 0.242654897627143 
2347	 0.247060860874476 
2348	 0.24922288221298 
2349	 0.248347336337823 
2350	 0.249354167870327 
2351	 0.248239634463549 
2352	 0.245009974512095 
2353	 0.244811934260244 
2354	 0.242867703001751 
2355	 0.242113161534331 
2356	 0.245883918291847 
2357	 0.245782369656525 
2358	 0.240230862933946 
2359	 0.233574474795977 
2360	 0.226974563704014 
2361	 0.225123006312275 
2362	 0.226795729295582 
2363	 0.22716706346393 
2364	 0.225444517787398 
2365	 0.217784285082161 
2366	 0.21313523935594 
2367	 0.212151833599757 
2368	 0.212625225677608 
2369	 0.220816505097883 
2370	 0.223991813987837 
2371	 0.219926958599603 
2372	 0.214164934215252 
2373	 0.196131163742789 
2374	 0.193572279937806 
2375	 0.200485955548435 
2376	 0.200029751631235 
2377	 0.2037600514596 
2378	 0.204930727595916 
2379	 0.197550322801265 
2380	 0.197405258475274 
2381	 0.208951701250721 
2382	 0.209175769943751 
2383	 0.199300314749009 
2384	 0.197469578769155 
2385	 0.195812804550156 
2386	 0.192584141628206 
2387	 0.192336520482389 
2388	 0.194412249758949 
2389	 0.197243818824631 
2390	 0.197800279087428 
2391	 0.202697576403667 
2392	 0.201857082639166 
2393	 0.192437720485735 
2394	 0.184954699560186 
2395	 0.17487585494767 
2396	 0.17176925132982 
2397	 0.175428778682772 
2398	 0.173266752573021 
2399	 0.169706888912881 
2400	 0.168647833564748 
2401	 0.165679223183828 
2402	 0.15986329608441 
2403	 0.164508678684414 
2404	 0.174881711500233 
2405	 0.170839827423928 
2406	 0.16604112564149 
2407	 0.163565278001045 
2408	 0.164829859300242 
2409	 0.172426269634254 
2410	 0.173420998019477 
2411	 0.179111173152158 
2412	 0.175383203164953 
2413	 0.165308335447964 
2414	 0.176273442692201 
2415	 0.182351480720634 
2416	 0.186765925447211 
2417	 0.200446804837655 
2418	 0.19783416485718 
2419	 0.189298026523396 
2420	 0.177083101600508 
2421	 0.162384113429688 
2422	 0.167527255868673 
2423	 0.168721158491627 
2424	 0.159429967165766 
2425	 0.159648126053346 
2426	 0.154930070770248 
2427	 0.150035805466526 
2428	 0.162007466959424 
2429	 0.164731481775689 
2430	 0.15337797760564 
2431	 0.148823991914279 
2432	 0.133121806304942 
2433	 0.135257296626828 
2434	 0.134358314656331 
2435	 0.138671807641526 
2436	 0.136252922130458 
2437	 0.11561889873486 
2438	 0.113308364461165 
2439	 0.12300011931588 
2440	 0.12375217142435 
2441	 0.13982549084498 
2442	 0.139050141130821 
2443	 0.108789474118691 
2444	 9.77377608842734E-02 
2445	 9.78662191487509E-02 
2446	 8.83879186109562E-02 
2447	 8.06322296270428E-02 
2448	 7.56519640931037E-02 
2449	 5.32678534202847E-02 
2450	 4.79237335764579E-02 
2451	 0.060626991593672 
2452	 0.076405495441911 
2453	 0.105423975999247 
2454	 0.128255901828947 
2455	 0.154967245738834 
2456	 0.169948232285182 
2457	 0.18977585350966 
2458	 0.176278512380458 
2459	 0.130786398715316 
2460	 0.118140556386655 
2461	 8.68972437618515E-02 
2462	 7.82398730059884E-02 
2463	 0.120351577547344 
2464	 0.13375226462862 
2465	 0.127641559758542 
2466	 0.120187789963904 
2467	 0.103700066156302 
2468	 9.81166574208105E-02 
2469	 0.091524944266946 
2470	 9.73918038587244E-02 
2471	 0.134561582376674 
2472	 0.111524639190299 
2473	 4.48287796669887E-02 
2474	 4.01517377059903E-02 
2475	 1.53663672505954E-02 
2476	 3.02230415781031E-02 
2477	 0.153717005595473 
2478	 0.196365985875357 
2479	 0.216771044477775 
2480	 0.216790814271603 
2481	 0.128022416520062 
2482	 0.151264653977091 
2483	 0.242582550566725 
2484	 0.231831695924665 
2485	 0.247363134402059 
2486	 0.126170727484083 
2487	 4.68913732297587E-02 
2488	 0.189704316144802 
2489	 0.41209777222271 
2490	 0.491774290242299 
2491	 0.618955120906526 
2492	 0.531713490045613 
2493	 0.446553961954219 
2494	 0.460763944025273 
2495	 0.398725464704927 
2496	 0.357308508448426 
2497	 0.108057896889765 
2498	-4.98861933901414E-02 
2499	 0.151402971191978 
2500	 0.482216404448777 
