Wavelength	ref00069.asd
350	 1.54972615301247E-02 
351	 1.54650917829648E-02 
352	 1.51289855335616E-02 
353	 0.015493552917599 
354	 1.59632511049734E-02 
355	 1.57036867688586E-02 
356	 0.014856576542409 
357	 1.56857972091096E-02 
358	 1.56710391667916E-02 
359	 1.50381885615766E-02 
360	 1.48119777490428E-02 
361	 1.55137512771051E-02 
362	 1.55164548447027E-02 
363	 1.49200432671825E-02 
364	 1.49099576984154E-02 
365	 1.49688822386606E-02 
366	 1.48922497665299E-02 
367	 1.46645508941028E-02 
368	 1.44620710055297E-02 
369	 0.014789623354882 
370	 1.51206372916443E-02 
371	 1.49771357124763E-02 
372	 1.48250605376201E-02 
373	 1.44094020420257E-02 
374	 1.40189348241104E-02 
375	 1.41589735235518E-02 
376	 1.47861692524201E-02 
377	 1.49749729535286E-02 
378	 0.014641115279598 
379	 1.47557277485221E-02 
380	 1.45732857759102E-02 
381	 1.47015452285347E-02 
382	 1.53897429276767E-02 
383	 1.51772144243981E-02 
384	 1.51012620900394E-02 
385	 1.50771205569953E-02 
386	 1.47391843552754E-02 
387	 1.52633909780465E-02 
388	 1.55928820827047E-02 
389	 1.54977524992254E-02 
390	 1.57427238246013E-02 
391	 0.015874640836533 
392	 1.60836911624898E-02 
393	 1.64133648731968E-02 
394	 0.016286170149085 
395	 1.65140947860071E-02 
396	 1.68600278053665E-02 
397	 1.68779742922869E-02 
398	 1.71278006338243E-02 
399	 1.71377030736765E-02 
400	 1.71250586013848E-02 
401	 1.77903818855377E-02 
402	 1.77601807406684E-02 
403	 1.78579830601329E-02 
404	 1.85414569604613E-02 
405	 1.89159491593777E-02 
406	 1.90778784652711E-02 
407	 1.91484578171093E-02 
408	 1.92731554702472E-02 
409	 1.95072683876498E-02 
410	 1.96683679033985E-02 
411	 1.98812201057114E-02 
412	 2.04838632058094E-02 
413	 0.020751870489383 
414	 2.08782051710224E-02 
415	 2.10791025097067E-02 
416	 2.12776463862336E-02 
417	 2.16968844318888E-02 
418	 2.19159954397199E-02 
419	 2.16084807798672E-02 
420	 2.20288698188593E-02 
421	 2.25261230585305E-02 
422	 2.28330100391808E-02 
423	 2.31023870983674E-02 
424	 2.32888833451489E-02 
425	 0.023356596943224 
426	 2.33525829748582E-02 
427	 2.34726352998787E-02 
428	 0.023903505509895 
429	 2.41775251301288E-02 
430	 2.39112447755478E-02 
431	 2.44313755765383E-02 
432	 2.46694257601014E-02 
433	 2.44557817331353E-02 
434	 2.44934306576169E-02 
435	 2.49213429916074E-02 
436	 2.51973131321586E-02 
437	 2.50957053581864E-02 
438	 2.52425059205551E-02 
439	 2.55421767895336E-02 
440	 2.58343326398546E-02 
441	 2.59807989521309E-02 
442	 2.61778864759748E-02 
443	 2.64055437250905E-02 
444	 2.66495578897798E-02 
445	 2.69136551854127E-02 
446	 2.71769295685233E-02 
447	 2.74615292353086E-02 
448	 2.77774699161798E-02 
449	 2.80987082410235E-02 
450	 2.83117149743735E-02 
451	 2.84934354639581E-02 
452	 2.87740715694966E-02 
453	 2.90379150725904E-02 
454	 0.029263418926832 
455	 2.94448284363925E-02 
456	 2.95875733754477E-02 
457	 2.98290993586398E-02 
458	 3.00178873052729E-02 
459	 3.00680452373086E-02 
460	 3.03002983648809E-02 
461	 3.04358515002032E-02 
462	 3.04572886109666E-02 
463	 3.04924584860177E-02 
464	 3.05530066592789E-02 
465	 3.06940117006356E-02 
466	 0.03089301810244 
467	 3.10143963276107E-02 
468	 3.10597055239344E-02 
469	 3.10751667415463E-02 
470	 3.11272765993751E-02 
471	 3.12887367868126E-02 
472	 3.14592492330925E-02 
473	 3.15975056958981E-02 
474	 0.031711184142959 
475	 3.18259689869594E-02 
476	 3.18436518756731E-02 
477	 3.18172437229041E-02 
478	 0.032131220825161 
479	 3.22760165536534E-02 
480	 3.23533634493698E-02 
481	 3.25782238598172E-02 
482	 0.032593856758464 
483	 3.26520176717531E-02 
484	 3.28635450081798E-02 
485	 3.31582155365185E-02 
486	 3.32825485262308E-02 
487	 3.33378792311061E-02 
488	 3.34798480424879E-02 
489	 3.37905657099976E-02 
490	 3.42270675495463E-02 
491	 0.034584603202943 
492	 3.46924467323785E-02 
493	 3.50137592759145E-02 
494	 3.55052990850109E-02 
495	 3.60694584564623E-02 
496	 3.65970164246613E-02 
497	 3.71184209880645E-02 
498	 3.77368545227044E-02 
499	 3.84893392431685E-02 
500	 3.91160184775159E-02 
501	 0.039913443715932 
502	 4.08764528343465E-02 
503	 0.041817594598185 
504	 4.28002655164055E-02 
505	 4.37666797451196E-02 
506	 4.47373543815021E-02 
507	 4.58693864285958E-02 
508	 4.72181518866912E-02 
509	 4.86164288058359E-02 
510	 0.049919971740901 
511	 5.14210444753381E-02 
512	 5.30897672002156E-02 
513	 5.47970841990964E-02 
514	 5.63680550119578E-02 
515	 5.81382625142602E-02 
516	 6.01053836198086E-02 
517	 6.21782106859664E-02 
518	 6.42519456746176E-02 
519	 0.066325097019658 
520	 6.83126235973936E-02 
521	 7.01638538691111E-02 
522	 7.21253523565062E-02 
523	 7.40777088297094E-02 
524	 0.075972664287534 
525	 7.78455324922956E-02 
526	 7.98624083978868E-02 
527	 8.18060618713832E-02 
528	 8.34695580685705E-02 
529	 0.084927278566088 
530	 8.63544246786475E-02 
531	 8.77285047336659E-02 
532	 8.89434653645688E-02 
533	 9.02341983773307E-02 
534	 9.14237800081004E-02 
535	 9.24083419392591E-02 
536	 9.32845285422764E-02 
537	 9.41500361121653E-02 
538	 9.49855724096361E-02 
539	 0.095757888989113 
540	 9.65803087140765E-02 
541	 9.73950879550936E-02 
542	 9.81063326995623E-02 
543	 9.86170667808291E-02 
544	 9.92506639890064E-02 
545	 9.99043134745185E-02 
546	 0.10046674108089 
547	 0.100970332699046 
548	 0.101504824604571 
549	 0.101999983144384 
550	 0.102346831246717 
551	 0.102678484469218 
552	 0.102927903429558 
553	 0.103022810198175 
554	 0.10290428651612 
555	 0.102712181511169 
556	 0.102526402817892 
557	 0.102335826324937 
558	 0.101893358521665 
559	 0.101382349509748 
560	 0.10082706026205 
561	 0.100161305557464 
562	 9.95746119256713E-02 
563	 9.88854375611723E-02 
564	 9.80369605122791E-02 
565	 0.097280915256271 
566	 0.096515718254637 
567	 9.56555204964545E-02 
568	 9.46403996160299E-02 
569	 9.35214929738205E-02 
570	 9.23804856129583E-02 
571	 9.12656749488961E-02 
572	 9.01820260333267E-02 
573	 8.90354961126409E-02 
574	 8.79593002882886E-02 
575	 0.087016594570094 
576	 0.086003672759975 
577	 8.51273569256628E-02 
578	 8.43703685260803E-02 
579	 8.36096521655486E-02 
580	 8.28382579311808E-02 
581	 8.21041224399588E-02 
582	 8.14121972601205E-02 
583	 0.080701082282876 
584	 8.00595376420045E-02 
585	 7.95199810993367E-02 
586	 7.90785034485619E-02 
587	 7.86474199995063E-02 
588	 0.078327569806775 
589	 0.078046308238038 
590	 7.76275840881061E-02 
591	 7.72514080639833E-02 
592	 7.68672751045847E-02 
593	 7.64819678294333E-02 
594	 7.63029720380824E-02 
595	 7.60262048916658E-02 
596	 7.56716694626836E-02 
597	 7.53583753512359E-02 
598	 7.50976724488998E-02 
599	 7.48228141431591E-02 
600	 7.45409264124766E-02 
601	 7.43288653909221E-02 
602	 0.073990174096306 
603	 7.36437667859468E-02 
604	 7.33513030538865E-02 
605	 7.28306335174104E-02 
606	 7.23886187739917E-02 
607	 7.19626975935348E-02 
608	 7.13552680568812E-02 
609	 7.08358050565091E-02 
610	 7.02493556522855E-02 
611	 6.95975210400095E-02 
612	 6.91483135442834E-02 
613	 6.85857206855735E-02 
614	 6.79275394719475E-02 
615	 6.72762519828696E-02 
616	 6.66678071215099E-02 
617	 6.60789210225813E-02 
618	 0.065564275500248 
619	 6.51985731477545E-02 
620	 6.47760519730241E-02 
621	 6.44109961521741E-02 
622	 6.41644420186885E-02 
623	 6.39097360943496E-02 
624	 6.36878683977327E-02 
625	 6.35342031028536E-02 
626	 6.34677729356109E-02 
627	 6.34287641174026E-02 
628	 0.063400955790722 
629	 6.33814276087737E-02 
630	 6.33742220455678E-02 
631	 6.32827854147066E-02 
632	 6.31347730464384E-02 
633	 6.29753822799959E-02 
634	 6.28402631378868E-02 
635	 6.25513944456041E-02 
636	 0.062101207262481 
637	 6.15642011162083E-02 
638	 6.09327825502008E-02 
639	 6.02206040386747E-02 
640	 5.94531489413303E-02 
641	 5.86887933202371E-02 
642	 5.77708619032616E-02 
643	 5.68643431756435E-02 
644	 5.60877380105841E-02 
645	 0.055163933869454 
646	 5.43137264182635E-02 
647	 0.053591681983768 
648	 5.29406323009106E-02 
649	 5.23265575581028E-02 
650	 5.17989285982682E-02 
651	 5.13913176202606E-02 
652	 0.051071367546153 
653	 5.07843933227049E-02 
654	 5.04715502240166E-02 
655	 5.01020812412885E-02 
656	 4.98254516574722E-02 
657	 4.93675724755181E-02 
658	 4.87710723077412E-02 
659	 4.82332172413703E-02 
660	 4.76640678205158E-02 
661	 4.69264234644628E-02 
662	 4.60818261639891E-02 
663	 4.55502489566488E-02 
664	 0.044963975702517 
665	 4.43447583455429E-02 
666	 4.38080680459303E-02 
667	 4.32457983354794E-02 
668	 4.27863757988771E-02 
669	 4.24888124671974E-02 
670	 4.23233457771748E-02 
671	 4.21744495334669E-02 
672	 4.21033575514909E-02 
673	 4.21466514482769E-02 
674	 4.21988876324103E-02 
675	 4.23231076373868E-02 
676	 4.25248479295827E-02 
677	 4.27975626171367E-02 
678	 4.31963515219171E-02 
679	 4.36479566606447E-02 
680	 4.41948550153056E-02 
681	 4.49946716500835E-02 
682	 4.58741719597762E-02 
683	 4.69091056766399E-02 
684	 0.048210813824687 
685	 4.98443398621833E-02 
686	 5.18161523027788E-02 
687	 5.42719151137259E-02 
688	 5.70964594819055E-02 
689	 5.97214630924467E-02 
690	 6.26617234577112E-02 
691	 0.066244511803476 
692	 7.02634537187622E-02 
693	 7.48757650468871E-02 
694	 8.00171465359483E-02 
695	 8.55113437069066E-02 
696	 9.11776114386326E-02 
697	 9.69937241763814E-02 
698	 0.10311258815421 
699	 0.109673859431831 
700	 0.116412649783145 
701	 0.123076213405152 
702	 0.129610906913667 
703	 0.136176532278366 
704	 0.142609083705674 
705	 0.148951987175684 
706	 0.155319927929703 
707	 0.161710555022765 
708	 0.167979212735538 
709	 0.174181888730053 
710	 0.180416247738171 
711	 0.186675978647112 
712	 0.192979645172735 
713	 0.19929486944697 
714	 0.205541643666363 
715	 0.211812927762984 
716	 0.218267656622853 
717	 0.22511330009619 
718	 0.231993415938042 
719	 0.238813223983576 
720	 0.245026071805639 
721	 0.250316825532955 
722	 0.255402581550143 
723	 0.260933312802915 
724	 0.267066483282954 
725	 0.272725107687618 
726	 0.277990338878483 
727	 0.283001160470612 
728	 0.287964954374252 
729	 0.292733250853064 
730	 0.297142062006222 
731	 0.301208133423006 
732	 0.305023244049928 
733	 0.308383112337402 
734	 0.311675709355652 
735	 0.315033108001086 
736	 0.318245997677454 
737	 0.321354407056462 
738	 0.324236263618788 
739	 0.326858782696708 
740	 0.329284639051734 
741	 0.331565781024994 
742	 0.333673117798609 
743	 0.335570049052343 
744	 0.337429332998714 
745	 0.339090485277484 
746	 0.340555435001962 
747	 0.341947104677744 
748	 0.343193753580933 
749	 0.344281078836102 
750	 0.345288312021338 
751	 0.346442155442929 
752	 0.347261176010225 
753	 0.347894213674444 
754	 0.34858061815335 
755	 0.349185324211905 
756	 0.349704947878321 
757	 0.350162470916624 
758	 0.350662564387965 
759	 0.351749689026123 
760	 0.353835520328016 
761	 0.356317729352559 
762	 0.356037019275984 
763	 0.355532582232588 
764	 0.355303354730581 
765	 0.355098760199787 
766	 0.354255452945765 
767	 0.353945366518193 
768	 0.354018439162749 
769	 0.354055904272672 
770	 0.354165393652422 
771	 0.354362741574991 
772	 0.354573423584657 
773	 0.354665989611716 
774	 0.354756685535894 
775	 0.354933781072858 
776	 0.355176632268294 
777	 0.355293565866199 
778	 0.355442187506296 
779	 0.355604012460942 
780	 0.35573956918958 
781	 0.355920960177306 
782	 0.356048330381837 
783	 0.356223995627525 
784	 0.356587666247909 
785	 0.356736271407175 
786	 0.356945410822223 
787	 0.357253058172943 
788	 0.357400943751554 
789	 0.357687639278218 
790	 0.35800933675071 
791	 0.358243575287892 
792	 0.35838370443595 
793	 0.35861755448731 
794	 0.358877859571625 
795	 0.359056323132926 
796	 0.35925970054458 
797	 0.359433187782976 
798	 0.359619373962692 
799	 0.359896625101005 
800	 0.360145081366558 
801	 0.360426994137521 
802	 0.36071028248467 
803	 0.360855973696646 
804	 0.361082040959413 
805	 0.361260236877854 
806	 0.361322584856898 
807	 0.361451382447761 
808	 0.361761061558458 
809	 0.362122137043394 
810	 0.362403381768276 
811	 0.362812145475033 
812	 0.363421404788524 
813	 0.364164619861085 
814	 0.364877351930092 
815	 0.365427437129148 
816	 0.365933968017815 
817	 0.36632237305117 
818	 0.366328746814178 
819	 0.366241800325133 
820	 0.366056189669955 
821	 0.365988104124074 
822	 0.366714859918137 
823	 0.367055035402594 
824	 0.366944816650421 
825	 0.366686047150829 
826	 0.36651049585465 
827	 0.366770021886243 
828	 0.367231317583498 
829	 0.367441559273766 
830	 0.367393959066853 
831	 0.367429939171609 
832	 0.367597670235771 
833	 0.367707848864976 
834	 0.367744091039703 
835	 0.367715268856624 
836	 0.367701491275172 
837	 0.367839399167432 
838	 0.367893488273835 
839	 0.368022312362447 
840	 0.368299427436032 
841	 0.368490452017529 
842	 0.368555235232599 
843	 0.368637006405976 
844	 0.368862202253927 
845	 0.369113618155731 
846	 0.369248271421463 
847	 0.369344905512937 
848	 0.369537700828673 
849	 0.369639470329846 
850	 0.369803349429016 
851	 0.369953110513253 
852	 0.369924702303935 
853	 0.370394186221825 
854	 0.370942268743929 
855	 0.371176202590956 
856	 0.370953958057415 
857	 0.370839709035318 
858	 0.371043919475658 
859	 0.3714782573769 
860	 0.371725721595895 
861	 0.3720333327342 
862	 0.372244921407345 
863	 0.372257532063 
864	 0.372309605769311 
865	 0.372637007366356 
866	 0.373082191222831 
867	 0.373361436278143 
868	 0.373396389765889 
869	 0.373211950049307 
870	 0.373156565377769 
871	 0.373570945787821 
872	 0.374091998769887 
873	 0.374203116059774 
874	 0.374122241999106 
875	 0.374494554507104 
876	 0.374919994260502 
877	 0.374979473907768 
878	 0.374826359473539 
879	 0.375103980924112 
880	 0.375325748815123 
881	 0.375252776877167 
882	 0.375070504851577 
883	 0.375422469749347 
884	 0.37561667081459 
885	 0.375768921061646 
886	 0.376004632086045 
887	 0.376165625424528 
888	 0.376478700886862 
889	 0.376735973652549 
890	 0.376808619057777 
891	 0.377022965190572 
892	 0.3776114924193 
893	 0.378042606932804 
894	 0.378005800650544 
895	 0.378974051367518 
896	 0.379520256988162 
897	 0.379766068687755 
898	 0.380332939110689 
899	 0.380651040650656 
900	 0.380807761531745 
901	 0.380748603665777 
902	 0.380435189614891 
903	 0.38026107903609 
904	 0.379925268149486 
905	 0.379719119386027 
906	 0.380189585151699 
907	 0.380934181221938 
908	 0.381669166922893 
909	 0.382045123867229 
910	 0.381829845174535 
911	 0.381967884711649 
912	 0.382276294507581 
913	 0.382406574364387 
914	 0.382140334442707 
915	 0.382746485937114 
916	 0.382913020491053 
917	 0.382514023851021 
918	 0.382921152141102 
919	 0.382324022936058 
920	 0.381661101711898 
921	 0.38151315816553 
922	 0.381475573063519 
923	 0.381899234671011 
924	 0.382276291156477 
925	 0.382302007965806 
926	 0.382246437139216 
927	 0.382643800270344 
928	 0.383046112772833 
929	 0.383368768738165 
930	 0.384675308401175 
931	 0.387091013293701 
932	 0.389313765346847 
933	 0.390077515678479 
934	 0.389599110232854 
935	 0.388427616268158 
936	 0.388427119849456 
937	 0.389443485358387 
938	 0.387427381813661 
939	 0.38583978255389 
940	 0.384650424144971 
941	 0.38359560797402 
942	 0.383478102644429 
943	 0.38423971019136 
944	 0.384759454967477 
945	 0.384327133772553 
946	 0.383770325384575 
947	 0.382286383667126 
948	 0.380665315548488 
949	 0.379855448363456 
950	 0.380171941041755 
951	 0.379239211215213 
952	 0.378320080535255 
953	 0.378263965305546 
954	 0.377120252964841 
955	 0.376465346297058 
956	 0.375980584034814 
957	 0.375472892034922 
958	 0.375907984372377 
959	 0.373886370984006 
960	 0.372148199232754 
961	 0.372548242323138 
962	 0.372632911462634 
963	 0.372020637385511 
964	 0.370729191276947 
965	 0.369168795803615 
966	 0.368030521325774 
967	 0.36780321154536 
968	 0.36768041729023 
969	 0.367203289544274 
970	 0.366900796868818 
971	 0.366412204159327 
972	 0.366622872001191 
973	 0.367307399858283 
974	 0.36658958377531 
975	 0.367337378248407 
976	 0.367969980730938 
977	 0.367634042396824 
978	 0.367492291810083 
979	 0.367714757062692 
980	 0.366786448494866 
981	 0.36542860156893 
982	 0.366435003554729 
983	 0.366466681567257 
984	 0.366772936642013 
985	 0.367264625998906 
986	 0.36647057765056 
987	 0.366195378846518 
988	 0.366046961998525 
989	 0.366093487441841 
990	 0.366832608040801 
991	 0.36824584181452 
992	 0.368649660754012 
993	 0.368384416197377 
994	 0.368667291312552 
995	 0.367438579638755 
996	 0.368580152306977 
997	 0.370068722433141 
998	 0.368550157979943 
999	 0.36865942499629 
1000	 0.36870238348833 
1001	 0.376302757657424 
1002	 0.376499408581567 
1003	 0.376899531164821 
1004	 0.377587405326416 
1005	 0.377980211518999 
1006	 0.378316236320705 
1007	 0.378730894016263 
1008	 0.379046390701648 
1009	 0.379415402570999 
1010	 0.379897352817341 
1011	 0.38037414208861 
1012	 0.380738868171996 
1013	 0.381058420549835 
1014	 0.38146533872685 
1015	 0.381951094299515 
1016	 0.38244935828524 
1017	 0.382919173447049 
1018	 0.383354129181304 
1019	 0.383765962384258 
1020	 0.384165479953363 
1021	 0.384518326230868 
1022	 0.384918177437291 
1023	 0.385336851583161 
1024	 0.385733731779355 
1025	 0.386162700216982 
1026	 0.38650684442728 
1027	 0.386811752859288 
1028	 0.387088251307481 
1029	 0.387437325586198 
1030	 0.387953852996453 
1031	 0.388413839532399 
1032	 0.38890433568557 
1033	 0.389276447524947 
1034	 0.389435531080671 
1035	 0.38972621631243 
1036	 0.39008050072222 
1037	 0.390388554850609 
1038	 0.390718270704645 
1039	 0.39110063825925 
1040	 0.391325674547161 
1041	 0.391424020080253 
1042	 0.391608938652275 
1043	 0.391838340317257 
1044	 0.392030970713235 
1045	 0.392326885544945 
1046	 0.392683330694858 
1047	 0.392841714507049 
1048	 0.393046379662794 
1049	 0.393372730076193 
1050	 0.393628953725211 
1051	 0.393816389769734 
1052	 0.394076385670136 
1053	 0.394312801893738 
1054	 0.394423180440993 
1055	 0.39453122600983 
1056	 0.394718680455241 
1057	 0.394965245100823 
1058	 0.395272335871632 
1059	 0.395550366078243 
1060	 0.395794974334586 
1061	 0.396066917902841 
1062	 0.396225890059757 
1063	 0.396309531642129 
1064	 0.396500018252197 
1065	 0.396721985658276 
1066	 0.396982395411293 
1067	 0.397214398316572 
1068	 0.39745356087341 
1069	 0.397658699248988 
1070	 0.397844755829226 
1071	 0.39803288394578 
1072	 0.39816594210084 
1073	 0.398356821423009 
1074	 0.398582254534205 
1075	 0.398715224276498 
1076	 0.398918456161987 
1077	 0.399103818849523 
1078	 0.399122654027523 
1079	 0.399174681114709 
1080	 0.399334842513867 
1081	 0.399496972991903 
1082	 0.399680574002224 
1083	 0.3998644672423 
1084	 0.400083561550253 
1085	 0.400270137689751 
1086	 0.400364901281627 
1087	 0.400455394857152 
1088	 0.4005480849016 
1089	 0.400600292967873 
1090	 0.400726038940719 
1091	 0.400879495449735 
1092	 0.401161032466923 
1093	 0.401479670908907 
1094	 0.401549255397803 
1095	 0.401640293431742 
1096	 0.401764553482511 
1097	 0.401711369068357 
1098	 0.401823452866895 
1099	 0.402060305202989 
1100	 0.402413416423333 
1101	 0.402677947126167 
1102	 0.402846075107653 
1103	 0.402987213445938 
1104	 0.403046367691309 
1105	 0.40317791327649 
1106	 0.403453411677493 
1107	 0.403806920177167 
1108	 0.404293739380862 
1109	 0.404772972042099 
1110	 0.405129347783989 
1111	 0.405588561907261 
1112	 0.406123364044263 
1113	 0.406628530228339 
1114	 0.407246597289414 
1115	 0.407889086117345 
1116	 0.408481432493051 
1117	 0.40914451060382 
1118	 0.410328509639019 
1119	 0.411221414098728 
1120	 0.412001816042452 
1121	 0.412770908501037 
1122	 0.412826405918654 
1123	 0.412592225036892 
1124	 0.412462991157994 
1125	 0.412178780545394 
1126	 0.4115133791613 
1127	 0.41061422057322 
1128	 0.40949613114836 
1129	 0.408157085817238 
1130	 0.406673818218435 
1131	 0.405047511582425 
1132	 0.403358204945688 
1133	 0.401535929527984 
1134	 0.39962486628263 
1135	 0.397734004045297 
1136	 0.396044879549618 
1137	 0.394383320330021 
1138	 0.392637135563018 
1139	 0.391094407562963 
1140	 0.389599183490697 
1141	 0.387977669368643 
1142	 0.386383869370594 
1143	 0.384663429606695 
1144	 0.38277866118368 
1145	 0.380833920624329 
1146	 0.37885121583346 
1147	 0.376834908609614 
1148	 0.37478526951694 
1149	 0.372718816628994 
1150	 0.370724770476507 
1151	 0.368765288859508 
1152	 0.366777749522706 
1153	 0.365011280470565 
1154	 0.36343209275425 
1155	 0.361855478465361 
1156	 0.360433500397283 
1157	 0.359095974015496 
1158	 0.357861851776254 
1159	 0.356806051474062 
1160	 0.355845024081832 
1161	 0.355015288312722 
1162	 0.354219979725588 
1163	 0.353470068009103 
1164	 0.352794971225887 
1165	 0.352134860557756 
1166	 0.351575244519036 
1167	 0.351103306592153 
1168	 0.350667246580582 
1169	 0.350290199083705 
1170	 0.349911601585946 
1171	 0.349672087624851 
1172	 0.349418354177939 
1173	 0.349081383273711 
1174	 0.34888950550323 
1175	 0.348721976199892 
1176	 0.348431353067095 
1177	 0.348200037971702 
1178	 0.348034987068812 
1179	 0.347852220975485 
1180	 0.347647621812599 
1181	 0.347442410122569 
1182	 0.347298391450417 
1183	 0.347071250286388 
1184	 0.346744177388196 
1185	 0.346477201215546 
1186	 0.346249436904981 
1187	 0.345993338295094 
1188	 0.345718120472841 
1189	 0.345435647096364 
1190	 0.345297642105013 
1191	 0.345069138334951 
1192	 0.344914323188104 
1193	 0.344939601160644 
1194	 0.344946686947777 
1195	 0.345028881187757 
1196	 0.344991899634887 
1197	 0.344934140955328 
1198	 0.344924830075324 
1199	 0.344827563538027 
1200	 0.34482215662108 
1201	 0.344879025197032 
1202	 0.345018172784179 
1203	 0.345217031793777 
1204	 0.345399306798375 
1205	 0.34572145948068 
1206	 0.345956310611611 
1207	 0.346077408337227 
1208	 0.346267697799166 
1209	 0.346464741553761 
1210	 0.346693295316976 
1211	 0.346967360081227 
1212	 0.34724364738307 
1213	 0.34749066586116 
1214	 0.34771221437197 
1215	 0.348002316545991 
1216	 0.348297627549954 
1217	 0.348612405479014 
1218	 0.348987422675076 
1219	 0.349353703902955 
1220	 0.349716889262074 
1221	 0.350074619741993 
1222	 0.350483791480412 
1223	 0.350840487254887 
1224	 0.351148651299115 
1225	 0.351472237659722 
1226	 0.351791467418067 
1227	 0.352091639983425 
1228	 0.35233787660779 
1229	 0.352666350891794 
1230	 0.352964459919707 
1231	 0.353273368056975 
1232	 0.353646347670325 
1233	 0.35410206485508 
1234	 0.354447353655544 
1235	 0.354815401434101 
1236	 0.355117657434227 
1237	 0.355282674595524 
1238	 0.355593149235463 
1239	 0.355979746923033 
1240	 0.35629267940887 
1241	 0.356639505091717 
1242	 0.356958422916201 
1243	 0.357187232137651 
1244	 0.357483036996579 
1245	 0.357831236502194 
1246	 0.358161594161871 
1247	 0.358574664262414 
1248	 0.358860591041369 
1249	 0.359034628027123 
1250	 0.359264524663979 
1251	 0.359466395327411 
1252	 0.359607619135292 
1253	 0.35982026200692 
1254	 0.360118656146229 
1255	 0.360343029632032 
1256	 0.360566446791514 
1257	 0.360720879059555 
1258	 0.36079781625079 
1259	 0.360968282394578 
1260	 0.361170227483814 
1261	 0.361285407634482 
1262	 0.361386402217502 
1263	 0.361530662769431 
1264	 0.361594599385369 
1265	 0.361704452860796 
1266	 0.361953337830328 
1267	 0.362107008950759 
1268	 0.362199011700921 
1269	 0.362263141897355 
1270	 0.362255804862786 
1271	 0.362298784097916 
1272	 0.362369185332216 
1273	 0.36239253472507 
1274	 0.362350239202988 
1275	 0.362298455795534 
1276	 0.362251470887888 
1277	 0.362132198798721 
1278	 0.36201992209853 
1279	 0.361945912037274 
1280	 0.361846099435508 
1281	 0.361668276443049 
1282	 0.36154362827111 
1283	 0.361492993936061 
1284	 0.361371907967512 
1285	 0.361201168386679 
1286	 0.361054261029204 
1287	 0.36095278720169 
1288	 0.360749058742958 
1289	 0.360421494725402 
1290	 0.360219943330113 
1291	 0.360094853027992 
1292	 0.359844791825609 
1293	 0.359609904029092 
1294	 0.359360632940878 
1295	 0.359025494453754 
1296	 0.358609720194743 
1297	 0.35821545008026 
1298	 0.357857173280496 
1299	 0.35747594645456 
1300	 0.357009309101484 
1301	 0.356620354922085 
1302	 0.356357588034416 
1303	 0.355906744720019 
1304	 0.355381013268531 
1305	 0.354826967419722 
1306	 0.354145731071113 
1307	 0.353522102722 
1308	 0.352929404698049 
1309	 0.352264903274304 
1310	 0.351603114129122 
1311	 0.350849478544278 
1312	 0.349974613190081 
1313	 0.349139244278845 
1314	 0.348330231396094 
1315	 0.347402913929797 
1316	 0.346406099498659 
1317	 0.345417670875387 
1318	 0.344319541155146 
1319	 0.343241800356849 
1320	 0.342163431994356 
1321	 0.34112317956244 
1322	 0.340038591815044 
1323	 0.338890681371087 
1324	 0.337766099107723 
1325	 0.336647710358447 
1326	 0.335458797646434 
1327	 0.334193020132756 
1328	 0.332957296779051 
1329	 0.331721235012744 
1330	 0.330394021118906 
1331	 0.329004032408811 
1332	 0.327674559577579 
1333	 0.326349505906625 
1334	 0.324971633090266 
1335	 0.323652923539894 
1336	 0.322283032990871 
1337	 0.320479861748381 
1338	 0.319257807956011 
1339	 0.318267111737284 
1340	 0.317406474390107 
1341	 0.317062805570418 
1342	 0.316590937730912 
1343	 0.315982341436986 
1344	 0.315620040007587 
1345	 0.315536526044356 
1346	 0.315381719912792 
1347	 0.315759525093903 
1348	 0.316539930411694 
1349	 0.317180812965858 
1350	 0.318299343474498 
1351	 0.319164597516378 
1352	 0.319676009683118 
1353	 0.320678146716091 
1354	 0.321610536653582 
1355	 0.323158469300263 
1356	 0.325069432099402 
1357	 0.328152700104224 
1358	 0.331986668562137 
1359	 0.338057968930193 
1360	 0.346483834209624 
1361	 0.354295812168479 
1362	 0.349418691359886 
1363	 0.348624123790826 
1364	 0.333493400683511 
1365	 0.325760127741385 
1366	 0.332642669323158 
1367	 0.32733337159497 
1368	 0.314301931657912 
1369	 0.313277033043233 
1370	 0.312359157506767 
1371	 0.314369650287043 
1372	 0.327463210409262 
1373	 0.329515270401197 
1374	 0.32524092508054 
1375	 0.324808698058576 
1376	 0.318135989085802 
1377	 0.312251695940414 
1378	 0.308415281276822 
1379	 0.306088839428517 
1380	 0.301420577680502 
1381	 0.297743265706825 
1382	 0.29138393445443 
1383	 0.285643399705383 
1384	 0.274762812170445 
1385	 0.260340819425011 
1386	 0.250265657172656 
1387	 0.237953112867379 
1388	 0.23277256345729 
1389	 0.234853544612115 
1390	 0.230667993657332 
1391	 0.226468217102315 
1392	 0.221288659402287 
1393	 0.212618271096357 
1394	 0.207000863883104 
1395	 0.204217121385094 
1396	 0.198816314468767 
1397	 0.192782019590087 
1398	 0.186609980254347 
1399	 0.177185469827701 
1400	 0.171687935244395 
1401	 0.169201011733183 
1402	 0.165605966605324 
1403	 0.164565530649648 
1404	 0.161228515427468 
1405	 0.156625012117055 
1406	 0.151473406472495 
1407	 0.14782805027655 
1408	 0.144437229902618 
1409	 0.14085150566911 
1410	 0.13758775869083 
1411	 0.135574078257272 
1412	 0.134003006795609 
1413	 0.131825663077994 
1414	 0.130308865613986 
1415	 0.128689956208848 
1416	 0.126257422385823 
1417	 0.124868484513156 
1418	 0.124476230703728 
1419	 0.123222975720743 
1420	 0.121953040695536 
1421	 0.120292840218678 
1422	 0.117988965638894 
1423	 0.116648790308596 
1424	 0.115319472101248 
1425	 0.114337502672647 
1426	 0.113991598264944 
1427	 0.11335139208935 
1428	 0.112604632093341 
1429	 0.111918657093428 
1430	 0.11100355201134 
1431	 0.11050401366737 
1432	 0.110152833778949 
1433	 0.109899080792974 
1434	 0.110240460989852 
1435	 0.110097450459577 
1436	 0.109796696331368 
1437	 0.109358135376586 
1438	 0.10856192221441 
1439	 0.10793503316291 
1440	 0.107075036685989 
1441	 0.106657364932493 
1442	 0.106671045114874 
1443	 0.106504385647509 
1444	 0.106325598414774 
1445	 0.106173669165275 
1446	 0.105744856282865 
1447	 0.105413572841884 
1448	 0.10508015252027 
1449	 0.104820248635494 
1450	 0.104600036626766 
1451	 0.104330208641367 
1452	 0.104186351875397 
1453	 0.104185207844187 
1454	 0.104067870193213 
1455	 0.103869102407206 
1456	 0.10383647322954 
1457	 0.103792773736685 
1458	 0.103891999533541 
1459	 0.104218961954519 
1460	 0.104358178787662 
1461	 0.104412076172301 
1462	 0.104654937865503 
1463	 0.104930683641795 
1464	 0.105233503700169 
1465	 0.105668843229668 
1466	 0.106180931475718 
1467	 0.106789944249737 
1468	 0.10728544781122 
1469	 0.107867667938406 
1470	 0.10837744070829 
1471	 0.108612744097969 
1472	 0.109013614886168 
1473	 0.109487356387892 
1474	 0.109974783234349 
1475	 0.110523759507905 
1476	 0.110973631612837 
1477	 0.111328165637285 
1478	 0.111786327693903 
1479	 0.112226738304838 
1480	 0.112680645119569 
1481	 0.113168725296802 
1482	 0.113733023066792 
1483	 0.114325580817332 
1484	 0.114886229892957 
1485	 0.115506049961843 
1486	 0.1160939048902 
1487	 0.116592407744098 
1488	 0.117147554570676 
1489	 0.117657405764396 
1490	 0.118139144321435 
1491	 0.118625571291982 
1492	 0.119138395433271 
1493	 0.119694483227172 
1494	 0.120273516971278 
1495	 0.120844207014148 
1496	 0.121417862696204 
1497	 0.122011708348524 
1498	 0.122629578577696 
1499	 0.123260991717491 
1500	 0.123891731842484 
1501	 0.124621444660321 
1502	 0.1253855085366 
1503	 0.126220163108247 
1504	 0.127232631540418 
1505	 0.128007273899219 
1506	 0.128701632708966 
1507	 0.1294452948525 
1508	 0.13003112884123 
1509	 0.13080808512494 
1510	 0.131768036822163 
1511	 0.132572890016526 
1512	 0.133367227729082 
1513	 0.134156663830028 
1514	 0.134868830148134 
1515	 0.135650057755376 
1516	 0.136512613463827 
1517	 0.137310021777185 
1518	 0.138084416764922 
1519	 0.138880535238661 
1520	 0.139664790487652 
1521	 0.140442994376369 
1522	 0.141233225244124 
1523	 0.142034395714637 
1524	 0.142826342067355 
1525	 0.143636623562487 
1526	 0.144515373459057 
1527	 0.14530086812712 
1528	 0.146000225972267 
1529	 0.146789125014686 
1530	 0.147561542782185 
1531	 0.148380726334923 
1532	 0.149375868145852 
1533	 0.150182177665619 
1534	 0.150832400847628 
1535	 0.151600560304201 
1536	 0.152324202875678 
1537	 0.153089285138023 
1538	 0.153988082793855 
1539	 0.154819031894666 
1540	 0.155607353935403 
1541	 0.156390011241882 
1542	 0.157162633048435 
1543	 0.157931685137226 
1544	 0.158667666117442 
1545	 0.159425958350405 
1546	 0.160180059673051 
1547	 0.160972023807584 
1548	 0.161846041718829 
1549	 0.16263556498968 
1550	 0.163401500227894 
1551	 0.164168389307113 
1552	 0.164841709193517 
1553	 0.165577713185046 
1554	 0.166403463257165 
1555	 0.167168824680361 
1556	 0.167947211036149 
1557	 0.168672524659469 
1558	 0.169280062018517 
1559	 0.169967712772729 
1560	 0.170667231910617 
1561	 0.171387286647688 
1562	 0.172293943854819 
1563	 0.173008636802575 
1564	 0.173552706404383 
1565	 0.174147186676074 
1566	 0.174699260908704 
1567	 0.175327054236913 
1568	 0.176018642393953 
1569	 0.176879232956711 
1570	 0.17762367742505 
1571	 0.178358647438677 
1572	 0.179018484685012 
1573	 0.179627921171172 
1574	 0.180304286002821 
1575	 0.180924544404635 
1576	 0.181602791296754 
1577	 0.182368158728524 
1578	 0.183043655230213 
1579	 0.183665581063601 
1580	 0.184293563745881 
1581	 0.184919930688984 
1582	 0.185508280261486 
1583	 0.186072325121862 
1584	 0.186604955019726 
1585	 0.187051184397483 
1586	 0.187680916677039 
1587	 0.188378949968246 
1588	 0.189025728252027 
1589	 0.189786523528913 
1590	 0.190434281723242 
1591	 0.190958314129536 
1592	 0.191590041786406 
1593	 0.192297058055698 
1594	 0.192903267226649 
1595	 0.193520935227363 
1596	 0.194017931469954 
1597	 0.194345262365462 
1598	 0.194912828265826 
1599	 0.195555491578049 
1600	 0.196092903840655 
1601	 0.196718421037224 
1602	 0.197298407251261 
1603	 0.197722836639546 
1604	 0.198287653989082 
1605	 0.199025706619276 
1606	 0.199560079292343 
1607	 0.19996905274073 
1608	 0.200483613608163 
1609	 0.200970699128196 
1610	 0.201495740962779 
1611	 0.202099821595224 
1612	 0.202620625145503 
1613	 0.203093650455117 
1614	 0.203578042375343 
1615	 0.204049002213339 
1616	 0.204523755255855 
1617	 0.205022390809864 
1618	 0.205445570231419 
1619	 0.20582231330631 
1620	 0.206219212532762 
1621	 0.20653583176709 
1622	 0.206981168300322 
1623	 0.207522750209271 
1624	 0.207998847701395 
1625	 0.208547799395275 
1626	 0.208942982041417 
1627	 0.20920829481853 
1628	 0.209585426237467 
1629	 0.209933523936188 
1630	 0.210334704378393 
1631	 0.210849625771132 
1632	 0.211235175195612 
1633	 0.211611563930119 
1634	 0.211866632238911 
1635	 0.211980281221334 
1636	 0.212224112115561 
1637	 0.212391591377312 
1638	 0.212721679204896 
1639	 0.213245477671766 
1640	 0.213605462319839 
1641	 0.213965085922505 
1642	 0.214249373528019 
1643	 0.214427162650511 
1644	 0.2146473538872 
1645	 0.214847479385939 
1646	 0.215091939224733 
1647	 0.215348994497184 
1648	 0.215621891179972 
1649	 0.215957129556092 
1650	 0.216151959021471 
1651	 0.216293770320567 
1652	 0.216433528863684 
1653	 0.216484399512199 
1654	 0.216632463258679 
1655	 0.216830434617093 
1656	 0.216967327769138 
1657	 0.217098907324858 
1658	 0.217129519507278 
1659	 0.217286161109883 
1660	 0.217362314025305 
1661	 0.217393883777621 
1662	 0.217515140040183 
1663	 0.217597212207918 
1664	 0.217609630602555 
1665	 0.217541703903863 
1666	 0.217478942693724 
1667	 0.217521477465967 
1668	 0.217585864617851 
1669	 0.217751952485419 
1670	 0.217861643948455 
1671	 0.21764884592282 
1672	 0.217489413233723 
1673	 0.217559532359824 
1674	 0.217402012746828 
1675	 0.217176521669806 
1676	 0.217134746534114 
1677	 0.216898106485062 
1678	 0.216719947280965 
1679	 0.216784823113622 
1680	 0.216674649667892 
1681	 0.21646508963055 
1682	 0.216262421629268 
1683	 0.216016962759448 
1684	 0.215602288884344 
1685	 0.215097811359655 
1686	 0.214871713944667 
1687	 0.214732151839343 
1688	 0.214556553139184 
1689	 0.214478920488316 
1690	 0.213967447126671 
1691	 0.213635087639273 
1692	 0.21345092366072 
1693	 0.213155772514987 
1694	 0.212886694104005 
1695	 0.21258790407223 
1696	 0.212145215904937 
1697	 0.211782011738557 
1698	 0.211485698202382 
1699	 0.211180705593955 
1700	 0.210969921577465 
1701	 0.210612214072848 
1702	 0.210057462295933 
1703	 0.209698154987113 
1704	 0.209338761675727 
1705	 0.209018513798166 
1706	 0.208961537453454 
1707	 0.208712573042364 
1708	 0.208354271598676 
1709	 0.207975292061326 
1710	 0.207499458238556 
1711	 0.207028392845342 
1712	 0.206489988563001 
1713	 0.206037150345985 
1714	 0.205610488273767 
1715	 0.20522252780844 
1716	 0.20492292581228 
1717	 0.204547064529514 
1718	 0.204114478831945 
1719	 0.203751999458413 
1720	 0.203434260313913 
1721	 0.203094093083485 
1722	 0.202782885114888 
1723	 0.202432760349089 
1724	 0.202014111098062 
1725	 0.201683562399859 
1726	 0.201416984647562 
1727	 0.201040362047564 
1728	 0.200609615257573 
1729	 0.200285933339552 
1730	 0.199901997545286 
1731	 0.199705968417731 
1732	 0.199627149319954 
1733	 0.199283624635452 
1734	 0.199163765493079 
1735	 0.199130320125252 
1736	 0.198689330811144 
1737	 0.198299004474695 
1738	 0.198013702655345 
1739	 0.197700428132007 
1740	 0.197439533498187 
1741	 0.197162841239262 
1742	 0.196824580931419 
1743	 0.196281658878219 
1744	 0.195796096879567 
1745	 0.195488877235207 
1746	 0.195046716458203 
1747	 0.194609443380078 
1748	 0.194151697162395 
1749	 0.193632212541733 
1750	 0.193150162272384 
1751	 0.19264169190147 
1752	 0.192193314881625 
1753	 0.191693424862353 
1754	 0.191025597981252 
1755	 0.19048804056051 
1756	 0.190109792394495 
1757	 0.189820384245567 
1758	 0.189442179571795 
1759	 0.188846442534575 
1760	 0.188487097538733 
1761	 0.188260045783929 
1762	 0.187917097825544 
1763	 0.187733441950895 
1764	 0.187470382606506 
1765	 0.187068299809724 
1766	 0.186764189776491 
1767	 0.186551478599804 
1768	 0.186155024003532 
1769	 0.185577294641614 
1770	 0.185306506927379 
1771	 0.18506732361151 
1772	 0.184942386383603 
1773	 0.185026284332614 
1774	 0.184743179113867 
1775	 0.184906735072188 
1776	 0.184892696551452 
1777	 0.184773006133454 
1778	 0.184719589514903 
1779	 0.184578017902912 
1780	 0.184388357143078 
1781	 0.184591534429132 
1782	 0.184822912660219 
1783	 0.184804771366938 
1784	 0.184717262501767 
1785	 0.184327929275757 
1786	 0.184191554581057 
1787	 0.18443853958692 
1788	 0.184639126545659 
1789	 0.184953132008183 
1790	 0.185167851318724 
1791	 0.184981864307082 
1792	 0.184926604197332 
1793	 0.185377639128266 
1794	 0.185963858633199 
1795	 0.186535045805176 
1796	 0.187381877298374 
1797	 0.188062883377251 
1798	 0.18869325492652 
1799	 0.189920502763352 
1800	 0.191223907146005 
1801	 0.194676420063619 
1802	 0.195961403226387 
1803	 0.19706973607829 
1804	 0.197224176824292 
1805	 0.198167658778269 
1806	 0.200703713632308 
1807	 0.20185896579084 
1808	 0.203007358951266 
1809	 0.201910922121198 
1810	 0.202167349341714 
1811	 0.20174046350227 
1812	 0.202168945491367 
1813	 0.202890708896227 
1814	 0.204768384797446 
1815	 0.209080514552889 
1816	 0.210967220773427 
1817	 0.214106490349722 
1818	 0.21523308683984 
1819	 0.21428793248615 
1820	 0.206555155118744 
1821	 0.205525867250754 
1822	 0.207246388667576 
1823	 0.206405087172693 
1824	 0.205392593318532 
1825	 0.208034893525422 
1826	 0.213544676485642 
1827	 0.216639047171048 
1828	 0.221149334763396 
1829	 0.238711386130574 
1830	 0.244817614116712 
1831	 0.230644624777123 
1832	 0.22785403352079 
1833	 0.22436512456282 
1834	 0.223312262301445 
1835	 0.227915736621767 
1836	 0.233441985012279 
1837	 0.248668198425803 
1838	 0.259881808516696 
1839	 0.269072562874906 
1840	 0.284161517438334 
1841	 0.276778086182944 
1842	 0.2429569573393 
1843	 0.238782101463417 
1844	 0.237057937255081 
1845	 0.231444475191409 
1846	 0.241651630582317 
1847	 0.245538835439208 
1848	 0.244867756314559 
1849	 0.216528514751581 
1850	 0.234786367016391 
1851	 0.294862872876321 
1852	 0.306035767812622 
1853	 0.336282568365834 
1854	 0.335053325370083 
1855	 0.276771563452569 
1856	 0.239703756483032 
1857	 0.210430057813282 
1858	 0.177168356494127 
1859	 0.177143568576306 
1860	 0.187599776430726 
1861	 0.191898017189013 
1862	 0.208284168081504 
1863	 0.228793114135518 
1864	 0.261809744426664 
1865	 0.271787537553725 
1866	 0.287926214140264 
1867	 0.308958648543838 
1868	 0.264588603033284 
1869	 0.240867022844029 
1870	 0.225460363885554 
1871	 0.226536499987427 
1872	 0.221852675183485 
1873	 0.231116827816705 
1874	 0.217981580281003 
1875	 0.201624662524711 
1876	 0.187039888417065 
1877	 0.172304769300609 
1878	 0.156400335598628 
1879	 0.136855470390493 
1880	 0.133802787144589 
1881	 0.13165486484701 
1882	 0.128875601316195 
1883	 0.13050294199237 
1884	 0.143822104514966 
1885	 0.144898064038134 
1886	 0.139488791255206 
1887	 0.138544815048015 
1888	 0.137773251255286 
1889	 0.131368358511543 
1890	 0.126703132914531 
1891	 0.122162733331241 
1892	 0.118626874728024 
1893	 0.112841603289043 
1894	 0.107799058392105 
1895	 0.105340776223595 
1896	 0.102105841770242 
1897	 9.52806554512139E-02 
1898	 8.90880062092021E-02 
1899	 8.22104222106895E-02 
1900	 9.72917037197707E-02 
1901	 0.108391909649829 
1902	 0.136577180501249 
1903	 0.144356755011879 
1904	 0.137282686822674 
1905	 0.12584807287012 
1906	 8.82386522937865E-02 
1907	 7.48430844025479E-02 
1908	 5.91799889698224E-02 
1909	 9.17164959541388E-02 
1910	 0.119544210507703 
1911	 0.116171134871515 
1912	 0.112058423566768 
1913	 0.105139953222718 
1914	 9.68545780363199E-02 
1915	 8.03636973163084E-02 
1916	 7.93519050931237E-02 
1917	 8.46083622970283E-02 
1918	 8.63791934167616E-02 
1919	 8.54405661213991E-02 
1920	 8.63582391806336E-02 
1921	 8.27232485088542E-02 
1922	 7.32552353279682E-02 
1923	 6.85054643596526E-02 
1924	 6.48924776750694E-02 
1925	 6.15065172963075E-02 
1926	 5.97592376031464E-02 
1927	 5.72988537812348E-02 
1928	 0.053995088594819 
1929	 5.19606131028661E-02 
1930	 5.14691548732236E-02 
1931	 0.049663976965974 
1932	 5.15858522966086E-02 
1933	 5.25635553319677E-02 
1934	 5.30467870046042E-02 
1935	 5.33985307265332E-02 
1936	 5.34954689045058E-02 
1937	 5.23455994507207E-02 
1938	 0.052941842047667 
1939	 0.05483141736112 
1940	 5.55297353516058E-02 
1941	 5.33731570539071E-02 
1942	 0.05286532461229 
1943	 0.052080273521334 
1944	 5.11068974580244E-02 
1945	 5.20327759529601E-02 
1946	 5.23668716727809E-02 
1947	 5.22641955780904E-02 
1948	 5.04032517383754E-02 
1949	 5.03491179409027E-02 
1950	 5.07144873429275E-02 
1951	 5.20679775442761E-02 
1952	 5.34548507639375E-02 
1953	 5.48663850636156E-02 
1954	 5.66821601359789E-02 
1955	 5.78758395515507E-02 
1956	 5.78269187076559E-02 
1957	 0.056667967113509 
1958	 5.62066553134374E-02 
1959	 5.48928805900868E-02 
1960	 5.45264051357898E-02 
1961	 5.46779289833457E-02 
1962	 5.56186938131891E-02 
1963	 5.54109307090635E-02 
1964	 0.055173759738382 
1965	 5.53639731121742E-02 
1966	 5.45573417077406E-02 
1967	 5.44879361103987E-02 
1968	 5.48065755621766E-02 
1969	 5.47656633745337E-02 
1970	 5.43803422248699E-02 
1971	 5.46593620354539E-02 
1972	 5.51268292125899E-02 
1973	 5.55345281023274E-02 
1974	 0.056180942395428 
1975	 5.72141493366125E-02 
1976	 5.78178078174951E-02 
1977	 5.79582650824957E-02 
1978	 5.82239350682959E-02 
1979	 5.85513573472862E-02 
1980	 5.86824847097729E-02 
1981	 5.89044995299487E-02 
1982	 5.90588848545217E-02 
1983	 0.059151738615162 
1984	 5.89959416105918E-02 
1985	 5.90981986539539E-02 
1986	 5.94180764393703E-02 
1987	 6.00819728620451E-02 
1988	 0.060540759778867 
1989	 6.07630995115279E-02 
1990	 6.08044564812435E-02 
1991	 6.05335293468066E-02 
1992	 6.06598442976526E-02 
1993	 6.11066468971418E-02 
1994	 6.19739124263692E-02 
1995	 6.25467569359175E-02 
1996	 6.32208091635153E-02 
1997	 6.33820835123018E-02 
1998	 6.34436433032176E-02 
1999	 6.30834021633017E-02 
2000	 6.32729030203565E-02 
2001	 6.42056076825117E-02 
2002	 6.53579549253446E-02 
2003	 6.63126268235316E-02 
2004	 6.65325780643037E-02 
2005	 6.69647508513099E-02 
2006	 6.73693670361553E-02 
2007	 6.74570214990742E-02 
2008	 6.77531120915876E-02 
2009	 6.88756277073376E-02 
2010	 6.94371899098436E-02 
2011	 7.03531196750698E-02 
2012	 7.20656546754482E-02 
2013	 7.20144229260953E-02 
2014	 0.071800458756073 
2015	 0.072043213854992 
2016	 7.12063788217526E-02 
2017	 7.15785725609295E-02 
2018	 7.22705561294291E-02 
2019	 7.23992357619721E-02 
2020	 7.20421747471025E-02 
2021	 7.23698652291997E-02 
2022	 7.23829981530281E-02 
2023	 7.24585628849333E-02 
2024	 7.29450140326881E-02 
2025	 7.28999819106258E-02 
2026	 7.30826322596142E-02 
2027	 7.33170459365057E-02 
2028	 0.073589873055211 
2029	 7.39749750745286E-02 
2030	 7.39827317745171E-02 
2031	 7.42292485447391E-02 
2032	 7.44395690753837E-02 
2033	 7.44988507081479E-02 
2034	 7.46279217165669E-02 
2035	 7.51378141018023E-02 
2036	 7.53700375352004E-02 
2037	 0.07544021112119 
2038	 7.54326392184694E-02 
2039	 7.52659939669342E-02 
2040	 7.52366151649069E-02 
2041	 7.54828092458376E-02 
2042	 7.58270848372174E-02 
2043	 7.62595805431446E-02 
2044	 7.64977478975096E-02 
2045	 7.68477154928672E-02 
2046	 7.70492481850604E-02 
2047	 7.77574970013988E-02 
2048	 7.84381928362728E-02 
2049	 7.89188329366574E-02 
2050	 7.94784490172739E-02 
2051	 7.95077863436302E-02 
2052	 7.91730776166065E-02 
2053	 0.079398667129164 
2054	 7.99957939571929E-02 
2055	 8.02720095510989E-02 
2056	 0.080850665506713 
2057	 8.14496537887376E-02 
2058	 8.12376054216548E-02 
2059	 8.12526724461797E-02 
2060	 0.081171564928348 
2061	 8.13250987804064E-02 
2062	 8.14655944816651E-02 
2063	 8.20967755770102E-02 
2064	 8.27400430752791E-02 
2065	 8.29909175197704E-02 
2066	 8.34841248040658E-02 
2067	 8.34893862004637E-02 
2068	 8.34707979916052E-02 
2069	 0.084075284656975 
2070	 8.39192155126819E-02 
2071	 8.39114836186409E-02 
2072	 8.42561072892834E-02 
2073	 8.48651741712999E-02 
2074	 8.49269999735947E-02 
2075	 8.54282845100173E-02 
2076	 8.60862482038249E-02 
2077	 8.62419976941366E-02 
2078	 0.086751489704214 
2079	 8.70457784464782E-02 
2080	 8.68165725581009E-02 
2081	 8.68768296587403E-02 
2082	 8.69863208589625E-02 
2083	 8.73327370180481E-02 
2084	 0.087960140216817 
2085	 8.84383053222232E-02 
2086	 8.87804780309076E-02 
2087	 8.90343337874775E-02 
2088	 8.90485827144852E-02 
2089	 8.92914817844258E-02 
2090	 8.96963400229359E-02 
2091	 8.97954949229476E-02 
2092	 8.99702542301196E-02 
2093	 9.03161802267067E-02 
2094	 9.05168541625201E-02 
2095	 9.08520550770597E-02 
2096	 9.12874613101941E-02 
2097	 9.14737629600285E-02 
2098	 9.16776412147599E-02 
2099	 9.19679195930528E-02 
2100	 9.22393018559824E-02 
2101	 9.26343386779326E-02 
2102	 9.29290296411103E-02 
2103	 0.093222024194198 
2104	 9.33558515273046E-02 
2105	 9.36708972043493E-02 
2106	 9.40561431922773E-02 
2107	 9.45298518347146E-02 
2108	 9.52000986002804E-02 
2109	 9.57535742158199E-02 
2110	 0.096205536799359 
2111	 9.64334497264733E-02 
2112	 9.67975761380361E-02 
2113	 9.73105456790236E-02 
2114	 9.73096577788046E-02 
2115	 9.74393243369448E-02 
2116	 9.78696032171494E-02 
2117	 9.81165991336458E-02 
2118	 0.098254424910201 
2119	 9.85564840904367E-02 
2120	 9.90059453490534E-02 
2121	 9.89287109848243E-02 
2122	 9.95133192715489E-02 
2123	 0.100078520340337 
2124	 0.100401927625724 
2125	 0.101133109504776 
2126	 0.101131697021703 
2127	 0.100737711343457 
2128	 0.101045112824993 
2129	 0.101519442842523 
2130	 0.102032039391429 
2131	 0.102739432773866 
2132	 0.103140271517925 
2133	 0.103357381673784 
2134	 0.103613348989469 
2135	 0.103835156520266 
2136	 0.103992788746043 
2137	 0.104275586829456 
2138	 0.10441694529109 
2139	 0.104529567119903 
2140	 0.104878303683572 
2141	 0.105034288564183 
2142	 0.105353877989194 
2143	 0.105631721316692 
2144	 0.106009348708817 
2145	 0.106827197247143 
2146	 0.107144646446173 
2147	 0.107363547835462 
2148	 0.10758528179782 
2149	 0.107103503965321 
2150	 0.107192092749823 
2151	 0.107371262397175 
2152	 0.107486137635746 
2153	 0.107686675254945 
2154	 0.108347779756879 
2155	 0.108633671773109 
2156	 0.108324667740601 
2157	 0.108824929850647 
2158	 0.109178822072945 
2159	 0.109357590236285 
2160	 0.10948571257981 
2161	 0.109352839181304 
2162	 0.109243510693734 
2163	 0.10929609125109 
2164	 0.109671646006637 
2165	 0.110013936366942 
2166	 0.11033615048221 
2167	 0.110592004305955 
2168	 0.111001335132166 
2169	 0.111672979820894 
2170	 0.112293025368239 
2171	 0.113177677309332 
2172	 0.113361963812653 
2173	 0.113094601538237 
2174	 0.113260975538213 
2175	 0.112824500435591 
2176	 0.112768754890349 
2177	 0.11332160409664 
2178	 0.112730033221382 
2179	 0.112392772412194 
2180	 0.111895193539488 
2181	 0.111318170399616 
2182	 0.111841648372186 
2183	 0.112249753345076 
2184	 0.11278585333403 
2185	 0.112940481487421 
2186	 0.112625552044061 
2187	 0.112873542008131 
2188	 0.113403036833102 
2189	 0.113480286684303 
2190	 0.113658662679496 
2191	 0.114048578331289 
2192	 0.113837269811576 
2193	 0.114072991182758 
2194	 0.114818191414046 
2195	 0.115346072395735 
2196	 0.1157912119577 
2197	 0.115605617472597 
2198	 0.115220781412133 
2199	 0.115168877803353 
2200	 0.114981035631647 
2201	 0.114973521453965 
2202	 0.115420349757477 
2203	 0.115933106465215 
2204	 0.116268439722688 
2205	 0.116306841418362 
2206	 0.116305904376992 
2207	 0.116234155927942 
2208	 0.116219187995661 
2209	 0.116301216041963 
2210	 0.116586564272666 
2211	 0.117083338397395 
2212	 0.117059249754217 
2213	 0.11736063433591 
2214	 0.117231930650461 
2215	 0.116990581070362 
2216	 0.117377234261419 
2217	 0.116634978208635 
2218	 0.116271725728315 
2219	 0.116781053545158 
2220	 0.116498868738453 
2221	 0.116814870062327 
2222	 0.117047774818324 
2223	 0.116090893805236 
2224	 0.115626033633045 
2225	 0.115923577883305 
2226	 0.116279752342713 
2227	 0.116933269921026 
2228	 0.116887198905957 
2229	 0.116752210001416 
2230	 0.116926168036318 
2231	 0.116810581551049 
2232	 0.116857839155453 
2233	 0.116806650619837 
2234	 0.116583956114305 
2235	 0.115735730396948 
2236	 0.115315702683517 
2237	 0.115062895882198 
2238	 0.114916656884807 
2239	 0.114663993052832 
2240	 0.114439269133444 
2241	 0.114278958421886 
2242	 0.114221492293379 
2243	 0.113757012742563 
2244	 0.113426295828907 
2245	 0.113212688862447 
2246	 0.112008671407403 
2247	 0.111436868470989 
2248	 0.111435604592907 
2249	 0.110849589556926 
2250	 0.110431056847486 
2251	 0.109875108248026 
2252	 0.109182914896188 
2253	 0.108829654614531 
2254	 0.108361593737819 
2255	 0.108140664521075 
2256	 0.107902451672675 
2257	 0.107814292070462 
2258	 0.107148295670086 
2259	 0.106944490982363 
2260	 0.106933536787569 
2261	 0.106206749993868 
2262	 0.10560015871664 
2263	 0.10502555842915 
2264	 0.103813834534462 
2265	 0.10323265646136 
2266	 0.102994324267633 
2267	 0.101934403834913 
2268	 0.101359739382648 
2269	 0.100922209337216 
2270	 0.100013725866234 
2271	 9.97291705286879E-02 
2272	 9.94929616831296E-02 
2273	 9.93629690526231E-02 
2274	 9.94365011791842E-02 
2275	 9.97199685151003E-02 
2276	 9.97609885293806E-02 
2277	 9.84658391622866E-02 
2278	 9.72911005740345E-02 
2279	 9.67079195290094E-02 
2280	 9.62140677752495E-02 
2281	 9.57869542848454E-02 
2282	 9.62014156986702E-02 
2283	 9.66888997400832E-02 
2284	 9.64434457315976E-02 
2285	 9.72351873510058E-02 
2286	 9.74243338786275E-02 
2287	 9.73220670573013E-02 
2288	 9.65586778354647E-02 
2289	 9.63280713750759E-02 
2290	 9.59411825445406E-02 
2291	 9.57860152679138E-02 
2292	 9.50254797769179E-02 
2293	 9.45795952170869E-02 
2294	 9.44072973952478E-02 
2295	 9.38659656556259E-02 
2296	 9.39146389630828E-02 
2297	 9.38587368811642E-02 
2298	 9.33054106907405E-02 
2299	 9.22552001631029E-02 
2300	 9.11999209175474E-02 
2301	 8.98800101945626E-02 
2302	 8.90917052260138E-02 
2303	 8.99048165255716E-02 
2304	 9.08723290346089E-02 
2305	 9.16918153134112E-02 
2306	 9.11089786353508E-02 
2307	 8.96744609917208E-02 
2308	 8.88992355739103E-02 
2309	 8.80981853357421E-02 
2310	 8.81030069546488E-02 
2311	 8.88010059460648E-02 
2312	 8.91109321587209E-02 
2313	 8.93573462941493E-02 
2314	 9.01071139650984E-02 
2315	 9.07502093881779E-02 
2316	 0.09031004855081 
2317	 0.089515165557805 
2318	 8.87988146991621E-02 
2319	 8.76754140517574E-02 
2320	 8.67490272456513E-02 
2321	 0.086382648127967 
2322	 8.72361414096853E-02 
2323	 0.087149228939105 
2324	 8.65895368189859E-02 
2325	 8.67997097069822E-02 
2326	 8.77276113514297E-02 
2327	 8.71214022598788E-02 
2328	 8.67851510565216E-02 
2329	 8.76082754567424E-02 
2330	 8.68374811758872E-02 
2331	 8.63912842275754E-02 
2332	 0.086933765804463 
2333	 8.58504868332769E-02 
2334	 0.085119672690424 
2335	 8.47932823851702E-02 
2336	 8.41939567475595E-02 
2337	 0.083590286011677 
2338	 8.20778325383148E-02 
2339	 8.06159207225353E-02 
2340	 7.94020644326712E-02 
2341	 8.00095355282607E-02 
2342	 8.14659598766583E-02 
2343	 8.19491357524524E-02 
2344	 8.33800369917493E-02 
2345	 8.33691629969596E-02 
2346	 8.23088334553795E-02 
2347	 8.29535186939624E-02 
2348	 8.30465229440396E-02 
2349	 8.32252545677875E-02 
2350	 8.40021583512586E-02 
2351	 8.32977269559847E-02 
2352	 8.27349775551094E-02 
2353	 8.14964385038697E-02 
2354	 7.98684534754968E-02 
2355	 8.00531668432921E-02 
2356	 7.99265961113389E-02 
2357	 7.99760591850706E-02 
2358	 7.92417267350923E-02 
2359	 7.83462396345722E-02 
2360	 7.79441270535581E-02 
2361	 7.65363436755312E-02 
2362	 7.70729770819717E-02 
2363	 7.74455279435234E-02 
2364	 7.70108038893948E-02 
2365	 7.86886723728333E-02 
2366	 7.95561982726668E-02 
2367	 7.91509827570425E-02 
2368	 7.89310359497713E-02 
2369	 7.72938868260095E-02 
2370	 7.52882617715396E-02 
2371	 7.65018156647569E-02 
2372	 7.74914522442815E-02 
2373	 7.94856440658619E-02 
2374	 0.080715277597423 
2375	 8.34010217343973E-02 
2376	 8.19080394846308E-02 
2377	 7.71487344194901E-02 
2378	 7.52347773760938E-02 
2379	 7.16819660004782E-02 
2380	 0.07044740252864 
2381	 7.26768509144477E-02 
2382	 7.34019881878708E-02 
2383	 7.30785693094249E-02 
2384	 7.36335190137619E-02 
2385	 7.56678402240716E-02 
2386	 7.54616429625067E-02 
2387	 7.50085406070041E-02 
2388	 7.40532367368193E-02 
2389	 7.06019262193274E-02 
2390	 0.069374168891248 
2391	 6.83796313401329E-02 
2392	 0.069271869303321 
2393	 7.23050532326822E-02 
2394	 7.28569711044847E-02 
2395	 7.43177412931343E-02 
2396	 7.45983385052213E-02 
2397	 7.33094815406509E-02 
2398	 7.29396689331382E-02 
2399	 7.15225511519555E-02 
2400	 7.14302829958365E-02 
2401	 7.18058877855487E-02 
2402	 7.18753954938343E-02 
2403	 7.46571059033339E-02 
2404	 7.64670828211149E-02 
2405	 7.53170014925151E-02 
2406	 7.41352777204405E-02 
2407	 7.04659095793745E-02 
2408	 6.95418224588191E-02 
2409	 7.31562387050873E-02 
2410	 7.52674665477951E-02 
2411	 0.075908976760225 
2412	 7.65634752702587E-02 
2413	 7.17848449857516E-02 
2414	 6.54190354751272E-02 
2415	 0.06617678108892 
2416	 6.37471429407323E-02 
2417	 6.35924343812418E-02 
2418	 6.92142062095595E-02 
2419	 6.76342740621007E-02 
2420	 6.61129109758525E-02 
2421	 6.36474153862902E-02 
2422	 0.060563351268244 
2423	 6.68613126279451E-02 
2424	 7.19492110566782E-02 
2425	 7.36152830138821E-02 
2426	 7.37244925303902E-02 
2427	 6.38827945779851E-02 
2428	 5.57694245606197E-02 
2429	 5.79251891750244E-02 
2430	 6.03558287482459E-02 
2431	 5.98980200708585E-02 
2432	 6.18416178044693E-02 
2433	 6.24889122301264E-02 
2434	 6.16144327144069E-02 
2435	 6.55707951713692E-02 
2436	 6.57593656337472E-02 
2437	 5.90052773810923E-02 
2438	 5.79527100290412E-02 
2439	 5.97334420566307E-02 
2440	 5.99653597888245E-02 
2441	 6.04616595601362E-02 
2442	 6.16060893048744E-02 
2443	 6.34516700933012E-02 
2444	 6.47992180323158E-02 
2445	 6.77937342453531E-02 
2446	 6.76707824090024E-02 
2447	 6.18185658180084E-02 
2448	 6.13704644012028E-02 
2449	 6.63194305693106E-02 
2450	 6.73930468976243E-02 
2451	 6.66534514297421E-02 
2452	 6.85368910400449E-02 
2453	 7.11554380155029E-02 
2454	 6.94099820517625E-02 
2455	 6.81322477723503E-02 
2456	 6.85301095682054E-02 
2457	 6.55520695249042E-02 
2458	 6.07532736870328E-02 
2459	 5.81287178194143E-02 
2460	 5.55043757649129E-02 
2461	 4.74275118321438E-02 
2462	 4.42926378818765E-02 
2463	 4.46900661656701E-02 
2464	 4.48917848202756E-02 
2465	 4.55826547183595E-02 
2466	 4.88302004828619E-02 
2467	 6.01095710911869E-02 
2468	 6.14947478379139E-02 
2469	 5.45302842694615E-02 
2470	 5.31777936879928E-02 
2471	 4.78068453161356E-02 
2472	 5.12174250998682E-02 
2473	 0.069305153948967 
2474	 7.64627825494842E-02 
2475	 7.97349280857544E-02 
2476	 8.01317390903213E-02 
2477	 7.16775014232867E-02 
2478	 0.068654032738912 
2479	 6.33662514557723E-02 
2480	 0.067073532496841 
2481	 8.18764053947589E-02 
2482	 9.38523857671524E-02 
2483	 0.115399105547167 
2484	 0.126908354410901 
2485	 0.129607539575569 
2486	 0.131869624745801 
2487	 0.122332887647337 
2488	 0.117764846646516 
2489	 0.093865291444564 
2490	 2.73728170936775E-02 
2491	 5.27665272343327E-02 
2492	 0.150381292914603 
2493	 0.211196472641014 
2494	 0.252348232061923 
2495	 0.232050284263872 
2496	 0.158734652974315 
2497	 9.87906722809894E-02 
2498	 9.73984467791327E-02 
2499	 0.157074869748997 
2500	 0.227595762045653 
