Wavelength	ref00128.asd
350	 0.345532864549998 
351	 0.368786916108608 
352	 0.363732268971878 
353	 0.358090094271437 
354	 0.370499251473878 
355	 0.365592959568201 
356	 0.334253027630515 
357	 0.341730441010106 
358	 0.34934739968139 
359	 0.351291975512988 
360	 0.348874775746266 
361	 0.332863786135803 
362	 0.324805062498491 
363	 0.32379060332515 
364	 0.316429204179895 
365	 0.329454949027603 
366	 0.337089056291811 
367	 0.326728351556702 
368	 0.310526203661905 
369	 0.32417758571718 
370	 0.329401220113618 
371	 0.301257658759614 
372	 0.309115429153611 
373	 0.309760781264618 
374	 0.300905853330747 
375	 0.29908969756895 
376	 0.300458979986483 
377	 0.294876868749241 
378	 0.283144823460861 
379	 0.278594982742836 
380	 0.282190771868931 
381	 0.287653155237504 
382	 0.288454462566831 
383	 0.280645153553632 
384	 0.280427993678025 
385	 0.285058609861708 
386	 0.284115584949352 
387	 0.278602589574658 
388	 0.274226617320203 
389	 0.270724363934737 
390	 0.262151080395778 
391	 0.267124379857103 
392	 0.27056242281124 
393	 0.261816053127761 
394	 0.250458328364773 
395	 0.254361285610853 
396	 0.261242857941906 
397	 0.254527811939385 
398	 0.250740526422004 
399	 0.24848474275549 
400	 0.24638889522974 
401	 0.244186968168008 
402	 0.245144536237426 
403	 0.245123326061435 
404	 0.242511377795726 
405	 0.242751285438408 
406	 0.24122521469524 
407	 0.238719818568942 
408	 0.237138069626926 
409	 0.234564564054917 
410	 0.23303924831359 
411	 0.233029907697984 
412	 0.23345516482066 
413	 0.232874340696072 
414	 0.230939094051291 
415	 0.228299147109689 
416	 0.226891571921591 
417	 0.227975383486683 
418	 0.2301456542912 
419	 0.231073625150663 
420	 0.229017306449639 
421	 0.228143309110421 
422	 0.228750607823942 
423	 0.227866599665238 
424	 0.22823163060716 
425	 0.228366160110599 
426	 0.227457914340793 
427	 0.227288903480784 
428	 0.229305093015205 
429	 0.230116114586504 
430	 0.226879116809118 
431	 0.228109478925181 
432	 0.228364046390733 
433	 0.226533730885656 
434	 0.225650163794717 
435	 0.226112260386577 
436	 0.227365729779229 
437	 0.228329020162197 
438	 0.227053427356782 
439	 0.226403065881985 
440	 0.22629405162448 
441	 0.22568652455264 
442	 0.224232359820465 
443	 0.223440574930031 
444	 0.224009632632428 
445	 0.225669911178457 
446	 0.225842543583743 
447	 0.225133089472342 
448	 0.224369841167496 
449	 0.223147386149612 
450	 0.223562688291505 
451	 0.224601537114683 
452	 0.224411810088581 
453	 0.22510451307099 
454	 0.225024059140488 
455	 0.223960753504932 
456	 0.223616457522214 
457	 0.222613594672992 
458	 0.221724656699353 
459	 0.221533644780646 
460	 0.220704804908655 
461	 0.22022577630161 
462	 0.219869772743322 
463	 0.218929398110863 
464	 0.218501591493597 
465	 0.21832516382502 
466	 0.218122026588989 
467	 0.217826165586991 
468	 0.216957122395798 
469	 0.215406892231132 
470	 0.213752813580407 
471	 0.214701436868577 
472	 0.21452490751591 
473	 0.21332430447301 
474	 0.213711164587608 
475	 0.213779357633638 
476	 0.213141001644531 
477	 0.211933551514929 
478	 0.210784798807444 
479	 0.210472816255122 
480	 0.210977472726786 
481	 0.211598172957319 
482	 0.210016047612794 
483	 0.209003538962542 
484	 0.209271926928681 
485	 0.209305327689416 
486	 0.209444902341863 
487	 0.208745137835374 
488	 0.207081404827978 
489	 0.206712763154062 
490	 0.207646737729844 
491	 0.208660474569529 
492	 0.208367132135302 
493	 0.208139312760223 
494	 0.20883505072774 
495	 0.210253618573128 
496	 0.211013881276319 
497	 0.212230190860496 
498	 0.213209718391766 
499	 0.213757206900376 
500	 0.216778697369311 
501	 0.219348328607373 
502	 0.221314381454228 
503	 0.224151346784145 
504	 0.226903593465165 
505	 0.22994970954427 
506	 0.23319953745119 
507	 0.235521393692506 
508	 0.240181671697034 
509	 0.245069525419 
510	 0.248176548968204 
511	 0.25558569841789 
512	 0.261645204213487 
513	 0.265924097330679 
514	 0.272551993002039 
515	 0.279368342972025 
516	 0.287199978264342 
517	 0.296323568664434 
518	 0.304723849401444 
519	 0.313075142925749 
520	 0.320980594285335 
521	 0.328150265356199 
522	 0.336486858084909 
523	 0.34531871414344 
524	 0.353542627654317 
525	 0.359668643176055 
526	 0.367366854638823 
527	 0.375877273370686 
528	 0.38367794700264 
529	 0.390199906671003 
530	 0.396128672553591 
531	 0.401951426956366 
532	 0.407916712563001 
533	 0.412741538204241 
534	 0.417843172215964 
535	 0.423037320849441 
536	 0.425003028315569 
537	 0.428042589117397 
538	 0.431433612910645 
539	 0.433588541345715 
540	 0.436241188442514 
541	 0.438800410898362 
542	 0.440673165407218 
543	 0.441453020805333 
544	 0.442336004916063 
545	 0.443750190227037 
546	 0.445621983875308 
547	 0.447173498921567 
548	 0.448407934918335 
549	 0.449615366330225 
550	 0.450930245988041 
551	 0.45060244523064 
552	 0.4497161972576 
553	 0.448903539562837 
554	 0.447997985645819 
555	 0.446365400903451 
556	 0.443975080787449 
557	 0.440901602415314 
558	 0.436981995458535 
559	 0.433141474009762 
560	 0.429363617300668 
561	 0.425043245522373 
562	 0.420764743347932 
563	 0.41585074244402 
564	 0.410450683694648 
565	 0.40652849407021 
566	 0.401272900916906 
567	 0.395001873081239 
568	 0.388968473527883 
569	 0.383420624467293 
570	 0.377607358836622 
571	 0.371405896169619 
572	 0.365308137282724 
573	 0.359537719773048 
574	 0.354193180378592 
575	 0.349252029087591 
576	 0.344662206336881 
577	 0.339847202283728 
578	 0.335089064542417 
579	 0.331009157953273 
580	 0.327479014417499 
581	 0.323913444601739 
582	 0.320399514762125 
583	 0.317945740999704 
584	 0.314688648792795 
585	 0.31129791236427 
586	 0.308705617084431 
587	 0.306130454114483 
588	 0.303628327231807 
589	 0.301028691461039 
590	 0.298084528042429 
591	 0.294901299581064 
592	 0.292794774906312 
593	 0.291933424500073 
594	 0.290422653276477 
595	 0.289262663980023 
596	 0.287966351694755 
597	 0.285900522124918 
598	 0.284078494396581 
599	 0.28242173418259 
600	 0.280897582271323 
601	 0.279554903281856 
602	 0.277927496752777 
603	 0.276188781554233 
604	 0.274395599889704 
605	 0.271849752924152 
606	 0.269518412792747 
607	 0.267300504213184 
608	 0.264665469613546 
609	 0.262231082154546 
610	 0.25948214832699 
611	 0.256252202518921 
612	 0.25295803007825 
613	 0.250542904295976 
614	 0.248368011732912 
615	 0.245670929308679 
616	 0.24299453936866 
617	 0.240191270051549 
618	 0.237496003784566 
619	 0.235300596758901 
620	 0.23318555287964 
621	 0.231458171042901 
622	 0.230239849423806 
623	 0.229165309753612 
624	 0.227768093389564 
625	 0.226219395116821 
626	 0.224936123384306 
627	 0.224046926639712 
628	 0.223439823842556 
629	 0.223083253598213 
630	 0.222976924781002 
631	 0.221647185233154 
632	 0.220198222954623 
633	 0.219476046112793 
634	 0.218395197848972 
635	 0.216858778255016 
636	 0.214564929762475 
637	 0.211491985727411 
638	 0.209627891686288 
639	 0.207336137945116 
640	 0.204131886589911 
641	 0.20142828651404 
642	 0.198554611068265 
643	 0.195622099738237 
644	 0.192701048890467 
645	 0.18922899246593 
646	 0.185678148368857 
647	 0.18269965840979 
648	 0.180840107854376 
649	 0.178708470031463 
650	 0.176445013890002 
651	 0.174559499017778 
652	 0.17372413462122 
653	 0.172469845017763 
654	 0.170773161575094 
655	 0.16899611671088 
656	 0.167367083784936 
657	 0.165589439688982 
658	 0.163639954858492 
659	 0.161452038045144 
660	 0.159558019568453 
661	 0.157479870425806 
662	 0.155071275900472 
663	 0.152946167366253 
664	 0.150448722300444 
665	 0.147802225461388 
666	 0.145513611948448 
667	 0.143945605400467 
668	 0.142188360383319 
669	 0.140502392782437 
670	 0.140094028468083 
671	 0.139092356792635 
672	 0.137915459358056 
673	 0.137114907000616 
674	 0.136467567236777 
675	 0.136445739766839 
676	 0.136413722073781 
677	 0.13580078814613 
678	 0.137160898597371 
679	 0.137583980955302 
680	 0.137145813450222 
681	 0.139135718134633 
682	 0.140465453971771 
683	 0.142180811801468 
684	 0.145278946479191 
685	 0.148536144509601 
686	 0.152816763071576 
687	 0.158839924591842 
688	 0.166430296670462 
689	 0.174029827171627 
690	 0.1823466698395 
691	 0.192160339630657 
692	 0.203522574422192 
693	 0.21620028659953 
694	 0.230430234335614 
695	 0.246178113436918 
696	 0.262625841499267 
697	 0.280433354361688 
698	 0.29909461707156 
699	 0.317657025207423 
700	 0.337115031337804 
701	 0.356664761502563 
702	 0.376329511984406 
703	 0.397225429751742 
704	 0.41700746160559 
705	 0.436306189034481 
706	 0.456089670361491 
707	 0.475877934243456 
708	 0.496111441119097 
709	 0.516797520040496 
710	 0.537507655312815 
711	 0.557883723952375 
712	 0.578457135519901 
713	 0.599418231683294 
714	 0.620556278877086 
715	 0.640995116474386 
716	 0.660013674970041 
717	 0.678480191932438 
718	 0.699558788276028 
719	 0.722383001177271 
720	 0.746591484605302 
721	 0.771556305979329 
722	 0.794454277272926 
723	 0.81614496463275 
724	 0.838088654239613 
725	 0.85978534968353 
726	 0.882349677164325 
727	 0.904399563713334 
728	 0.925669130304819 
729	 0.947983113421732 
730	 0.969631475577816 
731	 0.990245320814687 
732	 1.01038440410115 
733	 1.03151628715237 
734	 1.05048776223973 
735	 1.06704062755943 
736	 1.08323334803639 
737	 1.09949295090497 
738	 1.11480654789795 
739	 1.12883071907846 
740	 1.14257824140919 
741	 1.15532270609733 
742	 1.16713118725474 
743	 1.17805473716246 
744	 1.18737365013807 
745	 1.19596020942867 
746	 1.20409920654589 
747	 1.21152681154821 
748	 1.21775005879749 
749	 1.22306535019057 
750	 1.22796940199881 
751	 1.23310462014139 
752	 1.2370657039637 
753	 1.24011725154817 
754	 1.24286471563401 
755	 1.24527123001281 
756	 1.24697062417344 
757	 1.24795388765605 
758	 1.24858872757092 
759	 1.25039986223538 
760	 1.25277241785625 
761	 1.25419747368562 
762	 1.25294627244249 
763	 1.25230173432006 
764	 1.25192499607904 
765	 1.25127090292509 
766	 1.25096513592493 
767	 1.24942437539838 
768	 1.24783451930267 
769	 1.24749022308025 
770	 1.24653918154566 
771	 1.24542117152689 
772	 1.24429505554872 
773	 1.24297315937652 
774	 1.24084711285454 
775	 1.23946969550254 
776	 1.23902640755737 
777	 1.23690406580752 
778	 1.23506202017184 
779	 1.23344531164454 
780	 1.23175518861085 
781	 1.23079056586662 
782	 1.22979682920559 
783	 1.22858201564423 
784	 1.22717390466092 
785	 1.22476591470664 
786	 1.2224315301793 
787	 1.22040565755806 
788	 1.21793041884114 
789	 1.21562894583697 
790	 1.21411307360599 
791	 1.21323639523733 
792	 1.211291503738 
793	 1.21051085020604 
794	 1.20989804643862 
795	 1.20794515318499 
796	 1.2053550937602 
797	 1.20366200509172 
798	 1.20250184408491 
799	 1.20058873909145 
800	 1.19908975163962 
801	 1.19735020535572 
802	 1.19530979825588 
803	 1.19372651100335 
804	 1.19309817919338 
805	 1.19220084062596 
806	 1.19037038132298 
807	 1.18876880171016 
808	 1.1867641899695 
809	 1.18484564389675 
810	 1.18314511707004 
811	 1.17911915313901 
812	 1.17501703340569 
813	 1.17105834048841 
814	 1.16646745347825 
815	 1.16251154267672 
816	 1.16013443245217 
817	 1.15893285567322 
818	 1.15726146747247 
819	 1.15703815164057 
820	 1.15742565430637 
821	 1.15728179360338 
822	 1.15574085116765 
823	 1.15410862263758 
824	 1.15268642512339 
825	 1.1516834023909 
826	 1.15194732022108 
827	 1.15113076043508 
828	 1.14932987460355 
829	 1.14765369694019 
830	 1.14597550570279 
831	 1.14531016313306 
832	 1.14524047426454 
833	 1.14446397380331 
834	 1.14398954295102 
835	 1.14321059508785 
836	 1.1423130484568 
837	 1.14250019106282 
838	 1.1427407602595 
839	 1.14210941739035 
840	 1.14036348523987 
841	 1.13839386226247 
842	 1.13836723597362 
843	 1.13812280104842 
844	 1.1358178247842 
845	 1.13514043747489 
846	 1.13408909157494 
847	 1.13309790624652 
848	 1.1330360488787 
849	 1.13109121825461 
850	 1.12980246128477 
851	 1.1291592675716 
852	 1.12741918729581 
853	 1.12712597378792 
854	 1.12648457633984 
855	 1.12449104983358 
856	 1.12181801426623 
857	 1.12144810721147 
858	 1.12036145092631 
859	 1.11790977411733 
860	 1.11858617705068 
861	 1.11696359629547 
862	 1.11545538614461 
863	 1.11610027416193 
864	 1.11492311328108 
865	 1.11456239893402 
866	 1.11409375275617 
867	 1.11213931253861 
868	 1.11034977702573 
869	 1.10871709588053 
870	 1.1071966613615 
871	 1.10583558545282 
872	 1.10561073009521 
873	 1.10436534796067 
874	 1.10206946463983 
875	 1.10033370400622 
876	 1.09979403950307 
877	 1.09884013277242 
878	 1.09713720841875 
879	 1.09585765124668 
880	 1.09545527411685 
881	 1.09452287893309 
882	 1.09284990118295 
883	 1.09208952836784 
884	 1.09025737703529 
885	 1.08870335127927 
886	 1.08822959139484 
887	 1.08750466798983 
888	 1.08485774479073 
889	 1.08201169939289 
890	 1.08052409354617 
891	 1.0792975494353 
892	 1.07625167135573 
893	 1.07247226534488 
894	 1.0693729883294 
895	 1.06511334007496 
896	 1.06322039179441 
897	 1.0615495321412 
898	 1.05708662531564 
899	 1.05493379553972 
900	 1.05359869115197 
901	 1.05263292150479 
902	 1.05216877083132 
903	 1.05225988779347 
904	 1.05078743821154 
905	 1.04834844255839 
906	 1.047118819708 
907	 1.04770707952781 
908	 1.0447080842576 
909	 1.03947467402962 
910	 1.03845262536965 
911	 1.03742444920902 
912	 1.03638625329647 
913	 1.03462724572785 
914	 1.03109875862162 
915	 1.03123046319293 
916	 1.03062497436185 
917	 1.02865338086802 
918	 1.02969175064844 
919	 1.02833738835114 
920	 1.02756053755388 
921	 1.02797680871289 
922	 1.02597827530839 
923	 1.02507053313265 
924	 1.02255676527803 
925	 1.01810396166091 
926	 1.01622605946254 
927	 1.00837876987174 
928	 1.00225958203414 
929	 1.00102880529816 
930	 0.992541024533259 
931	 0.987117330970845 
932	 0.980651340609005 
933	 0.970451717134874 
934	 0.965171703833435 
935	 0.963001385045025 
936	 0.960034319565642 
937	 0.955563630688988 
938	 0.955592973156068 
939	 0.952980518319928 
940	 0.952156389377281 
941	 0.95503161440208 
942	 0.954248860402683 
943	 0.952907902025868 
944	 0.952299861976649 
945	 0.950878736794118 
946	 0.942167575039988 
947	 0.93977159962307 
948	 0.936890074733199 
949	 0.929548738570159 
950	 0.930402874016589 
951	 0.931465267458158 
952	 0.928461523314268 
953	 0.922213300973225 
954	 0.921191418233697 
955	 0.917340589485996 
956	 0.917030780668048 
957	 0.921017729361967 
958	 0.913149684586255 
959	 0.910542919427763 
960	 0.91206151948871 
961	 0.91366973643365 
962	 0.914656904971635 
963	 0.916482788858422 
964	 0.915714684134035 
965	 0.911983281862024 
966	 0.911213192746118 
967	 0.912030732543163 
968	 0.913362986400094 
969	 0.913696545911982 
970	 0.911369576560878 
971	 0.913914437177068 
972	 0.916668798854687 
973	 0.915854113549835 
974	 0.912895678739674 
975	 0.907187642457448 
976	 0.907576572699858 
977	 0.912783943864606 
978	 0.908650369675856 
979	 0.908288775575292 
980	 0.909103818744514 
981	 0.909168593469691 
982	 0.909597460058624 
983	 0.905986569458321 
984	 0.907100964762367 
985	 0.911610865307789 
986	 0.909543607079897 
987	 0.911065619374685 
988	 0.912703958443916 
989	 0.912532434073808 
990	 0.911656681193909 
991	 0.914722227622752 
992	 0.913840205628251 
993	 0.912685221343557 
994	 0.919212136727754 
995	 0.92155731952548 
996	 0.918215021941647 
997	 0.913640811710998 
998	 0.91378665549711 
999	 0.919524940026368 
1000	 0.916854615387098 
1001	 0.935782321292816 
1002	 0.936397722154688 
1003	 0.937024428513792 
1004	 0.937219578937413 
1005	 0.937589740979798 
1006	 0.938386834438484 
1007	 0.939003645256116 
1008	 0.939224683208566 
1009	 0.93963561740761 
1010	 0.940447590350058 
1011	 0.940942570750473 
1012	 0.940780763704586 
1013	 0.940756616013443 
1014	 0.940633572257113 
1015	 0.940684694332367 
1016	 0.941032018462777 
1017	 0.941472969346925 
1018	 0.942104218053124 
1019	 0.942964368654851 
1020	 0.943781839102701 
1021	 0.944988076171507 
1022	 0.94568105783179 
1023	 0.946262298216535 
1024	 0.946449340692477 
1025	 0.946535181605172 
1026	 0.946867524374766 
1027	 0.947232107097433 
1028	 0.947608053144909 
1029	 0.948155889653186 
1030	 0.948318390433984 
1031	 0.948312193958347 
1032	 0.948659399648041 
1033	 0.948710536805791 
1034	 0.948396496980561 
1035	 0.948362196569157 
1036	 0.948143131276556 
1037	 0.94816439472904 
1038	 0.948287292785431 
1039	 0.94892834818224 
1040	 0.949257826989801 
1041	 0.94957014745008 
1042	 0.949781551335669 
1043	 0.949819884946993 
1044	 0.949596085563925 
1045	 0.94909908102223 
1046	 0.948569976226055 
1047	 0.947962710932723 
1048	 0.947269573024751 
1049	 0.947149788119341 
1050	 0.947328542617264 
1051	 0.948078330737949 
1052	 0.948086099302193 
1053	 0.948241320896856 
1054	 0.948430852635554 
1055	 0.947676709222658 
1056	 0.947344780201902 
1057	 0.94721336862466 
1058	 0.947041389902005 
1059	 0.94702763014349 
1060	 0.946840332365033 
1061	 0.946860049749765 
1062	 0.946387822377692 
1063	 0.94590074707202 
1064	 0.946169420772982 
1065	 0.946022227204324 
1066	 0.945696341884767 
1067	 0.945285159019298 
1068	 0.945111823597446 
1069	 0.944564012269949 
1070	 0.944034579389937 
1071	 0.944004555553852 
1072	 0.944058174140155 
1073	 0.943458760908439 
1074	 0.94255842316478 
1075	 0.941926837791661 
1076	 0.940978787283752 
1077	 0.940348647978689 
1078	 0.940006684352486 
1079	 0.939265824041693 
1080	 0.938649770631157 
1081	 0.93780808904868 
1082	 0.936745259454123 
1083	 0.935417840113567 
1084	 0.934365169414545 
1085	 0.933695873604884 
1086	 0.933125647270303 
1087	 0.932525136658566 
1088	 0.932176437445633 
1089	 0.931035813294897 
1090	 0.929186363155408 
1091	 0.927861651256777 
1092	 0.926253560402684 
1093	 0.924573970794484 
1094	 0.923425300443236 
1095	 0.922009024433143 
1096	 0.920414844586041 
1097	 0.918721267981477 
1098	 0.916831922632103 
1099	 0.914655121348396 
1100	 0.912541256417454 
1101	 0.910345227250865 
1102	 0.908401549289067 
1103	 0.906601360187353 
1104	 0.904564234736564 
1105	 0.902419040166939 
1106	 0.90033298130735 
1107	 0.897995068625021 
1108	 0.895244476089796 
1109	 0.892755493882515 
1110	 0.889894091558752 
1111	 0.886359278174123 
1112	 0.881995620541108 
1113	 0.877820723406128 
1114	 0.872636427071148 
1115	 0.867669044037181 
1116	 0.862742820205581 
1117	 0.857886090101307 
1118	 0.852538436366712 
1119	 0.846630269106318 
1120	 0.840612787747183 
1121	 0.834988933665403 
1122	 0.829787446509076 
1123	 0.82563351195818 
1124	 0.822077422384333 
1125	 0.818656121454622 
1126	 0.815770758817439 
1127	 0.813644892985663 
1128	 0.811010858961486 
1129	 0.808983343812439 
1130	 0.806731800178938 
1131	 0.804326562408592 
1132	 0.801991253846609 
1133	 0.799821733732185 
1134	 0.797542476697814 
1135	 0.795498013131403 
1136	 0.792279861311589 
1137	 0.789103883712831 
1138	 0.785511437564448 
1139	 0.780783479561578 
1140	 0.776541422857582 
1141	 0.772131350225151 
1142	 0.767458912095921 
1143	 0.762461028825633 
1144	 0.756976205120857 
1145	 0.751716841478589 
1146	 0.745835877627179 
1147	 0.740882490302462 
1148	 0.736414122554776 
1149	 0.732631880610436 
1150	 0.729691100434687 
1151	 0.726890917677241 
1152	 0.724565019776255 
1153	 0.722535227492834 
1154	 0.720909563354238 
1155	 0.719806147305654 
1156	 0.719260290361664 
1157	 0.718776491215015 
1158	 0.718559629456967 
1159	 0.71808588959299 
1160	 0.717609789330949 
1161	 0.717151960646979 
1162	 0.716788489302407 
1163	 0.716416375052233 
1164	 0.715908365693938 
1165	 0.715413195799974 
1166	 0.714836002738385 
1167	 0.713983872685649 
1168	 0.713383795212796 
1169	 0.712950839059619 
1170	 0.712452473597558 
1171	 0.711845144757451 
1172	 0.711330732857152 
1173	 0.710782872730201 
1174	 0.709972831631648 
1175	 0.709080076666312 
1176	 0.70815877783583 
1177	 0.707138063442676 
1178	 0.705919233016713 
1179	 0.704793852886146 
1180	 0.703605068914287 
1181	 0.702555276078809 
1182	 0.701466239817901 
1183	 0.700520444627255 
1184	 0.699738723123382 
1185	 0.698961877582693 
1186	 0.69836164466978 
1187	 0.697647646998726 
1188	 0.696880415250658 
1189	 0.696129312836182 
1190	 0.695508894628885 
1191	 0.695057809845897 
1192	 0.694675739301051 
1193	 0.694219397905917 
1194	 0.693718848155477 
1195	 0.693038726557845 
1196	 0.692489860641774 
1197	 0.691936801259307 
1198	 0.691595881085493 
1199	 0.691345352801354 
1200	 0.691117250094822 
1201	 0.691119377133947 
1202	 0.690992746427951 
1203	 0.69069789864676 
1204	 0.690622238183207 
1205	 0.69064248353097 
1206	 0.690698441427702 
1207	 0.690983776109034 
1208	 0.691137304243838 
1209	 0.691242524282835 
1210	 0.691207127716107 
1211	 0.691531299742513 
1212	 0.692007876721814 
1213	 0.69247708811424 
1214	 0.693163347581164 
1215	 0.69388720362886 
1216	 0.694526447862891 
1217	 0.695349169046507 
1218	 0.696510264005893 
1219	 0.697434548135507 
1220	 0.698255919715919 
1221	 0.699184626074255 
1222	 0.700102895863061 
1223	 0.701072411722637 
1224	 0.702315896931868 
1225	 0.70319941695592 
1226	 0.703726658280381 
1227	 0.704547755720404 
1228	 0.705437804838955 
1229	 0.706105432888792 
1230	 0.707083589010309 
1231	 0.708229180734856 
1232	 0.708971857258688 
1233	 0.709430869505049 
1234	 0.710100852864984 
1235	 0.71075993978069 
1236	 0.711274641908054 
1237	 0.711761957245634 
1238	 0.712280719678671 
1239	 0.71267507309206 
1240	 0.713085059288075 
1241	 0.713629221564114 
1242	 0.714068705926947 
1243	 0.714347757088101 
1244	 0.714676618351311 
1245	 0.715032917036393 
1246	 0.715361738947909 
1247	 0.715710785641503 
1248	 0.715976393307361 
1249	 0.716137657442835 
1250	 0.716383625592737 
1251	 0.716752585054206 
1252	 0.716872520441348 
1253	 0.716979498364542 
1254	 0.717117103495954 
1255	 0.71717100120432 
1256	 0.717077040861147 
1257	 0.716934411769472 
1258	 0.716789271345463 
1259	 0.716579450852084 
1260	 0.716144801741546 
1261	 0.715878526060526 
1262	 0.715756805518941 
1263	 0.715473550892116 
1264	 0.715089236618598 
1265	 0.714805544137471 
1266	 0.714560384442121 
1267	 0.714210341760224 
1268	 0.713948642994981 
1269	 0.713543790686444 
1270	 0.712992256203481 
1271	 0.712395482990482 
1272	 0.711594656564095 
1273	 0.710978587139436 
1274	 0.710457626254039 
1275	 0.709954540750274 
1276	 0.709476677368976 
1277	 0.70923001767991 
1278	 0.70872556468302 
1279	 0.708085033346118 
1280	 0.707442927936742 
1281	 0.706765754394345 
1282	 0.706020019451613 
1283	 0.705235992104309 
1284	 0.704358131248181 
1285	 0.703357837249903 
1286	 0.702404493182123 
1287	 0.701527125975137 
1288	 0.700405288011718 
1289	 0.699158708488785 
1290	 0.69790082859597 
1291	 0.696434150712969 
1292	 0.694994705334555 
1293	 0.69367333600124 
1294	 0.692167365971998 
1295	 0.690557135743752 
1296	 0.688783745163756 
1297	 0.68696992939989 
1298	 0.685027366825258 
1299	 0.683072814629297 
1300	 0.68105743750839 
1301	 0.678956645782927 
1302	 0.676752201957347 
1303	 0.6745420705887 
1304	 0.672292445792241 
1305	 0.669924572744369 
1306	 0.667472459541909 
1307	 0.664998599293369 
1308	 0.662591929576365 
1309	 0.659788544435328 
1310	 0.656698357466049 
1311	 0.653678787660693 
1312	 0.650311794502842 
1313	 0.647095215309815 
1314	 0.644242223778811 
1315	 0.641006938056471 
1316	 0.63726296083186 
1317	 0.633932270335355 
1318	 0.630948795428478 
1319	 0.627508302729253 
1320	 0.624056303081465 
1321	 0.620567573289512 
1322	 0.616612753711948 
1323	 0.611802136876777 
1324	 0.607693025180409 
1325	 0.603745052938521 
1326	 0.599451405581386 
1327	 0.595212700609466 
1328	 0.590580832340755 
1329	 0.585249054358577 
1330	 0.580486082661888 
1331	 0.57579749264557 
1332	 0.571235472056235 
1333	 0.5670703987585 
1334	 0.562814091392869 
1335	 0.558489365890364 
1336	 0.554468934027144 
1337	 0.550501879253678 
1338	 0.546747315940743 
1339	 0.543213825912009 
1340	 0.539579410865036 
1341	 0.535691893623727 
1342	 0.531907656280176 
1343	 0.527554609788604 
1344	 0.523395363292485 
1345	 0.519317360850099 
1346	 0.514586642585233 
1347	 0.509460056375008 
1348	 0.503408073794468 
1349	 0.497047933039969 
1350	 0.489132476386471 
1351	 0.481100537828461 
1352	 0.472926007630868 
1353	 0.464187344418085 
1354	 0.457836810508797 
1355	 0.447457775733072 
1356	 0.4408546677801 
1357	 0.430432236934894 
1358	 0.424145465152642 
1359	 0.409389258041529 
1360	 0.40704236582679 
1361	 0.388978942153826 
1362	 0.343751112316713 
1363	 0.318276123011802 
1364	 0.350834460374417 
1365	 0.346942931791587 
1366	 0.360935538337746 
1367	 0.354293882593475 
1368	 0.299733242641636 
1369	 0.296770768955856 
1370	 0.335823966648803 
1371	 0.334878331586976 
1372	 0.324743521321461 
1373	 0.323058974064246 
1374	 0.30885068182336 
1375	 0.296768973663984 
1376	 0.304766574036301 
1377	 0.308358230470734 
1378	 0.302639550817541 
1379	 0.289209529296156 
1380	 0.279676353551073 
1381	 0.262060880796976 
1382	 0.256179566349117 
1383	 0.257904971928825 
1384	 0.254818512491825 
1385	 0.258463942788552 
1386	 0.251293956124051 
1387	 0.239383480973385 
1388	 0.229224512532221 
1389	 0.21286562608365 
1390	 0.207638243177746 
1391	 0.207866650226592 
1392	 0.204875676949511 
1393	 0.206262206003323 
1394	 0.203153225923034 
1395	 0.195123123941548 
1396	 0.190484020618252 
1397	 0.186624220259986 
1398	 0.182607581446624 
1399	 0.17987539446664 
1400	 0.17647997736102 
1401	 0.171151576681137 
1402	 0.16816368770523 
1403	 0.167832509147015 
1404	 0.165039476111091 
1405	 0.162033996854681 
1406	 0.159762781205194 
1407	 0.155842374659109 
1408	 0.152097670046243 
1409	 0.149078923201197 
1410	 0.148519175948233 
1411	 0.14688983453202 
1412	 0.14525451857302 
1413	 0.143982118769768 
1414	 0.143063012304645 
1415	 0.141556701673905 
1416	 0.1400340728744 
1417	 0.139048598355404 
1418	 0.137725933940373 
1419	 0.136855447542289 
1420	 0.136466145537231 
1421	 0.136059678062695 
1422	 0.135996828149685 
1423	 0.135350902393896 
1424	 0.13412354704977 
1425	 0.133916058883196 
1426	 0.133894057027929 
1427	 0.133637480219018 
1428	 0.134537860056156 
1429	 0.134117014953741 
1430	 0.131917268605728 
1431	 0.131241761995285 
1432	 0.131137626459207 
1433	 0.130646781776109 
1434	 0.13056689950819 
1435	 0.130568948809303 
1436	 0.130379290120612 
1437	 0.130083835869421 
1438	 0.129847663657218 
1439	 0.129871093102661 
1440	 0.129873771233899 
1441	 0.129726250951934 
1442	 0.129595405994072 
1443	 0.130035896478316 
1444	 0.129666914777729 
1445	 0.129237002749815 
1446	 0.129995968584629 
1447	 0.130431139119594 
1448	 0.130738643042567 
1449	 0.131309829521183 
1450	 0.131587425195856 
1451	 0.131339254682825 
1452	 0.131737806328667 
1453	 0.132474184524657 
1454	 0.132879601372862 
1455	 0.133471704785839 
1456	 0.133653994257145 
1457	 0.133479071860547 
1458	 0.133578892355438 
1459	 0.133551680030458 
1460	 0.133747548657918 
1461	 0.134317948821527 
1462	 0.134514260547742 
1463	 0.134592641958423 
1464	 0.134748149226579 
1465	 0.134539135388982 
1466	 0.134870257569856 
1467	 0.135557076590133 
1468	 0.136250460223667 
1469	 0.137411636807241 
1470	 0.138134388336622 
1471	 0.13833948650358 
1472	 0.139189837538214 
1473	 0.140089391181389 
1474	 0.141115522616586 
1475	 0.142699732315371 
1476	 0.143949445516525 
1477	 0.14470449562088 
1478	 0.145965899752437 
1479	 0.147581098875066 
1480	 0.149004340280435 
1481	 0.150346362837635 
1482	 0.151975275770705 
1483	 0.15383913633273 
1484	 0.155293496429903 
1485	 0.156565766063872 
1486	 0.158172604345266 
1487	 0.159862921850518 
1488	 0.161090231969574 
1489	 0.162623586289177 
1490	 0.164272266758634 
1491	 0.165445831109207 
1492	 0.166629280525571 
1493	 0.168248710207622 
1494	 0.169826327485547 
1495	 0.171184016609191 
1496	 0.172449536162083 
1497	 0.1739863622035 
1498	 0.175491369703144 
1499	 0.177009343177258 
1500	 0.178869760849703 
1501	 0.180403281428644 
1502	 0.181689823908284 
1503	 0.183097983336871 
1504	 0.184434714333257 
1505	 0.186025514417194 
1506	 0.187793730165116 
1507	 0.189289778271638 
1508	 0.190907480349388 
1509	 0.192255237586925 
1510	 0.193056953885965 
1511	 0.194521004232752 
1512	 0.196300138803358 
1513	 0.197911296762757 
1514	 0.199895019624809 
1515	 0.201424896701425 
1516	 0.20256277068946 
1517	 0.203969900388576 
1518	 0.20533524398828 
1519	 0.20676851856982 
1520	 0.208346688158276 
1521	 0.209865197338337 
1522	 0.21136730148295 
1523	 0.212875245957715 
1524	 0.214413087993178 
1525	 0.215935009528211 
1526	 0.217466143679334 
1527	 0.218944477957109 
1528	 0.220461806036215 
1529	 0.22184549663572 
1530	 0.223045480407402 
1531	 0.224402954740178 
1532	 0.225740700646191 
1533	 0.227149855792065 
1534	 0.228740573217865 
1535	 0.230211719237781 
1536	 0.231648556792184 
1537	 0.233066857739081 
1538	 0.234511251314939 
1539	 0.235816814460084 
1540	 0.236965597164441 
1541	 0.238214700109763 
1542	 0.239385763848829 
1543	 0.240631501635078 
1544	 0.242013928641141 
1545	 0.24335272494213 
1546	 0.24463344609616 
1547	 0.245984258727434 
1548	 0.247507160897394 
1549	 0.248826735034187 
1550	 0.250028889160538 
1551	 0.251299403030958 
1552	 0.252449052380542 
1553	 0.25364231144395 
1554	 0.25507277027883 
1555	 0.256257163908113 
1556	 0.25712231620125 
1557	 0.258210390141682 
1558	 0.259245501313713 
1559	 0.260389387410222 
1560	 0.261961123334371 
1561	 0.263213181792462 
1562	 0.264153262660351 
1563	 0.265295681207979 
1564	 0.266404109965079 
1565	 0.267544654163651 
1566	 0.268766960124428 
1567	 0.269927221852916 
1568	 0.270971606679021 
1569	 0.271781785166141 
1570	 0.272783880788509 
1571	 0.273795532719334 
1572	 0.274969887620389 
1573	 0.276288273603661 
1574	 0.277355685519154 
1575	 0.278378513844936 
1576	 0.279570560710791 
1577	 0.280682430079179 
1578	 0.281737636984829 
1579	 0.282964733781989 
1580	 0.284032747357513 
1581	 0.284852199600398 
1582	 0.285779735252227 
1583	 0.286793066940537 
1584	 0.287812709942208 
1585	 0.288766624335127 
1586	 0.289716265977903 
1587	 0.290760542212135 
1588	 0.29176604564467 
1589	 0.29265556806093 
1590	 0.293629517726131 
1591	 0.294760392929839 
1592	 0.295692453435579 
1593	 0.296539284906379 
1594	 0.297331947794303 
1595	 0.298040309771472 
1596	 0.298759927469764 
1597	 0.299365328420666 
1598	 0.300152988623475 
1599	 0.301050159006416 
1600	 0.301839669733061 
1601	 0.302635457180282 
1602	 0.30352784429406 
1603	 0.304416809693807 
1604	 0.305259496382842 
1605	 0.306271354899894 
1606	 0.307000022588426 
1607	 0.30747166100592 
1608	 0.30808164912824 
1609	 0.308651833559982 
1610	 0.309254855428429 
1611	 0.309761030332242 
1612	 0.310623448885009 
1613	 0.3117585136465 
1614	 0.312507197093571 
1615	 0.313347117730958 
1616	 0.314061668514594 
1617	 0.314483365088581 
1618	 0.314938070646409 
1619	 0.315387681392812 
1620	 0.316033461913248 
1621	 0.316511499902505 
1622	 0.317321177643544 
1623	 0.318734002301919 
1624	 0.319375992606094 
1625	 0.319657859351389 
1626	 0.320228354126848 
1627	 0.320593630733616 
1628	 0.321093989144059 
1629	 0.321863433621119 
1630	 0.322476122353694 
1631	 0.32292971819164 
1632	 0.323439888771507 
1633	 0.32419035556835 
1634	 0.324465348622446 
1635	 0.324379088792113 
1636	 0.324559641974425 
1637	 0.324537091118378 
1638	 0.324849934817837 
1639	 0.325493576972995 
1640	 0.325893349543492 
1641	 0.326308158000454 
1642	 0.32659248685342 
1643	 0.326763529967416 
1644	 0.326992913106013 
1645	 0.327244531381974 
1646	 0.32735648484964 
1647	 0.32737951007822 
1648	 0.32743052526186 
1649	 0.327370832174238 
1650	 0.327394126307258 
1651	 0.327487675157792 
1652	 0.327555155922756 
1653	 0.327642484216941 
1654	 0.32760941339761 
1655	 0.327618776933488 
1656	 0.327441021136916 
1657	 0.327033969669443 
1658	 0.326514613747657 
1659	 0.326286810211721 
1660	 0.32596469144968 
1661	 0.325665574461305 
1662	 0.325976276836491 
1663	 0.32593407352352 
1664	 0.325742083887674 
1665	 0.326165259975843 
1666	 0.325969589023369 
1667	 0.325752716669084 
1668	 0.326056813582721 
1669	 0.326131801515447 
1670	 0.32630041695718 
1671	 0.326509340992599 
1672	 0.326494666304561 
1673	 0.326433377061222 
1674	 0.326311547560482 
1675	 0.326249805398641 
1676	 0.326156283697516 
1677	 0.326079872282783 
1678	 0.326194262803884 
1679	 0.326242818732277 
1680	 0.326329545362334 
1681	 0.326441096350663 
1682	 0.326459103874517 
1683	 0.326292762757821 
1684	 0.32609514097399 
1685	 0.326041184528722 
1686	 0.325789545443857 
1687	 0.325754308490875 
1688	 0.325658200327115 
1689	 0.324945540827929 
1690	 0.324331999515525 
1691	 0.323808657810482 
1692	 0.323234380019105 
1693	 0.322717954933842 
1694	 0.322352229227537 
1695	 0.321719269665423 
1696	 0.320838235258357 
1697	 0.320265723760075 
1698	 0.319814303128257 
1699	 0.319270396827035 
1700	 0.319023724658377 
1701	 0.318336851845347 
1702	 0.317138192327391 
1703	 0.316142036179741 
1704	 0.314760143557931 
1705	 0.314110942850225 
1706	 0.314303384432173 
1707	 0.313731906541358 
1708	 0.313189885493822 
1709	 0.312514544194499 
1710	 0.311044670578744 
1711	 0.31024064493031 
1712	 0.310240893828972 
1713	 0.309448735927606 
1714	 0.308144099648891 
1715	 0.307190010702675 
1716	 0.306021619843497 
1717	 0.305214273680169 
1718	 0.304971182352775 
1719	 0.304278646838464 
1720	 0.303363925691583 
1721	 0.302463961057405 
1722	 0.301472178410865 
1723	 0.300662291404557 
1724	 0.300006999037441 
1725	 0.299032023677231 
1726	 0.297725105323753 
1727	 0.296812982560642 
1728	 0.295877588256388 
1729	 0.29531145364033 
1730	 0.29544558880508 
1731	 0.294801855377285 
1732	 0.293923287653877 
1733	 0.293508953438148 
1734	 0.292906570527558 
1735	 0.292475419096876 
1736	 0.292505699239642 
1737	 0.291633738126689 
1738	 0.290466365114609 
1739	 0.290101106429308 
1740	 0.289215988914489 
1741	 0.287994820664747 
1742	 0.287828364072398 
1743	 0.287256466607911 
1744	 0.286005238044463 
1745	 0.286057697795912 
1746	 0.285681645548349 
1747	 0.284244001034992 
1748	 0.28374817960701 
1749	 0.282539891565409 
1750	 0.280875972562332 
1751	 0.280278696461204 
1752	 0.279537847885553 
1753	 0.279229838943308 
1754	 0.278979683065859 
1755	 0.277831880927872 
1756	 0.277041024475524 
1757	 0.276601261857297 
1758	 0.275598962436672 
1759	 0.274882273416507 
1760	 0.273844890973149 
1761	 0.27170015757307 
1762	 0.270422234105708 
1763	 0.269658667197023 
1764	 0.268737645577538 
1765	 0.267911768924764 
1766	 0.26734234271133 
1767	 0.267460398071525 
1768	 0.266543345255729 
1769	 0.264903236433665 
1770	 0.263993606534081 
1771	 0.262466470585229 
1772	 0.261977575536914 
1773	 0.263080622961073 
1774	 0.26239028747485 
1775	 0.261520326979412 
1776	 0.260108861999204 
1777	 0.258977251801113 
1778	 0.258184097213248 
1779	 0.257179316286429 
1780	 0.256722046888793 
1781	 0.256301119733191 
1782	 0.256067029368629 
1783	 0.256313687444531 
1784	 0.255784484544925 
1785	 0.255398342677183 
1786	 0.255121503051967 
1787	 0.25395589769737 
1788	 0.253077470545188 
1789	 0.252469158287514 
1790	 0.251663185728196 
1791	 0.252307690265068 
1792	 0.252984703684316 
1793	 0.251850406949179 
1794	 0.250695389382806 
1795	 0.248686289969786 
1796	 0.246727682611221 
1797	 0.247486500485914 
1798	 0.248960308227815 
1799	 0.249550038084658 
1800	 0.248651339954902 
1801	 0.238362398900425 
1802	 0.237043520477495 
1803	 0.236677694687476 
1804	 0.238675079007781 
1805	 0.238548181467292 
1806	 0.237852531991817 
1807	 0.237293031555009 
1808	 0.236581241914734 
1809	 0.232158236075313 
1810	 0.231528555776327 
1811	 0.233376910577953 
1812	 0.233826970437466 
1813	 0.236465493207376 
1814	 0.235368717290801 
1815	 0.230572929432771 
1816	 0.227560251951996 
1817	 0.221574452800548 
1818	 0.217824670372811 
1819	 0.215153262767387 
1820	 0.214095672467317 
1821	 0.214114366466688 
1822	 0.218876774936289 
1823	 0.219065479779313 
1824	 0.216436650630112 
1825	 0.218506213115223 
1826	 0.221787756108662 
1827	 0.223669809365073 
1828	 0.227327136673709 
1829	 0.240902106354757 
1830	 0.252406412709307 
1831	 0.261087558949022 
1832	 0.272425372304941 
1833	 0.312510652618677 
1834	 0.321576827449655 
1835	 0.264225309377072 
1836	 0.230856956087428 
1837	 0.184103928281785 
1838	 0.134776330034869 
1839	 8.48292749872173E-02 
1840	 1.70576680358605E-02 
1841	 4.61698542967126E-03 
1842	 2.18120729495304E-02 
1843	 3.70911506196536E-02 
1844	 0.112348271821409 
1845	 0.13921938982176 
1846	 0.140059558410019 
1847	 0.152762406403729 
1848	 0.164720034404934 
1849	 0.174355657949021 
1850	 0.170681962836888 
1851	 0.13928692394263 
1852	 0.163830790693542 
1853	 0.249773153920346 
1854	 0.254087083938692 
1855	 0.232836041407634 
1856	 0.23459901468962 
1857	 0.197407850188632 
1858	 0.170905995493578 
1859	 0.172684875771236 
1860	 0.218807909171819 
1861	 0.233581782016848 
1862	 0.246270093384203 
1863	 0.248011431746472 
1864	 0.236054445001734 
1865	 0.240510179305703 
1866	 0.257608154447158 
1867	 0.253994762652827 
1868	 0.246540720492073 
1869	 0.221705189534075 
1870	 0.215383786051379 
1871	 0.182437895110759 
1872	 0.18794779162376 
1873	 0.271944901087221 
1874	 0.259161655116243 
1875	 0.204320244117688 
1876	 0.176385989061079 
1877	 0.140614389192256 
1878	 9.73449001966828E-02 
1879	 8.52264226228944E-02 
1880	 9.73875032942963E-02 
1881	 9.22442539389585E-02 
1882	 8.39888810327739E-02 
1883	 8.71474004389516E-02 
1884	 8.71638758148943E-02 
1885	 0.086166821222877 
1886	 9.09859462400193E-02 
1887	 0.10075472166047 
1888	 8.79687043114897E-02 
1889	 8.00186802088528E-02 
1890	 7.23537074444859E-02 
1891	 5.86112922332399E-02 
1892	 5.33243157869373E-02 
1893	 0.056157873478422 
1894	 5.73070692651566E-02 
1895	 4.47854856452833E-02 
1896	 0.045180730189233 
1897	 6.66007572545176E-02 
1898	 8.80413671376391E-02 
1899	 5.34742931647091E-02 
1900	 8.57722557286624E-02 
1901	 9.78620644160774E-02 
1902	 5.76747089303877E-02 
1903	 5.66196013624894E-02 
1904	 0.135220704556935 
1905	 0.144937021258149 
1906	 0.118068172929962 
1907	 6.83036860284071E-02 
1908	 3.56644268800265E-02 
1909	 1.38914063747219E-02 
1910	 1.66027723869769E-02 
1911	 1.77779053882992E-02 
1912	 3.02699294513452E-02 
1913	 6.61480097387363E-02 
1914	 6.04853900667801E-02 
1915	 4.55978266701068E-02 
1916	 0.039289726846113 
1917	 1.79305233681933E-02 
1918	 1.09642957794854E-02 
1919	 3.10180349822634E-02 
1920	 3.31741599645546E-02 
1921	 4.51723866110043E-02 
1922	 5.27945232422921E-02 
1923	 0.059688187369551 
1924	 7.06730241302593E-02 
1925	 7.42987644966256E-02 
1926	 7.82843667976844E-02 
1927	 0.075793226315925 
1928	 6.90373844323341E-02 
1929	 4.36355246532008E-02 
1930	 4.39662385513254E-02 
1931	 4.93751194131437E-02 
1932	 4.37297629227001E-02 
1933	 5.07133388536541E-02 
1934	 5.12488530951817E-02 
1935	 4.14145918091602E-02 
1936	 3.95752396682579E-02 
1937	 4.51455655883393E-02 
1938	 4.57663301707005E-02 
1939	 4.28516736873884E-02 
1940	 4.58824696470114E-02 
1941	 4.94297520064025E-02 
1942	 4.98327930516825E-02 
1943	 5.48500146862563E-02 
1944	 5.66215760164258E-02 
1945	 5.53197115407228E-02 
1946	 5.28050594779304E-02 
1947	 5.19378218646075E-02 
1948	 5.00588720797283E-02 
1949	 5.19722922471218E-02 
1950	 5.71169283966424E-02 
1951	 5.97637625363633E-02 
1952	 6.33992176531787E-02 
1953	 0.062716644105255 
1954	 6.01336357139703E-02 
1955	 6.09497042920975E-02 
1956	 6.21740475795334E-02 
1957	 6.32881525290481E-02 
1958	 6.42834041733398E-02 
1959	 6.54752082139222E-02 
1960	 6.59383310597859E-02 
1961	 6.68494974780203E-02 
1962	 6.60749421159472E-02 
1963	 6.39730887224617E-02 
1964	 6.25577428546678E-02 
1965	 6.03862896049122E-02 
1966	 5.85355525782643E-02 
1967	 5.92715494788406E-02 
1968	 5.86702615867972E-02 
1969	 5.88964089422149E-02 
1970	 6.04434368916314E-02 
1971	 6.16221841788506E-02 
1972	 6.26260078988449E-02 
1973	 6.37629079873858E-02 
1974	 6.48863311087594E-02 
1975	 0.063821765335977 
1976	 6.27343114703844E-02 
1977	 6.33215664692122E-02 
1978	 6.40631670711069E-02 
1979	 0.065069241653644 
1980	 0.065314160529698 
1981	 6.41904276494255E-02 
1982	 6.40638105036768E-02 
1983	 6.35237879881971E-02 
1984	 0.063986663281356 
1985	 6.54559714986305E-02 
1986	 6.65473042187001E-02 
1987	 6.69325988288441E-02 
1988	 6.71252409910091E-02 
1989	 6.61284958205752E-02 
1990	 6.62184531480653E-02 
1991	 6.74599384643695E-02 
1992	 6.82465596644199E-02 
1993	 6.88801566106985E-02 
1994	 0.069169150136273 
1995	 6.97124359431715E-02 
1996	 6.98500913925242E-02 
1997	 0.069607629449402 
1998	 7.04799003602181E-02 
1999	 7.09976713123579E-02 
2000	 6.91723439208226E-02 
2001	 6.87504929863465E-02 
2002	 6.92524937332691E-02 
2003	 6.91018724580091E-02 
2004	 7.20409294949087E-02 
2005	 7.49448011582436E-02 
2006	 7.59398314306042E-02 
2007	 7.43881159044912E-02 
2008	 7.66775140887573E-02 
2009	 8.11256535138079E-02 
2010	 8.24200774238985E-02 
2011	 0.083558967913455 
2012	 8.40258514668435E-02 
2013	 0.080051058200245 
2014	 7.65448720381251E-02 
2015	 7.82142560303389E-02 
2016	 0.081889794347086 
2017	 8.36230360381826E-02 
2018	 8.41143897765353E-02 
2019	 8.45605669105053E-02 
2020	 8.41021691597839E-02 
2021	 8.24325432658535E-02 
2022	 8.24417012230654E-02 
2023	 8.29847178229318E-02 
2024	 8.33182397089725E-02 
2025	 8.41711739338458E-02 
2026	 8.35599853097973E-02 
2027	 8.27797434950323E-02 
2028	 8.27350825641908E-02 
2029	 8.29358941352779E-02 
2030	 0.083671999773713 
2031	 8.51710524974622E-02 
2032	 8.63848210632199E-02 
2033	 8.78768667112792E-02 
2034	 8.82362762120461E-02 
2035	 8.88122997515917E-02 
2036	 0.089387211944572 
2037	 8.90816696179967E-02 
2038	 8.91610600375413E-02 
2039	 9.03118657557534E-02 
2040	 9.04743288000243E-02 
2041	 8.98937696678759E-02 
2042	 9.00852833230272E-02 
2043	 9.06857619855759E-02 
2044	 9.10566909736447E-02 
2045	 9.12454802740608E-02 
2046	 9.23096581846059E-02 
2047	 0.093580289163964 
2048	 9.29515868614671E-02 
2049	 9.28315532133777E-02 
2050	 9.46911077658086E-02 
2051	 9.54289439081037E-02 
2052	 9.50730033541013E-02 
2053	 9.56393846279104E-02 
2054	 9.66209566983435E-02 
2055	 9.78329801217649E-02 
2056	 9.95675249796441E-02 
2057	 0.100220497685136 
2058	 9.98273314817438E-02 
2059	 0.099618821405508 
2060	 9.82227195267228E-02 
2061	 9.86571648639803E-02 
2062	 0.10019599545944 
2063	 0.101257666931093 
2064	 0.102723626751242 
2065	 0.102021033908751 
2066	 0.101879623134789 
2067	 0.102367006011284 
2068	 0.101677099643343 
2069	 0.103025355647479 
2070	 0.103200752879388 
2071	 0.103558398146892 
2072	 0.104802342108372 
2073	 0.10768087223822 
2074	 0.108113671296469 
2075	 0.108136692806537 
2076	 0.107763431601305 
2077	 0.106654466510274 
2078	 0.106675753885058 
2079	 0.106878863504945 
2080	 0.107272807390567 
2081	 0.108062106394769 
2082	 0.108717632427924 
2083	 0.11051629475516 
2084	 0.112249273402755 
2085	 0.111290563130658 
2086	 0.110650631843322 
2087	 0.110898255775372 
2088	 0.110929308091975 
2089	 0.111031754651125 
2090	 0.112783457225171 
2091	 0.114611735170138 
2092	 0.115159275768575 
2093	 0.114814652628029 
2094	 0.115388640474702 
2095	 0.115865682931801 
2096	 0.114989633840254 
2097	 0.114610856084973 
2098	 0.114159225150037 
2099	 0.112786758562398 
2100	 0.113591472973787 
2101	 0.115775302729723 
2102	 0.117168995136262 
2103	 0.118710155117184 
2104	 0.121019791195372 
2105	 0.122405384788059 
2106	 0.122454385089075 
2107	 0.123314641747028 
2108	 0.12411187241221 
2109	 0.123504653142243 
2110	 0.122930136036323 
2111	 0.123226740386755 
2112	 0.123491683507852 
2113	 0.12413560779701 
2114	 0.126050124245648 
2115	 0.126855519510356 
2116	 0.125808490708065 
2117	 0.125791117307939 
2118	 0.125879866613329 
2119	 0.125735105801062 
2120	 0.125405669882035 
2121	 0.126402163669973 
2122	 0.12714013886774 
2123	 0.127296239214964 
2124	 0.127550284886481 
2125	 0.129015176719882 
2126	 0.12982870182252 
2127	 0.129372216253576 
2128	 0.130712598394328 
2129	 0.131327216034085 
2130	 0.13063072346479 
2131	 0.130609596309305 
2132	 0.130503993478815 
2133	 0.130166370762915 
2134	 0.129764674083729 
2135	 0.129421018187447 
2136	 0.12998061532896 
2137	 0.130035800666885 
2138	 0.129434737672307 
2139	 0.130119350865152 
2140	 0.131131997646374 
2141	 0.13106844537073 
2142	 0.131566300005207 
2143	 0.132705505518461 
2144	 0.132832461149564 
2145	 0.133058699211583 
2146	 0.132284629296987 
2147	 0.131119333321249 
2148	 0.130578835343318 
2149	 0.13028702553065 
2150	 0.131313355726409 
2151	 0.132041958706346 
2152	 0.133060253902064 
2153	 0.133563673984438 
2154	 0.133980312849188 
2155	 0.134162496064459 
2156	 0.133799458624901 
2157	 0.133771784825612 
2158	 0.134828628828989 
2159	 0.135891662071195 
2160	 0.136674076093669 
2161	 0.138684266294803 
2162	 0.13881843652334 
2163	 0.137116490530655 
2164	 0.137970981903908 
2165	 0.138493309917254 
2166	 0.137584270506541 
2167	 0.138670546198624 
2168	 0.139877752048546 
2169	 0.140211693706093 
2170	 0.140533665883545 
2171	 0.141665901223958 
2172	 0.14393305714355 
2173	 0.143314706432761 
2174	 0.144329245325296 
2175	 0.145280644922572 
2176	 0.145089446518872 
2177	 0.145785343384426 
2178	 0.145297148036907 
2179	 0.145482662543756 
2180	 0.145377284551389 
2181	 0.145424225150662 
2182	 0.146177535072693 
2183	 0.146063603959548 
2184	 0.147051569607225 
2185	 0.146815772994956 
2186	 0.146078780237118 
2187	 0.146241272837306 
2188	 0.147133169278568 
2189	 0.146609483070247 
2190	 0.145466232442138 
2191	 0.146008671517279 
2192	 0.14567268341932 
2193	 0.146180409949283 
2194	 0.147892280993951 
2195	 0.14807478165964 
2196	 0.147085692709255 
2197	 0.147103117604262 
2198	 0.147746630576539 
2199	 0.149386299568662 
2200	 0.151270963445546 
2201	 0.151217754512455 
2202	 0.152513198656864 
2203	 0.152574094882305 
2204	 0.151795355126349 
2205	 0.153932227713195 
2206	 0.154417870774265 
2207	 0.153594970803306 
2208	 0.153173732060155 
2209	 0.152943043830884 
2210	 0.152507036354727 
2211	 0.151307342252873 
2212	 0.151416482610957 
2213	 0.152601759810298 
2214	 0.152658541988437 
2215	 0.153011822866107 
2216	 0.152570447631342 
2217	 0.152058570993 
2218	 0.151991239578323 
2219	 0.152027790051226 
2220	 0.153586193614799 
2221	 0.154447922629149 
2222	 0.154860332103161 
2223	 0.155907104680648 
2224	 0.154510443144628 
2225	 0.153028669614006 
2226	 0.153745160345293 
2227	 0.152524863634586 
2228	 0.151638114837994 
2229	 0.15263335727119 
2230	 0.152275840961475 
2231	 0.152450058884141 
2232	 0.154205843581184 
2233	 0.154319504660638 
2234	 0.153668372704463 
2235	 0.15288003146072 
2236	 0.151486267055756 
2237	 0.150416809826925 
2238	 0.150764117218114 
2239	 0.150323781385878 
2240	 0.148704941157919 
2241	 0.147125675260722 
2242	 0.145216289345872 
2243	 0.144720059324574 
2244	 0.146013761118516 
2245	 0.148167416503158 
2246	 0.150100964345065 
2247	 0.150875059971328 
2248	 0.152480992045652 
2249	 0.151593492842124 
2250	 0.148824516873935 
2251	 0.146694671020744 
2252	 0.144033938891741 
2253	 0.143471410167477 
2254	 0.145883335309723 
2255	 0.147347429384231 
2256	 0.146179506049278 
2257	 0.142361852158432 
2258	 0.140481487832533 
2259	 0.139281969160578 
2260	 0.138109051584683 
2261	 0.142554606788147 
2262	 0.143701713480552 
2263	 0.140605836553961 
2264	 0.139749810554351 
2265	 0.138386352539433 
2266	 0.138405411823797 
2267	 0.140243130955392 
2268	 0.141289546927237 
2269	 0.141341017253535 
2270	 0.140451711817634 
2271	 0.139532376422311 
2272	 0.13735740667215 
2273	 0.135042727293985 
2274	 0.134599993957699 
2275	 0.133881360618636 
2276	 0.132715587285661 
2277	 0.133269478434291 
2278	 0.13285144109789 
2279	 0.129095407283464 
2280	 0.126359381307064 
2281	 0.125673109227963 
2282	 0.124597734325237 
2283	 0.124813108072617 
2284	 0.127422733077167 
2285	 0.129925120415044 
2286	 0.13074553231955 
2287	 0.130071650534174 
2288	 0.130261735638669 
2289	 0.13128626299676 
2290	 0.131170490563338 
2291	 0.133169861548059 
2292	 0.134255874648274 
2293	 0.132424425475156 
2294	 0.130462775994998 
2295	 0.127812568785911 
2296	 0.125281355283229 
2297	 0.124463768712284 
2298	 0.125393729717996 
2299	 0.121914025636553 
2300	 0.120877985792684 
2301	 0.121356545304228 
2302	 0.115591867547807 
2303	 0.115659684577137 
2304	 0.115951353465547 
2305	 0.115220375972692 
2306	 0.11762427550983 
2307	 0.117016075720356 
2308	 0.118085270443274 
2309	 0.118006789850271 
2310	 0.116872634581623 
2311	 0.117939392303797 
2312	 0.116049791818018 
2313	 0.113624403327372 
2314	 0.113498262717026 
2315	 0.111325852781923 
2316	 0.110038424690475 
2317	 0.112618155211015 
2318	 0.113317999051789 
2319	 0.114915097603116 
2320	 0.117185961719821 
2321	 0.117377320400879 
2322	 0.114630857940639 
2323	 0.113807939869651 
2324	 0.112745186154383 
2325	 0.110922943322128 
2326	 0.113630705988487 
2327	 0.116600271417185 
2328	 0.117260363585777 
2329	 0.1187372648587 
2330	 0.117510435747929 
2331	 0.111881714391283 
2332	 0.105942940462293 
2333	 0.102674600286391 
2334	 9.97945959395582E-02 
2335	 0.099737570671844 
2336	 0.101513757156927 
2337	 0.100555709400398 
2338	 0.100917263632444 
2339	 9.90320386439144E-02 
2340	 9.70399331847934E-02 
2341	 0.102881983035158 
2342	 0.107974852265678 
2343	 0.108986042540452 
2344	 0.109626983213368 
2345	 0.10463674622331 
2346	 0.102436353916733 
2347	 0.104377991696236 
2348	 0.10578595933787 
2349	 0.109384114866877 
2350	 0.108819055269135 
2351	 0.109144853035895 
2352	 0.10660736555137 
2353	 0.102939495418933 
2354	 0.102724761135862 
2355	 9.90474047436317E-02 
2356	 9.90404726585755E-02 
2357	 0.10138530534296 
2358	 0.10326975542272 
2359	 0.105229088438785 
2360	 0.10504784040737 
2361	 0.104245571716856 
2362	 9.97486703835109E-02 
2363	 9.47922157532939E-02 
2364	 9.01621641908468E-02 
2365	 8.36371043027061E-02 
2366	 8.52536229350598E-02 
2367	 8.76006973854957E-02 
2368	 8.58044416654185E-02 
2369	 8.96113062324763E-02 
2370	 8.83850719817532E-02 
2371	 7.72982004675431E-02 
2372	 7.83504302013118E-02 
2373	 0.091758476893026 
2374	 9.76906717517389E-02 
2375	 0.109705916540843 
2376	 0.113333072375715 
2377	 0.102447106770359 
2378	 0.098598061291382 
2379	 9.77564153211726E-02 
2380	 9.42350161951305E-02 
2381	 9.26527286496022E-02 
2382	 8.97189212053123E-02 
2383	 7.92655770229041E-02 
2384	 7.81759563493514E-02 
2385	 8.54101849972286E-02 
2386	 8.83095219243612E-02 
2387	 9.58953321959083E-02 
2388	 9.65502714960414E-02 
2389	 8.76999409757198E-02 
2390	 8.69553650492376E-02 
2391	 9.06620976537955E-02 
2392	 0.086920707767603 
2393	 8.03384654706786E-02 
2394	 7.76828325797799E-02 
2395	 6.99852942013631E-02 
2396	 6.90836381777851E-02 
2397	 8.27782515764904E-02 
2398	 8.40057678319109E-02 
2399	 7.64443836903719E-02 
2400	 7.36686395974224E-02 
2401	 6.65753227274018E-02 
2402	 6.41915137646279E-02 
2403	 6.75583165053048E-02 
2404	 7.30628509052395E-02 
2405	 7.92797926290952E-02 
2406	 8.47158778721268E-02 
2407	 0.103144148451728 
2408	 0.113157809198871 
2409	 0.104468485625454 
2410	 0.102190933108007 
2411	 9.35391960492608E-02 
2412	 8.45121809275755E-02 
2413	 0.106913406583184 
2414	 0.116947980939655 
2415	 0.104747425229023 
2416	 9.87555845308826E-02 
2417	 6.67315093154569E-02 
2418	 4.75752805597914E-02 
2419	 0.054212614022951 
2420	 4.21479587867678E-02 
2421	 4.42020299476363E-02 
2422	 5.78683761858597E-02 
2423	 6.27064484661298E-02 
2424	 6.94035110300759E-02 
2425	 7.46138252462368E-02 
2426	 6.87343762183771E-02 
2427	 4.79360641916996E-02 
2428	 4.06988872304296E-02 
2429	 5.44986276713127E-02 
2430	 6.63311074154601E-02 
2431	 7.66492666986667E-02 
2432	 9.77995727729171E-02 
2433	 9.11123232359245E-02 
2434	 8.62365112550678E-02 
2435	 9.53506245770411E-02 
2436	 8.58646459105873E-02 
2437	 4.56635149600493E-02 
2438	 4.06243682949182E-02 
2439	 4.21198697987026E-02 
2440	 4.95689999347675E-02 
2441	 9.58252194680003E-02 
2442	 0.114672271326019 
2443	 0.122730069966579 
2444	 0.114562210484915 
2445	 7.55082797348205E-02 
2446	 6.92340679700122E-02 
2447	 7.02201718078906E-02 
2448	 7.17048434262369E-02 
2449	 0.100464863645089 
2450	 0.100970539394167 
2451	 6.83128439405822E-02 
2452	 6.76905152950345E-02 
2453	 7.78527564806663E-02 
2454	 8.04486124571393E-02 
2455	 0.104215687274534 
2456	 9.44983064430802E-02 
2457	 5.74289498452857E-02 
2458	 4.94447901383663E-02 
2459	 3.63995521815001E-02 
2460	 3.70784278326036E-02 
2461	 6.63366707667136E-02 
2462	 0.065390932683293 
2463	 4.63440921040827E-02 
2464	 4.10596977287243E-02 
2465	 2.12307535596248E-02 
2466	 2.51994973131312E-02 
2467	 0.053480091868839 
2468	 8.56696390521921E-02 
2469	 0.160128935046876 
2470	 0.195742665121009 
2471	 0.199953812092709 
2472	 0.226106740840263 
2473	 0.23333423929777 
2474	 0.217215175758353 
2475	 0.231801235074297 
2476	 0.212235009510415 
2477	 0.087988594216352 
2478	 0.052114590603527 
2479	 0.05201913316577 
2480	 4.36381493824931E-02 
2481	 0.106887405584383 
2482	 0.104162577024975 
2483	 6.55187126401955E-02 
2484	 9.35932381829868E-02 
2485	 0.165444683091025 
2486	 0.246750512546959 
2487	 0.107365759200529 
2488	 9.75830338808243E-02 
2489	 2.95007627157679E-02 
2490	 0.107171923254996 
2491	 0.486000766413467 
2492	 0.546444023360791 
2493	 0.614138346904646 
2494	 0.431827870254948 
2495	 0.240932924492874 
2496	 0.174361404635692 
2497	-0.01530344797285 
2498	 0.217072169495967 
2499	 0.367901699463349 
2500	 0.262587148833462 
