Wavelength	ref00125.asd
350	 0.535215339933682 
351	 0.559624662700404 
352	 0.558661013744175 
353	 0.516956884008381 
354	 0.535411092035937 
355	 0.556903446240806 
356	 0.532717541817609 
357	 0.489203325867569 
358	 0.519565424366372 
359	 0.555101685791612 
360	 0.514764423533518 
361	 0.506608203188227 
362	 0.509119173860502 
363	 0.511064770528784 
364	 0.510239072728004 
365	 0.509120524729151 
366	 0.509700787445729 
367	 0.507032245894341 
368	 0.486256012178322 
369	 0.490059978761306 
370	 0.49385374000594 
371	 0.477723559358793 
372	 0.486923618234589 
373	 0.485727190434865 
374	 0.47425840280084 
375	 0.469327234329439 
376	 0.470931927171061 
377	 0.473197575073941 
378	 0.472211049225696 
379	 0.467284462119002 
380	 0.462730015511011 
381	 0.456676699095094 
382	 0.448399954707664 
383	 0.443350300882253 
384	 0.441404983394468 
385	 0.440141001070444 
386	 0.436846977089585 
387	 0.435417293028786 
388	 0.429531339050044 
389	 0.422463952464995 
390	 0.425694704354576 
391	 0.42403636938155 
392	 0.420809418197912 
393	 0.4187325875108 
394	 0.411414973119841 
395	 0.408015926578558 
396	 0.407947862181787 
397	 0.406876996365222 
398	 0.4002389987283 
399	 0.394331749164314 
400	 0.391346657916835 
401	 0.389888953741168 
402	 0.388399854739613 
403	 0.385792271914233 
404	 0.382350187198983 
405	 0.380747430367622 
406	 0.376712949097865 
407	 0.371654195473459 
408	 0.36844161283021 
409	 0.366992512788078 
410	 0.366766797272609 
411	 0.36562085204639 
412	 0.360834241513814 
413	 0.359035631186418 
414	 0.360848646336956 
415	 0.36304645643191 
416	 0.356193524142537 
417	 0.35388276781963 
418	 0.353390885779942 
419	 0.348803960522332 
420	 0.346239296706544 
421	 0.348527999098306 
422	 0.352078586217806 
423	 0.348937585896952 
424	 0.348022384829129 
425	 0.348702386874073 
426	 0.349276119314218 
427	 0.349243579696624 
428	 0.349288454362487 
429	 0.348767525604959 
430	 0.347267976102107 
431	 0.347651609329137 
432	 0.348036476083341 
433	 0.34751870352791 
434	 0.346396475392871 
435	 0.347436264539487 
436	 0.348341031128747 
437	 0.347671668691061 
438	 0.347176962185117 
439	 0.347591257611187 
440	 0.347650204754632 
441	 0.346146008838656 
442	 0.346119073254343 
443	 0.346677042504641 
444	 0.347600245121842 
445	 0.34935123496308 
446	 0.347291169654569 
447	 0.345879247970069 
448	 0.347623925787248 
449	 0.346608440602964 
450	 0.345134314865143 
451	 0.344790271738185 
452	 0.346093312844564 
453	 0.344396584981446 
454	 0.343226979756754 
455	 0.343730733434593 
456	 0.343654944024871 
457	 0.343196130263189 
458	 0.341937994261443 
459	 0.339960740092424 
460	 0.338786043127155 
461	 0.339166120181634 
462	 0.339284658016594 
463	 0.336673811526038 
464	 0.335983231486263 
465	 0.336329745082394 
466	 0.336270093907798 
467	 0.334473669212125 
468	 0.332167535678377 
469	 0.330524396768335 
470	 0.330072746730647 
471	 0.329125770245867 
472	 0.328656556903247 
473	 0.328475057920465 
474	 0.327637403389701 
475	 0.326595117190859 
476	 0.32572125135996 
477	 0.325011039551846 
478	 0.323729565018573 
479	 0.323339546284149 
480	 0.323547271877463 
481	 0.323409984523178 
482	 0.322069923306101 
483	 0.320651829856116 
484	 0.319865146545153 
485	 0.319793565651723 
486	 0.317941658540784 
487	 0.316403647939028 
488	 0.316789148046666 
489	 0.317238752872427 
490	 0.317121633719318 
491	 0.31663859342625 
492	 0.316426158728417 
493	 0.316827277051267 
494	 0.317359840186942 
495	 0.318025602349296 
496	 0.319467155631467 
497	 0.319609403664554 
498	 0.320149722852617 
499	 0.322591239435605 
500	 0.324823587618024 
501	 0.326843894999848 
502	 0.328819522531511 
503	 0.331112405631706 
504	 0.334267110256091 
505	 0.337086228522547 
506	 0.339786757179659 
507	 0.345241151168645 
508	 0.350045976210805 
509	 0.35448254075834 
510	 0.359769287075446 
511	 0.365713373010956 
512	 0.373051580873697 
513	 0.381140299697328 
514	 0.38842463652012 
515	 0.396696257186943 
516	 0.406419213940626 
517	 0.417230684878552 
518	 0.427540650631949 
519	 0.43769218219368 
520	 0.447877123118278 
521	 0.458307117043601 
522	 0.469012992301824 
523	 0.479050789714339 
524	 0.488843479059072 
525	 0.500096477235705 
526	 0.510002771974902 
527	 0.519716848216895 
528	 0.530225443129709 
529	 0.53917005822669 
530	 0.547064054392756 
531	 0.554649827272991 
532	 0.562589870015577 
533	 0.568801243206632 
534	 0.574646302747388 
535	 0.580788105034571 
536	 0.586207864493285 
537	 0.589737930649265 
538	 0.593015191527971 
539	 0.597743090820156 
540	 0.601631370006477 
541	 0.605033249488447 
542	 0.607800945387283 
543	 0.60944466636191 
544	 0.612036718877745 
545	 0.614592297825474 
546	 0.616397963821361 
547	 0.618525751642337 
548	 0.620655882188059 
549	 0.622393397774873 
550	 0.623403689625901 
551	 0.62414717966931 
552	 0.624048638656335 
553	 0.623083141524017 
554	 0.621935414435847 
555	 0.619160843688233 
556	 0.615638277990373 
557	 0.612318351244267 
558	 0.608717871180456 
559	 0.603657550389735 
560	 0.597678945635526 
561	 0.592286225917883 
562	 0.58678014322773 
563	 0.580449272113504 
564	 0.573328588286899 
565	 0.566758870425101 
566	 0.559967307536405 
567	 0.552570657648199 
568	 0.544571438356716 
569	 0.537243922387491 
570	 0.529271592481792 
571	 0.520909812735662 
572	 0.513823630540767 
573	 0.506777050543721 
574	 0.499558050193321 
575	 0.492281895842116 
576	 0.485502807806195 
577	 0.479052613389996 
578	 0.473183854905792 
579	 0.468183131231738 
580	 0.463557151258882 
581	 0.458503924078828 
582	 0.45326888524673 
583	 0.449444328858854 
584	 0.445312288788115 
585	 0.441224184440857 
586	 0.437728618746302 
587	 0.433959076258573 
588	 0.430235057490453 
589	 0.426781088809243 
590	 0.423731337328687 
591	 0.420270056249987 
592	 0.417849655263213 
593	 0.416641518607992 
594	 0.414223812632633 
595	 0.41191285794514 
596	 0.409786679226417 
597	 0.40760534745091 
598	 0.405552173884956 
599	 0.403555778751435 
600	 0.401730134309717 
601	 0.400321204314932 
602	 0.397694771474992 
603	 0.394890153060185 
604	 0.392690015142904 
605	 0.389731597437986 
606	 0.386537171457309 
607	 0.383182902511933 
608	 0.379560971852156 
609	 0.375693540212178 
610	 0.371898991637799 
611	 0.368181540052262 
612	 0.364058446490969 
613	 0.360295507954226 
614	 0.356760712289441 
615	 0.353126695783809 
616	 0.349209356832526 
617	 0.345558185137868 
618	 0.342472585389447 
619	 0.339922269158169 
620	 0.337330528758312 
621	 0.335233182078099 
622	 0.333610342475158 
623	 0.331008486156686 
624	 0.329320205523112 
625	 0.328020334124287 
626	 0.32612009836993 
627	 0.324911889450459 
628	 0.324237729279957 
629	 0.323554131126336 
630	 0.322109767502842 
631	 0.321364099830432 
632	 0.320428889372781 
633	 0.318599412487601 
634	 0.316749595665571 
635	 0.314832749450505 
636	 0.312683079786743 
637	 0.310071338312062 
638	 0.306819393707375 
639	 0.303555714891735 
640	 0.300323385834876 
641	 0.296445484472755 
642	 0.292691867023938 
643	 0.288772388599528 
644	 0.284449655115408 
645	 0.280669216858079 
646	 0.276692331458291 
647	 0.272747020654346 
648	 0.269599110403905 
649	 0.26692040660917 
650	 0.264592035102069 
651	 0.26235641882521 
652	 0.259562444598157 
653	 0.257877892846359 
654	 0.256468394760397 
655	 0.25411424403508 
656	 0.251624531563473 
657	 0.249397792638716 
658	 0.247042477301533 
659	 0.24346452021048 
660	 0.241199815166173 
661	 0.238429135536025 
662	 0.234436661588267 
663	 0.231513077695573 
664	 0.228625219233278 
665	 0.225443629446339 
666	 0.222160202527565 
667	 0.220501875788414 
668	 0.219049107913928 
669	 0.216986563306762 
670	 0.214321920009923 
671	 0.2133748698056 
672	 0.212640163887744 
673	 0.211107720419184 
674	 0.210567351189466 
675	 0.210036734293594 
676	 0.209762702591789 
677	 0.210165459027023 
678	 0.209953401395147 
679	 0.210049704520767 
680	 0.2109911094792 
681	 0.212726129934729 
682	 0.2145777407382 
683	 0.217025927886781 
684	 0.220425794103651 
685	 0.224094414052463 
686	 0.229596472276053 
687	 0.237365192911789 
688	 0.246428143796513 
689	 0.256192695268954 
690	 0.266931373208007 
691	 0.279468805886168 
692	 0.294329675989592 
693	 0.311685232786627 
694	 0.331036411373345 
695	 0.351866311184963 
696	 0.374192477961791 
697	 0.398517073769861 
698	 0.424401525601177 
699	 0.450772834996414 
700	 0.477162942407629 
701	 0.503855230045827 
702	 0.531308725977293 
703	 0.560092956988047 
704	 0.588217338713807 
705	 0.61558057984705 
706	 0.642778261074519 
707	 0.670272290160926 
708	 0.697667491035447 
709	 0.725169276356317 
710	 0.752869947978276 
711	 0.780087218656005 
712	 0.807748831983512 
713	 0.835923770754789 
714	 0.863701877282927 
715	 0.890547395853148 
716	 0.916135111655842 
717	 0.941473802289652 
718	 0.968240032839497 
719	 0.997389522852336 
720	 1.02822975986736 
721	 1.05891598858504 
722	 1.08674125858828 
723	 1.11303333523639 
724	 1.13958153017023 
725	 1.16556090178399 
726	 1.19203252828182 
727	 1.21806845815356 
728	 1.24350146830407 
729	 1.26892263890772 
730	 1.29253802486658 
731	 1.31550268307453 
732	 1.33948302228294 
733	 1.36144564130392 
734	 1.38165424478051 
735	 1.40053201114941 
736	 1.41807338419626 
737	 1.43487604688658 
738	 1.45026937581652 
739	 1.46436607528826 
740	 1.47874474303667 
741	 1.4918959853224 
742	 1.50361425553958 
743	 1.51405781366949 
744	 1.52339961547467 
745	 1.53143282331872 
746	 1.53868072065372 
747	 1.54602772070898 
748	 1.55211948241457 
749	 1.55678658447962 
750	 1.56059109467413 
751	 1.56501506907948 
752	 1.56779178993723 
753	 1.57014835804677 
754	 1.57321832857589 
755	 1.5741765596378 
756	 1.57536614312154 
757	 1.57648053070837 
758	 1.57609474225726 
759	 1.57796404999325 
760	 1.58005085594167 
761	 1.57979396724366 
762	 1.57750814729493 
763	 1.57646360740729 
764	 1.57511620732847 
765	 1.57296130481423 
766	 1.57316506256365 
767	 1.57147306137458 
768	 1.56901439681161 
769	 1.56770099050424 
770	 1.56581220203485 
771	 1.56416552444865 
772	 1.56289826045988 
773	 1.56140763567418 
774	 1.55836382514642 
775	 1.55610067135775 
776	 1.55520146227819 
777	 1.55240361579245 
778	 1.54995058706385 
779	 1.54800914554724 
780	 1.54622415670937 
781	 1.54445011347522 
782	 1.54266701622945 
783	 1.54086230122341 
784	 1.53892534266081 
785	 1.5360781081669 
786	 1.53300160354746 
787	 1.53020247486899 
788	 1.52782107566141 
789	 1.52496582783541 
790	 1.52258133142248 
791	 1.5210467551401 
792	 1.51888500902737 
793	 1.51689866950778 
794	 1.51506044402778 
795	 1.51296905641037 
796	 1.50967079426017 
797	 1.50725855302758 
798	 1.50574045047484 
799	 1.50391370236602 
800	 1.50200235573453 
801	 1.49931561612229 
802	 1.49645701924824 
803	 1.49533587372809 
804	 1.49418154244058 
805	 1.49203291760327 
806	 1.4892020799823 
807	 1.48823163185003 
808	 1.48618264965596 
809	 1.48345776031621 
810	 1.4809107256862 
811	 1.4767398280831 
812	 1.47257325648968 
813	 1.46810900094137 
814	 1.46241278415859 
815	 1.45862069440016 
816	 1.45573591990751 
817	 1.45327087554132 
818	 1.45164984678052 
819	 1.45068181197127 
820	 1.45065414327123 
821	 1.45068317324321 
822	 1.44786308627813 
823	 1.44561639290169 
824	 1.44398784759806 
825	 1.44247840752835 
826	 1.44187482917738 
827	 1.44047830703889 
828	 1.43868301724471 
829	 1.43738172094366 
830	 1.4345041010649 
831	 1.43311304498539 
832	 1.43264222044245 
833	 1.43026960561364 
834	 1.42979121350956 
835	 1.42936272862707 
836	 1.42818539877451 
837	 1.42741905599949 
838	 1.42662255355011 
839	 1.42549318385839 
840	 1.42381608544601 
841	 1.42141370578863 
842	 1.42078317907686 
843	 1.42001119426631 
844	 1.4174654775244 
845	 1.41702359541727 
846	 1.41542927321701 
847	 1.41326531008158 
848	 1.41224541467108 
849	 1.41029414138955 
850	 1.40773613820418 
851	 1.40553843588366 
852	 1.40476930957451 
853	 1.40426119069498 
854	 1.4030466593669 
855	 1.40079076770124 
856	 1.39802665932539 
857	 1.39692324716067 
858	 1.39556471923326 
859	 1.39341411277533 
860	 1.39312771510498 
861	 1.39069323276353 
862	 1.38887551570343 
863	 1.38950450263066 
864	 1.38777407580277 
865	 1.38570563384148 
866	 1.3843653345613 
867	 1.38374470068744 
868	 1.38098739694084 
869	 1.37796178980557 
870	 1.37615119663408 
871	 1.37592823249865 
872	 1.37390530826571 
873	 1.37273390186456 
874	 1.37184725578973 
875	 1.36880176136757 
876	 1.36644154010469 
877	 1.36543654034223 
878	 1.36474016513098 
879	 1.36217857607213 
880	 1.35986026062002 
881	 1.3579370284157 
882	 1.35664376267257 
883	 1.35652837855453 
884	 1.35422679479662 
885	 1.35192872160172 
886	 1.35109204761799 
887	 1.34977479583022 
888	 1.34735819540424 
889	 1.34477663836803 
890	 1.34272045489101 
891	 1.34020409743985 
892	 1.33639770973085 
893	 1.33230033652177 
894	 1.32898758532541 
895	 1.32540882521774 
896	 1.32234694332474 
897	 1.31882029818592 
898	 1.31418074035966 
899	 1.31233013534655 
900	 1.31151645693779 
901	 1.31052122196493 
902	 1.30911532486198 
903	 1.31008514137824 
904	 1.30811238677704 
905	 1.30449905232932 
906	 1.30389354579094 
907	 1.30278253769591 
908	 1.29849486689318 
909	 1.29335584523298 
910	 1.29251780496335 
911	 1.28904248076924 
912	 1.28688356999019 
913	 1.28627367383041 
914	 1.28339767631139 
915	 1.28198276670493 
916	 1.27997546181728 
917	 1.27816480628891 
918	 1.28030295184717 
919	 1.27778764456707 
920	 1.27591493923705 
921	 1.27603248098691 
922	 1.27239335822308 
923	 1.27196676443364 
924	 1.27150527605996 
925	 1.2683537496744 
926	 1.26367865150222 
927	 1.25710465161583 
928	 1.25150157261861 
929	 1.24704783498406 
930	 1.23789297762911 
931	 1.23287521402866 
932	 1.22736869496161 
933	 1.21723299620144 
934	 1.2080248123389 
935	 1.20544227821483 
936	 1.20098246008753 
937	 1.1931680411997 
938	 1.1997618272202 
939	 1.19921062292233 
940	 1.19853144617483 
941	 1.20208343522864 
942	 1.19708168446617 
943	 1.19359352120146 
944	 1.19217409081804 
945	 1.19005505242207 
946	 1.18288121829813 
947	 1.17814361953631 
948	 1.17407660901918 
949	 1.16961231377008 
950	 1.16997357094079 
951	 1.16814979998482 
952	 1.16417899579351 
953	 1.16020678978259 
954	 1.15834809844625 
955	 1.15382980541178 
956	 1.15031615671715 
957	 1.15056983889714 
958	 1.15139239311611 
959	 1.14671214779793 
960	 1.14542009743115 
961	 1.15018191847227 
962	 1.14652670970753 
963	 1.14811679421001 
964	 1.14727964053266 
965	 1.14175455019131 
966	 1.14499903525541 
967	 1.14845976698939 
968	 1.14702046517225 
969	 1.14241419852063 
970	 1.14469719531215 
971	 1.14783436517214 
972	 1.1448945629339 
973	 1.13871350735595 
974	 1.14414781548922 
975	 1.14177054327332 
976	 1.13735246728649 
977	 1.13726575617722 
978	 1.14130720302887 
979	 1.1399593174668 
980	 1.13739940763014 
981	 1.13779376070704 
982	 1.14134663598725 
983	 1.13740378610196 
984	 1.13564711028202 
985	 1.13778267503662 
986	 1.13715673326927 
987	 1.14284343690184 
988	 1.14278308103065 
989	 1.13805241703335 
990	 1.13928153843783 
991	 1.13843827304542 
992	 1.1422453274102 
993	 1.14694773911211 
994	 1.14486550321491 
995	 1.14761291705093 
996	 1.14541141242328 
997	 1.14231191359809 
998	 1.14529535046289 
999	 1.14204340789488 
1000	 1.14001599874979 
1001	 1.16368050801544 
1002	 1.16437957086683 
1003	 1.16476636330306 
1004	 1.16498422085404 
1005	 1.16525831331951 
1006	 1.16557080061641 
1007	 1.16590638058598 
1008	 1.16634579515523 
1009	 1.16648906812205 
1010	 1.16666310167138 
1011	 1.1664492438501 
1012	 1.16580239892899 
1013	 1.16578882985786 
1014	 1.16612479068144 
1015	 1.16657831805322 
1016	 1.16709844250924 
1017	 1.16751283419833 
1018	 1.16812730407131 
1019	 1.16902019571757 
1020	 1.16938683972357 
1021	 1.16984983147327 
1022	 1.16990927445072 
1023	 1.1695656930176 
1024	 1.16862290452038 
1025	 1.16826536294528 
1026	 1.16884636737048 
1027	 1.16938900726162 
1028	 1.17013990964752 
1029	 1.17091481734389 
1030	 1.17114973639445 
1031	 1.17132803854086 
1032	 1.17133514313451 
1033	 1.17132322040999 
1034	 1.17119194224966 
1035	 1.17103533657574 
1036	 1.17063097331503 
1037	 1.17060323393381 
1038	 1.1708382615388 
1039	 1.17076042073367 
1040	 1.17050475829989 
1041	 1.17019974815681 
1042	 1.17000141719542 
1043	 1.17016545326231 
1044	 1.1702176496509 
1045	 1.17008737826994 
1046	 1.16921474335782 
1047	 1.16841432448878 
1048	 1.16837166971714 
1049	 1.16860423766449 
1050	 1.16866882671814 
1051	 1.16932888316191 
1052	 1.16901000404739 
1053	 1.16790980595704 
1054	 1.16731961704364 
1055	 1.16728666140857 
1056	 1.16728298295679 
1057	 1.16739417645316 
1058	 1.16774807870004 
1059	 1.16753476459282 
1060	 1.16706909409157 
1061	 1.16711131447891 
1062	 1.1667452791169 
1063	 1.16618801920898 
1064	 1.16581532634532 
1065	 1.16518263994193 
1066	 1.16422204566821 
1067	 1.16358772082246 
1068	 1.16330362049499 
1069	 1.16268516613534 
1070	 1.16239725902049 
1071	 1.16226484190027 
1072	 1.16152707214665 
1073	 1.16105714036895 
1074	 1.16044104421134 
1075	 1.1590091614506 
1076	 1.15757736558139 
1077	 1.15633693162338 
1078	 1.15552663610026 
1079	 1.15517630152272 
1080	 1.15480801464804 
1081	 1.15388503900169 
1082	 1.15265904337973 
1083	 1.15083090169756 
1084	 1.14929992780841 
1085	 1.14838106720531 
1086	 1.14759949427218 
1087	 1.14707993900992 
1088	 1.14640461143216 
1089	 1.14450091631299 
1090	 1.14235010183356 
1091	 1.14090358394773 
1092	 1.13922323116952 
1093	 1.13765258736009 
1094	 1.13607050598052 
1095	 1.13388336910841 
1096	 1.13188664726472 
1097	 1.12972190569531 
1098	 1.12752064315844 
1099	 1.12534354552874 
1100	 1.12327674656538 
1101	 1.12094258352469 
1102	 1.11885627796767 
1103	 1.11715789642838 
1104	 1.11526141905912 
1105	 1.1130543682307 
1106	 1.11064080399871 
1107	 1.10778900815307 
1108	 1.10468378522763 
1109	 1.10168458658114 
1110	 1.09842449820677 
1111	 1.09475181619258 
1112	 1.09039548482499 
1113	 1.08630488177331 
1114	 1.08204595000477 
1115	 1.07714151429888 
1116	 1.0719661581335 
1117	 1.06626498602852 
1118	 1.05999973778992 
1119	 1.05351467302237 
1120	 1.04762916622219 
1121	 1.04295245956385 
1122	 1.03851425201153 
1123	 1.0342040287903 
1124	 1.03053610070856 
1125	 1.02716869969855 
1126	 1.02402611305521 
1127	 1.02133586294502 
1128	 1.01881492940887 
1129	 1.01704039159989 
1130	 1.01462268546789 
1131	 1.01249832361843 
1132	 1.010104330322 
1133	 1.00740330579947 
1134	 1.00459719859745 
1135	 1.00204842622247 
1136	 0.99874331490206 
1137	 0.995099276521102 
1138	 0.991031302272698 
1139	 0.986483328878522 
1140	 0.981602214521835 
1141	 0.976294025518031 
1142	 0.971576575694281 
1143	 0.966524338313001 
1144	 0.961025083170101 
1145	 0.955853302532738 
1146	 0.950766722904792 
1147	 0.945592495938255 
1148	 0.940267493832936 
1149	 0.936172381563453 
1150	 0.932582665196116 
1151	 0.92937828066754 
1152	 0.926981952657614 
1153	 0.925052220104448 
1154	 0.923252304703154 
1155	 0.921900621915152 
1156	 0.921271238637512 
1157	 0.920782384120525 
1158	 0.920350554188363 
1159	 0.919710667722011 
1160	 0.919036773706855 
1161	 0.918175596764841 
1162	 0.917696367162969 
1163	 0.917452806395029 
1164	 0.916949362681938 
1165	 0.916523545444696 
1166	 0.915919821090524 
1167	 0.914884388104168 
1168	 0.914166784749324 
1169	 0.913619113071718 
1170	 0.913205226505379 
1171	 0.9122867490414 
1172	 0.911428101060137 
1173	 0.910605962187983 
1174	 0.90950141909417 
1175	 0.908565664800289 
1176	 0.907608593911583 
1177	 0.906603032604013 
1178	 0.905490581993953 
1179	 0.904228440940506 
1180	 0.90285804666357 
1181	 0.901685948724381 
1182	 0.900287202698937 
1183	 0.899188854604754 
1184	 0.898415552921063 
1185	 0.897580004614188 
1186	 0.896875054021211 
1187	 0.896084786266948 
1188	 0.895295277302329 
1189	 0.894566936629558 
1190	 0.893855646073053 
1191	 0.893048667943929 
1192	 0.892238117952532 
1193	 0.891554067078372 
1194	 0.891059613120666 
1195	 0.890706659187534 
1196	 0.89012888402281 
1197	 0.889657074590555 
1198	 0.889152981515463 
1199	 0.888296795939657 
1200	 0.887855874229682 
1201	 0.88778521483934 
1202	 0.88757443170963 
1203	 0.887319368551615 
1204	 0.887205060351269 
1205	 0.887092645188724 
1206	 0.887158559925715 
1207	 0.88760167638822 
1208	 0.88780335060595 
1209	 0.887937617796899 
1210	 0.888100373710813 
1211	 0.888240107974599 
1212	 0.888277269903635 
1213	 0.888534920367929 
1214	 0.888843439033524 
1215	 0.889471947228925 
1216	 0.890312595353231 
1217	 0.89120888070274 
1218	 0.892574121993887 
1219	 0.893439992919126 
1220	 0.894005781909924 
1221	 0.894770668698726 
1222	 0.895347597295056 
1223	 0.896211359040024 
1224	 0.897607963207031 
1225	 0.898494384709658 
1226	 0.899202426959078 
1227	 0.899862486623418 
1228	 0.90019754712318 
1229	 0.900482375639164 
1230	 0.901311504351786 
1231	 0.902302445249914 
1232	 0.90302310845968 
1233	 0.903979652588702 
1234	 0.904472254887107 
1235	 0.904455085095137 
1236	 0.904849100036689 
1237	 0.905217818256937 
1238	 0.90570587870906 
1239	 0.906519007996071 
1240	 0.906976426878361 
1241	 0.907369735379561 
1242	 0.907619449111291 
1243	 0.907475709146423 
1244	 0.907659874074822 
1245	 0.907971731075991 
1246	 0.908216495158264 
1247	 0.908664450947001 
1248	 0.908927622354665 
1249	 0.908944281585455 
1250	 0.909064656897304 
1251	 0.909282809165886 
1252	 0.909409819194651 
1253	 0.909329501323385 
1254	 0.90914252393221 
1255	 0.90900921382059 
1256	 0.908677310599985 
1257	 0.908451357125154 
1258	 0.908343000805758 
1259	 0.908170559921446 
1260	 0.907947035232382 
1261	 0.907660557444988 
1262	 0.907404254310535 
1263	 0.907088521015232 
1264	 0.906595090518162 
1265	 0.906196714644575 
1266	 0.905784723374892 
1267	 0.90548990707624 
1268	 0.905337433377139 
1269	 0.905090801081891 
1270	 0.90510553811878 
1271	 0.904764574994547 
1272	 0.904101700777738 
1273	 0.90352009730231 
1274	 0.902757302578013 
1275	 0.901671865017953 
1276	 0.900987869074569 
1277	 0.900385045698693 
1278	 0.899818397123851 
1279	 0.899555929402424 
1280	 0.898892522273705 
1281	 0.898056888328232 
1282	 0.897239134040942 
1283	 0.896356001177122 
1284	 0.895290454474333 
1285	 0.894080332718494 
1286	 0.89294957420801 
1287	 0.891692509803352 
1288	 0.89042253230246 
1289	 0.889394480101948 
1290	 0.88802000244392 
1291	 0.886190556187347 
1292	 0.884626753111657 
1293	 0.88320364614709 
1294	 0.881509915665003 
1295	 0.879846364066823 
1296	 0.878057974752801 
1297	 0.876006608147603 
1298	 0.873506819141011 
1299	 0.871300301477867 
1300	 0.869114722602021 
1301	 0.866816420923089 
1302	 0.864545637741381 
1303	 0.862082475442277 
1304	 0.859490710818277 
1305	 0.856760084825844 
1306	 0.853804087130561 
1307	 0.850954331686215 
1308	 0.848081339998945 
1309	 0.845055960905667 
1310	 0.841989225419707 
1311	 0.838868399757136 
1312	 0.835611324656364 
1313	 0.832282899910687 
1314	 0.829076657808901 
1315	 0.825581184603947 
1316	 0.821722577656906 
1317	 0.817966704350188 
1318	 0.813978425860694 
1319	 0.810175118081325 
1320	 0.806623530418876 
1321	 0.802959177744626 
1322	 0.798832207641662 
1323	 0.794425977773761 
1324	 0.790111220656152 
1325	 0.785336100089031 
1326	 0.780696115432807 
1327	 0.776310745149162 
1328	 0.771370773382213 
1329	 0.76567508502454 
1330	 0.760660561323951 
1331	 0.755867063591066 
1332	 0.750902927774204 
1333	 0.746159109573385 
1334	 0.741532046656312 
1335	 0.736737295783778 
1336	 0.732248175495822 
1337	 0.728088158050714 
1338	 0.723973480872286 
1339	 0.719605195362243 
1340	 0.71551875177913 
1341	 0.711418144813686 
1342	 0.707398268511748 
1343	 0.703194126737752 
1344	 0.69891318895483 
1345	 0.694551960249967 
1346	 0.689229824647734 
1347	 0.68382902071667 
1348	 0.678149119490124 
1349	 0.671720151528933 
1350	 0.664226523555297 
1351	 0.656649758179359 
1352	 0.648469491834196 
1353	 0.63973679680626 
1354	 0.63475871558541 
1355	 0.62534997728186 
1356	 0.618778058441428 
1357	 0.605740655021283 
1358	 0.590193737923195 
1359	 0.568887175777458 
1360	 0.54761908236115 
1361	 0.52807551706578 
1362	 0.553918445587025 
1363	 0.556868490611392 
1364	 0.586165531627884 
1365	 0.587066694319593 
1366	 0.553758827658823 
1367	 0.52990075277389 
1368	 0.50396540603358 
1369	 0.487114865527672 
1370	 0.480317307867644 
1371	 0.467002549793188 
1372	 0.445356885771483 
1373	 0.440938680329613 
1374	 0.444669963318389 
1375	 0.43899206232555 
1376	 0.447547493403424 
1377	 0.459306422066945 
1378	 0.452440276404525 
1379	 0.431148811042409 
1380	 0.422874748239472 
1381	 0.410502479012081 
1382	 0.398585416359818 
1383	 0.396225160890445 
1384	 0.386772753917097 
1385	 0.367768824739261 
1386	 0.358952802413235 
1387	 0.357563342039092 
1388	 0.351652379219502 
1389	 0.347786467764737 
1390	 0.341947225089094 
1391	 0.333251864599357 
1392	 0.325735745799859 
1393	 0.317774362473584 
1394	 0.310618420779256 
1395	 0.303638299422113 
1396	 0.298204485805133 
1397	 0.295149069692749 
1398	 0.28868828376848 
1399	 0.27947787752694 
1400	 0.273491452521913 
1401	 0.268003793146981 
1402	 0.262220367483702 
1403	 0.259468923611211 
1404	 0.255099879954615 
1405	 0.248940562405424 
1406	 0.243149120542088 
1407	 0.240383972577491 
1408	 0.238072428580914 
1409	 0.233288971662368 
1410	 0.23025731755045 
1411	 0.228121069799123 
1412	 0.225044275509245 
1413	 0.223919149403816 
1414	 0.225584776101672 
1415	 0.223985854837385 
1416	 0.220800079171202 
1417	 0.219877500330851 
1418	 0.219429365166178 
1419	 0.21794535932301 
1420	 0.217000795993391 
1421	 0.215903591047527 
1422	 0.213202875109638 
1423	 0.212436325193857 
1424	 0.213769793506747 
1425	 0.212984151074019 
1426	 0.211366826839583 
1427	 0.210464943194898 
1428	 0.208581036815007 
1429	 0.207692047706047 
1430	 0.208337455714927 
1431	 0.207808124600175 
1432	 0.206811120088617 
1433	 0.206019587061291 
1434	 0.20418631864172 
1435	 0.203635810712706 
1436	 0.204448542900924 
1437	 0.204296677220372 
1438	 0.204198971242468 
1439	 0.204254253977472 
1440	 0.203792850536849 
1441	 0.203383948950707 
1442	 0.203306010911937 
1443	 0.203145579779072 
1444	 0.20275150305949 
1445	 0.203093036252265 
1446	 0.203991132651205 
1447	 0.204672994504043 
1448	 0.2048756956317 
1449	 0.20482768058067 
1450	 0.205004127353003 
1451	 0.204808922885279 
1452	 0.205116410364315 
1453	 0.205804154004394 
1454	 0.206305993485443 
1455	 0.206850908718323 
1456	 0.207336460981915 
1457	 0.207853999717692 
1458	 0.208274172996222 
1459	 0.208780116975592 
1460	 0.208991482805541 
1461	 0.208987459638501 
1462	 0.209158531585414 
1463	 0.20899687764404 
1464	 0.20937990011541 
1465	 0.210199535701261 
1466	 0.21091535510669 
1467	 0.212002078570136 
1468	 0.212838300566874 
1469	 0.213279860064925 
1470	 0.214250142323926 
1471	 0.215160694229217 
1472	 0.21648919690132 
1473	 0.218686458949504 
1474	 0.220079892782439 
1475	 0.221002700736699 
1476	 0.222267976299768 
1477	 0.222857170665943 
1478	 0.224347705814233 
1479	 0.226874583854786 
1480	 0.228786599939539 
1481	 0.230473558408419 
1482	 0.232490171162442 
1483	 0.234364807587216 
1484	 0.236379722730129 
1485	 0.23891514200022 
1486	 0.241151057991053 
1487	 0.243244458483373 
1488	 0.244992392309256 
1489	 0.247037236343113 
1490	 0.249007750949911 
1491	 0.251188849009246 
1492	 0.253255952703913 
1493	 0.254960907484964 
1494	 0.256801163624018 
1495	 0.258912614057851 
1496	 0.261149121221087 
1497	 0.263215660848206 
1498	 0.265568337029584 
1499	 0.267627995892374 
1500	 0.269403597819712 
1501	 0.271313120233722 
1502	 0.273364140050054 
1503	 0.27526311944695 
1504	 0.276973561856575 
1505	 0.278878782614304 
1506	 0.280774311863427 
1507	 0.282827507373811 
1508	 0.285188930047053 
1509	 0.287033021954182 
1510	 0.288616324633135 
1511	 0.290528044333064 
1512	 0.292222591437585 
1513	 0.29418459928722 
1514	 0.296748115700226 
1515	 0.298731505346045 
1516	 0.300327092603826 
1517	 0.302240143535607 
1518	 0.304137814248252 
1519	 0.30606581766963 
1520	 0.308215927422803 
1521	 0.310231034743949 
1522	 0.312134675277402 
1523	 0.314060597556738 
1524	 0.316000902818063 
1525	 0.317931079031916 
1526	 0.319923666176705 
1527	 0.32174038054972 
1528	 0.32334049872102 
1529	 0.325217769314224 
1530	 0.32712128507985 
1531	 0.329046232735592 
1532	 0.331435244134277 
1533	 0.333308928024352 
1534	 0.334623689528278 
1535	 0.336365224599127 
1536	 0.338193784536819 
1537	 0.33988941797087 
1538	 0.341726992284898 
1539	 0.343575284847 
1540	 0.345298869461248 
1541	 0.346977510972673 
1542	 0.348820723178777 
1543	 0.350527547051122 
1544	 0.351917545730971 
1545	 0.353494519564465 
1546	 0.355178715303234 
1547	 0.35686106667499 
1548	 0.35865204089486 
1549	 0.36036311184825 
1550	 0.361958216128968 
1551	 0.363708956114561 
1552	 0.365725432443496 
1553	 0.367390013328012 
1554	 0.368904335227208 
1555	 0.37046249056345 
1556	 0.371654663461546 
1557	 0.373056591064501 
1558	 0.374835180292574 
1559	 0.376373377743141 
1560	 0.377739174037672 
1561	 0.379206824843486 
1562	 0.380663245752097 
1563	 0.382058912404228 
1564	 0.383510540604587 
1565	 0.384968874679582 
1566	 0.386214561511372 
1567	 0.387529960440104 
1568	 0.388855624810713 
1569	 0.390176644735276 
1570	 0.39161890613244 
1571	 0.393118343403822 
1572	 0.394637308545822 
1573	 0.39628590496777 
1574	 0.3977561086542 
1575	 0.399191375126887 
1576	 0.400457625476301 
1577	 0.401496627999579 
1578	 0.402825643965967 
1579	 0.404091335719087 
1580	 0.405562669229896 
1581	 0.407496278472597 
1582	 0.408555481510931 
1583	 0.409162347528816 
1584	 0.410290997307087 
1585	 0.41115095841368 
1586	 0.412301679848223 
1587	 0.414085415785524 
1588	 0.415196842032782 
1589	 0.415830209319767 
1590	 0.416897850258332 
1591	 0.418032864335394 
1592	 0.419150188656288 
1593	 0.420466814771199 
1594	 0.421521010387273 
1595	 0.42240507034425 
1596	 0.42338408555061 
1597	 0.424294046900514 
1598	 0.425313542944471 
1599	 0.426437874024669 
1600	 0.427443335432658 
1601	 0.428485973674005 
1602	 0.429380087976986 
1603	 0.430060179586331 
1604	 0.431015800600744 
1605	 0.432018402690067 
1606	 0.433036792627235 
1607	 0.434240352270495 
1608	 0.435285215358659 
1609	 0.436227634445475 
1610	 0.437180494564817 
1611	 0.438085310192402 
1612	 0.43908626446043 
1613	 0.440229537491058 
1614	 0.440946935912081 
1615	 0.441463791703122 
1616	 0.442190615048841 
1617	 0.442618383713919 
1618	 0.443459496355829 
1619	 0.444820264178492 
1620	 0.445668126203645 
1621	 0.446276398994825 
1622	 0.447137241971256 
1623	 0.448005820479999 
1624	 0.448758479040486 
1625	 0.449642945068896 
1626	 0.450357203095494 
1627	 0.450892709650261 
1628	 0.451363900897672 
1629	 0.451746365948279 
1630	 0.452312669433397 
1631	 0.452765078346753 
1632	 0.453358626643365 
1633	 0.454332927230186 
1634	 0.454851260685246 
1635	 0.455062777048214 
1636	 0.455543737309426 
1637	 0.456006329346045 
1638	 0.456411259098798 
1639	 0.456991845791789 
1640	 0.457296807794537 
1641	 0.457322834786971 
1642	 0.457549742514023 
1643	 0.457861421049386 
1644	 0.457949836773066 
1645	 0.457828179180159 
1646	 0.45810364766817 
1647	 0.458506910061826 
1648	 0.458623843406644 
1649	 0.45898944521862 
1650	 0.45897378738937 
1651	 0.458515650794132 
1652	 0.458133450804595 
1653	 0.457686857522598 
1654	 0.457458735298043 
1655	 0.45715166402575 
1656	 0.456855563751296 
1657	 0.45684726705623 
1658	 0.456528772038272 
1659	 0.455842794798728 
1660	 0.455717397485923 
1661	 0.455639063585767 
1662	 0.455374465985673 
1663	 0.455430936540783 
1664	 0.455278756438187 
1665	 0.454895637116108 
1666	 0.454457777186359 
1667	 0.454210081227312 
1668	 0.454143861223817 
1669	 0.453977465664021 
1670	 0.454280900435869 
1671	 0.454802381758171 
1672	 0.455073805179899 
1673	 0.455256666117097 
1674	 0.455090681044801 
1675	 0.455029536803371 
1676	 0.455280847762121 
1677	 0.455526809206555 
1678	 0.455716565761205 
1679	 0.45542245671616 
1680	 0.454912077121075 
1681	 0.454315608255159 
1682	 0.453778487229503 
1683	 0.453867852428686 
1684	 0.453921436646324 
1685	 0.453814588316524 
1686	 0.453688452518624 
1687	 0.453200582961868 
1688	 0.452894027089323 
1689	 0.452747883136727 
1690	 0.45231827100211 
1691	 0.451969760993753 
1692	 0.451522374759285 
1693	 0.450826059225424 
1694	 0.450233935910666 
1695	 0.449394280540506 
1696	 0.447633279101937 
1697	 0.4467332668151 
1698	 0.446351796337078 
1699	 0.445876080606036 
1700	 0.446395832432446 
1701	 0.445871031922649 
1702	 0.444375773512732 
1703	 0.443308997364798 
1704	 0.441687882314362 
1705	 0.440605291512134 
1706	 0.440323520583573 
1707	 0.439567022054175 
1708	 0.438739886654946 
1709	 0.437774282912429 
1710	 0.436456844863479 
1711	 0.435361533013577 
1712	 0.434336765881736 
1713	 0.433332703908448 
1714	 0.432338288793882 
1715	 0.431396850427087 
1716	 0.430612493059988 
1717	 0.429691059921845 
1718	 0.428551941185589 
1719	 0.427849867184361 
1720	 0.427417392679683 
1721	 0.426596045018279 
1722	 0.42602595785329 
1723	 0.425097516842406 
1724	 0.423731958108447 
1725	 0.422479547357618 
1726	 0.420908535186728 
1727	 0.419802078333616 
1728	 0.418712916485726 
1729	 0.418040614854683 
1730	 0.418211205272024 
1731	 0.417919855608925 
1732	 0.416910468170814 
1733	 0.416073486186343 
1734	 0.414915179823226 
1735	 0.413542892360001 
1736	 0.412928781217924 
1737	 0.41245351293033 
1738	 0.412289836316647 
1739	 0.412179406451734 
1740	 0.411208116031285 
1741	 0.410481179678515 
1742	 0.409441306798542 
1743	 0.407958378311487 
1744	 0.40739400039357 
1745	 0.406378905160615 
1746	 0.404725978247656 
1747	 0.403786715163434 
1748	 0.403002043196095 
1749	 0.402336803499869 
1750	 0.401824241947391 
1751	 0.400936597341489 
1752	 0.399732085123281 
1753	 0.397889797576051 
1754	 0.396414792817193 
1755	 0.395491129813567 
1756	 0.394196511455477 
1757	 0.393656066412581 
1758	 0.392666127254579 
1759	 0.391824391023288 
1760	 0.390891659688238 
1761	 0.389253625690056 
1762	 0.388109635204628 
1763	 0.3872641497738 
1764	 0.386076594930961 
1765	 0.384934705728238 
1766	 0.384032136754591 
1767	 0.383069978665377 
1768	 0.382215601279315 
1769	 0.381498862701855 
1770	 0.380948523732604 
1771	 0.38032025670617 
1772	 0.379764678326394 
1773	 0.380106702095559 
1774	 0.37889386868379 
1775	 0.377758432423865 
1776	 0.376468351274818 
1777	 0.374017766893159 
1778	 0.373137826947607 
1779	 0.372789060670481 
1780	 0.372488086147132 
1781	 0.373047703014891 
1782	 0.372389227123026 
1783	 0.371099977170465 
1784	 0.370070627317099 
1785	 0.369482072764911 
1786	 0.36959599058644 
1787	 0.368911573977811 
1788	 0.3680855297648 
1789	 0.367661020055989 
1790	 0.367093304110294 
1791	 0.367052527454852 
1792	 0.367273640668464 
1793	 0.366269237629477 
1794	 0.36389975380839 
1795	 0.362882096128575 
1796	 0.361648510839587 
1797	 0.359486349762384 
1798	 0.359557518147265 
1799	 0.359678070911323 
1800	 0.359636884362394 
1801	 0.359765247599809 
1802	 0.358726803610975 
1803	 0.357633710962581 
1804	 0.355529788670319 
1805	 0.354473199085015 
1806	 0.354915220503603 
1807	 0.353804463250108 
1808	 0.352738826668628 
1809	 0.348770321934334 
1810	 0.348206851698699 
1811	 0.347736399086874 
1812	 0.348013109605328 
1813	 0.354646220627898 
1814	 0.353851991052101 
1815	 0.345072270813156 
1816	 0.341772294502477 
1817	 0.337132657829852 
1818	 0.332748630510114 
1819	 0.329772119641451 
1820	 0.333279924243544 
1821	 0.332537922776399 
1822	 0.326359577189796 
1823	 0.326861321069593 
1824	 0.337138838614893 
1825	 0.338942546161202 
1826	 0.342524760605466 
1827	 0.341007304373191 
1828	 0.332928128915334 
1829	 0.29928519494166 
1830	 0.291511516709906 
1831	 0.292976147935278 
1832	 0.298091739836138 
1833	 0.369240849040208 
1834	 0.396876386720167 
1835	 0.36580537820944 
1836	 0.359276117178293 
1837	 0.269680267714991 
1838	 0.260615008148298 
1839	 0.294939846772106 
1840	 0.448002744808633 
1841	 0.482183240597615 
1842	 0.542376222319622 
1843	 0.523596841175136 
1844	 0.363910583035096 
1845	 0.319779727178513 
1846	 0.297744177018455 
1847	 0.279018681150991 
1848	 0.274183292060836 
1849	 0.300897607758229 
1850	 0.308785874000869 
1851	 0.320952307041738 
1852	 0.319259596810601 
1853	 0.320513143031372 
1854	 0.313074288250022 
1855	 0.301699233497582 
1856	 0.281675621615285 
1857	 0.290574065876114 
1858	 0.216789049149044 
1859	 0.200390474919838 
1860	 0.195548965666692 
1861	 0.162597021378823 
1862	 9.66445795934021E-02 
1863	 0.104208512975586 
1864	 0.14180195951142 
1865	 0.153434694462062 
1866	 0.238632504734401 
1867	 0.291814195534383 
1868	 0.224147501140219 
1869	 0.168123224014418 
1870	 0.187030080971282 
1871	 0.273889885624442 
1872	 0.292190625182346 
1873	 0.334113371220355 
1874	 0.345493603251261 
1875	 0.311664369826353 
1876	 0.288396194583951 
1877	 0.278736452196629 
1878	 0.268097443404548 
1879	 0.234979726221683 
1880	 0.206527928120112 
1881	 0.185080791260146 
1882	 0.165648671370229 
1883	 0.153306762708193 
1884	 0.134999872225738 
1885	 0.136562313274536 
1886	 0.155037036546927 
1887	 0.171365544812384 
1888	 0.161212259439344 
1889	 0.158119187729451 
1890	 0.152792595250407 
1891	 0.119808193155729 
1892	 0.104884242267332 
1893	 0.103575734323926 
1894	 9.92159538487488E-02 
1895	 9.45883402526356E-02 
1896	 9.93271721398172E-02 
1897	 0.114292663844172 
1898	 0.155438919403594 
1899	 0.198119986990415 
1900	 0.171423143117262 
1901	 0.165955154562373 
1902	 0.112915336940866 
1903	 0.13373387146362 
1904	 0.242632722988733 
1905	 0.259876246820023 
1906	 0.301717444964145 
1907	 0.264016295295088 
1908	 0.133579649456889 
1909	 0.111151315486111 
1910	 0.143495898285248 
1911	 0.166852693096301 
1912	 0.179352737996186 
1913	 0.21051840275862 
1914	 0.189092694863502 
1915	 0.147905956045289 
1916	 0.133579818816102 
1917	 0.108433485286932 
1918	 9.57733221790235E-02 
1919	 0.116565113657198 
1920	 0.126004831350499 
1921	 0.123899333083284 
1922	 0.129947374741453 
1923	 0.125581352079704 
1924	 0.109786728415786 
1925	 9.94450527600756E-02 
1926	 7.73386535434863E-02 
1927	 0.071185988496452 
1928	 6.78981694057438E-02 
1929	 7.84839811548992E-02 
1930	 8.48734488238518E-02 
1931	 9.75148004006838E-02 
1932	 0.10306131536102 
1933	 0.102508957803028 
1934	 0.102877206437426 
1935	 0.104538098736406 
1936	 0.106603547797566 
1937	 0.106127609015207 
1938	 0.105774283072626 
1939	 0.107463551345985 
1940	 0.106077984321395 
1941	 0.102905247606449 
1942	 0.100906595521529 
1943	 0.098695384215365 
1944	 9.99821301346393E-02 
1945	 0.104619027799434 
1946	 0.106382362540718 
1947	 0.105765505411025 
1948	 0.102370082912304 
1949	 0.100517899485368 
1950	 9.72740572210034E-02 
1951	 0.094457351154201 
1952	 9.24527030101165E-02 
1953	 9.20811922798502E-02 
1954	 8.98929582405003E-02 
1955	 9.01328868376257E-02 
1956	 9.22505875259633E-02 
1957	 9.50520967903903E-02 
1958	 9.71727587361839E-02 
1959	 9.98980614143396E-02 
1960	 0.101008252872903 
1961	 0.100933128249762 
1962	 0.102061089567672 
1963	 0.102844868613571 
1964	 0.100338013794344 
1965	 0.10151684945337 
1966	 0.102164343912543 
1967	 0.100159004737397 
1968	 0.100575494670404 
1969	 0.100608029911159 
1970	 9.93642601137286E-02 
1971	 9.88429806734039E-02 
1972	 9.85979745941765E-02 
1973	 9.99575320901989E-02 
1974	 0.100824313969373 
1975	 0.102609659382145 
1976	 0.104841686285334 
1977	 0.105730412254605 
1978	 0.106953597762667 
1979	 0.106933809895978 
1980	 0.106191442573564 
1981	 0.106121522383308 
1982	 0.105834583610245 
1983	 0.104684804416736 
1984	 0.104469582509985 
1985	 0.105995212249108 
1986	 0.107833343498629 
1987	 0.10984019839157 
1988	 0.111250069222674 
1989	 0.110806440619699 
1990	 0.109731205190065 
1991	 0.10896444358734 
1992	 0.108134681399715 
1993	 0.108679775360049 
1994	 0.109657472836339 
1995	 0.110375154795066 
1996	 0.111035813623961 
1997	 0.112517386739754 
1998	 0.114940156750116 
1999	 0.116269336588866 
2000	 0.116277645025918 
2001	 0.116714887001642 
2002	 0.113462970089456 
2003	 0.11018478341069 
2004	 0.11127833141575 
2005	 0.112624633792177 
2006	 0.11449684872192 
2007	 0.118056533159968 
2008	 0.122177524520598 
2009	 0.124271269523679 
2010	 0.127376551782254 
2011	 0.129906355771183 
2012	 0.131180217797542 
2013	 0.131430713047338 
2014	 0.127384453797158 
2015	 0.125686764489327 
2016	 0.125306229970401 
2017	 0.124663031783087 
2018	 0.127667611959254 
2019	 0.129018299762319 
2020	 0.129805065619989 
2021	 0.130172588032491 
2022	 0.131654750380226 
2023	 0.131635083890456 
2024	 0.13313620365653 
2025	 0.135271976663442 
2026	 0.135765141275445 
2027	 0.136040773724515 
2028	 0.135508639407276 
2029	 0.13481736650758 
2030	 0.135104509272886 
2031	 0.135427138932592 
2032	 0.135760274556903 
2033	 0.136348225892022 
2034	 0.136986900314721 
2035	 0.137537320185879 
2036	 0.138908286826525 
2037	 0.141421007086828 
2038	 0.143762502437313 
2039	 0.1447107649818 
2040	 0.144749864840743 
2041	 0.145131131557072 
2042	 0.145495911630157 
2043	 0.145751786203083 
2044	 0.146487273294931 
2045	 0.146927260888359 
2046	 0.146992029431443 
2047	 0.146041846771404 
2048	 0.146253866046578 
2049	 0.147228689869349 
2050	 0.147010155379348 
2051	 0.147610492897682 
2052	 0.149264971510899 
2053	 0.150681968500439 
2054	 0.153306085967413 
2055	 0.155616594076433 
2056	 0.156963918844164 
2057	 0.157909724706595 
2058	 0.157962968838203 
2059	 0.158318935801431 
2060	 0.158780502996876 
2061	 0.158509343932444 
2062	 0.157875829455357 
2063	 0.15970844820257 
2064	 0.161385497638953 
2065	 0.161549299006104 
2066	 0.163066140666144 
2067	 0.164545487053309 
2068	 0.164959226561159 
2069	 0.165972246066163 
2070	 0.16757565754836 
2071	 0.168010960306423 
2072	 0.168775604043304 
2073	 0.169286880453797 
2074	 0.171119155181625 
2075	 0.171836768383837 
2076	 0.172550884728755 
2077	 0.173790771604416 
2078	 0.173557231105111 
2079	 0.173918900408964 
2080	 0.175411552290281 
2081	 0.175703278842739 
2082	 0.175875545276355 
2083	 0.176368157952268 
2084	 0.176298558607227 
2085	 0.17568715807448 
2086	 0.176417242065747 
2087	 0.177062210855142 
2088	 0.178283932788056 
2089	 0.177890240761432 
2090	 0.178740181151272 
2091	 0.179277002609262 
2092	 0.179904706558265 
2093	 0.182725921515807 
2094	 0.184302064925217 
2095	 0.185485060575242 
2096	 0.186430961474993 
2097	 0.185309225070186 
2098	 0.183966674834364 
2099	 0.184590158773797 
2100	 0.186121035610653 
2101	 0.18760385725146 
2102	 0.18851716454755 
2103	 0.190202299675098 
2104	 0.190176013647381 
2105	 0.189538188192088 
2106	 0.189085900322516 
2107	 0.188516304017854 
2108	 0.188612347934486 
2109	 0.18868491188258 
2110	 0.189134616149501 
2111	 0.190209949192026 
2112	 0.190465715338125 
2113	 0.190435841537129 
2114	 0.19062859645251 
2115	 0.191625929300876 
2116	 0.193692594618846 
2117	 0.194681119937099 
2118	 0.195476565924748 
2119	 0.195693055253804 
2120	 0.194952091495763 
2121	 0.194200262203661 
2122	 0.19476243055472 
2123	 0.1966081271972 
2124	 0.198053659826118 
2125	 0.198095635228598 
2126	 0.197466537285726 
2127	 0.196418279952107 
2128	 0.196240167738477 
2129	 0.198274289665867 
2130	 0.200346000164391 
2131	 0.200068130996038 
2132	 0.199707631929963 
2133	 0.200704290770788 
2134	 0.201564459286181 
2135	 0.20252225777583 
2136	 0.204605579808652 
2137	 0.205902123751954 
2138	 0.204815898627746 
2139	 0.203254750697183 
2140	 0.202281945444752 
2141	 0.201837626153691 
2142	 0.20162041628063 
2143	 0.202042029301237 
2144	 0.203262687105032 
2145	 0.204833783589485 
2146	 0.206482363471471 
2147	 0.207325580614111 
2148	 0.207512033674982 
2149	 0.208938674051654 
2150	 0.210496635911459 
2151	 0.211424846765021 
2152	 0.213375190294158 
2153	 0.214204001052305 
2154	 0.21395886276484 
2155	 0.212319595257047 
2156	 0.212294438566959 
2157	 0.212698395205443 
2158	 0.211264769228707 
2159	 0.211240304024562 
2160	 0.212964793054467 
2161	 0.212737726753402 
2162	 0.214120877389828 
2163	 0.217451544913836 
2164	 0.218665152387581 
2165	 0.218695603786388 
2166	 0.219356260297313 
2167	 0.219878852992265 
2168	 0.21958111549371 
2169	 0.218385850166567 
2170	 0.218341837809183 
2171	 0.218361840029316 
2172	 0.217735088557746 
2173	 0.218803949430428 
2174	 0.220527309623772 
2175	 0.22182180497069 
2176	 0.222931815031566 
2177	 0.223941076340943 
2178	 0.22306930516257 
2179	 0.22247002149552 
2180	 0.222851207294883 
2181	 0.221466123417301 
2182	 0.221839180109925 
2183	 0.223810963718817 
2184	 0.224393999801892 
2185	 0.224920003890086 
2186	 0.22542184334816 
2187	 0.225925592102441 
2188	 0.225493425433777 
2189	 0.22626147737725 
2190	 0.22820954269171 
2191	 0.228648886435561 
2192	 0.22893343270815 
2193	 0.22855925168332 
2194	 0.228015959201403 
2195	 0.228699117352299 
2196	 0.229215331550028 
2197	 0.229042937568977 
2198	 0.228389484822495 
2199	 0.228316447081458 
2200	 0.229609071928603 
2201	 0.230820228036438 
2202	 0.232285331209143 
2203	 0.233240729783407 
2204	 0.232032153445058 
2205	 0.23167842251016 
2206	 0.231889680487209 
2207	 0.230952633629352 
2208	 0.2308444774674 
2209	 0.232839216765735 
2210	 0.232687408243774 
2211	 0.231088206683023 
2212	 0.230350410005303 
2213	 0.229859856032335 
2214	 0.229477485282644 
2215	 0.230807624487856 
2216	 0.23167312931155 
2217	 0.233144607442196 
2218	 0.233121351951269 
2219	 0.231029064092257 
2220	 0.231868179672316 
2221	 0.233776707120814 
2222	 0.234191710861004 
2223	 0.234862757218806 
2224	 0.234409373629683 
2225	 0.233504773676649 
2226	 0.233283136789611 
2227	 0.232198190657831 
2228	 0.231561721537342 
2229	 0.229848420846305 
2230	 0.229134678292092 
2231	 0.22921234436778 
2232	 0.231766452123818 
2233	 0.231737879084531 
2234	 0.231287107675982 
2235	 0.229630475734866 
2236	 0.228125414336145 
2237	 0.22708668758112 
2238	 0.22825619980473 
2239	 0.229023387179417 
2240	 0.228655350653311 
2241	 0.229241244855723 
2242	 0.227885834719918 
2243	 0.227509013529692 
2244	 0.22601108949552 
2245	 0.224653940488551 
2246	 0.226348670222149 
2247	 0.225123896840028 
2248	 0.224339876004039 
2249	 0.224221003796761 
2250	 0.22262396850733 
2251	 0.223649755596702 
2252	 0.223165092088991 
2253	 0.221699843280486 
2254	 0.222595233049253 
2255	 0.221281157749807 
2256	 0.220954726492157 
2257	 0.222289250022581 
2258	 0.224870682854879 
2259	 0.221939076616339 
2260	 0.218404471231082 
2261	 0.216950617460181 
2262	 0.216994546421343 
2263	 0.21963706322975 
2264	 0.221508465266238 
2265	 0.220719298103828 
2266	 0.217307342903842 
2267	 0.213717272536584 
2268	 0.213709271090329 
2269	 0.215696878204768 
2270	 0.217737830661812 
2271	 0.217874193785615 
2272	 0.217621589080627 
2273	 0.219193694229802 
2274	 0.21884511196835 
2275	 0.216949696178728 
2276	 0.216195166026439 
2277	 0.212856102021077 
2278	 0.208136280118589 
2279	 0.204599052105129 
2280	 0.203850925433702 
2281	 0.206882809983157 
2282	 0.207329453650213 
2283	 0.210847438018864 
2284	 0.213915123195406 
2285	 0.209922046810071 
2286	 0.207718839822708 
2287	 0.206814324806574 
2288	 0.204286695595818 
2289	 0.200771322955224 
2290	 0.198198023564072 
2291	 0.195246548176228 
2292	 0.194529727057901 
2293	 0.193413824434187 
2294	 0.193990368888152 
2295	 0.193679997820133 
2296	 0.192025128904717 
2297	 0.191964007601049 
2298	 0.190834339621429 
2299	 0.19360794230003 
2300	 0.195625547913755 
2301	 0.193544003021907 
2302	 0.192324456269061 
2303	 0.187690795594442 
2304	 0.183736517382962 
2305	 0.180995642288617 
2306	 0.17790083001117 
2307	 0.177971091519961 
2308	 0.177166278484412 
2309	 0.176598290786222 
2310	 0.177015278472032 
2311	 0.17909333077536 
2312	 0.181779549758249 
2313	 0.181392727944626 
2314	 0.181066200180641 
2315	 0.179602994314101 
2316	 0.177309435200944 
2317	 0.175858946372589 
2318	 0.176482392665109 
2319	 0.177411017810873 
2320	 0.178617823418845 
2321	 0.180904044747583 
2322	 0.187154186807843 
2323	 0.187571379087003 
2324	 0.185446322376228 
2325	 0.18375430487251 
2326	 0.180178225683792 
2327	 0.178821797127917 
2328	 0.183547008738501 
2329	 0.182056328380026 
2330	 0.178344294086706 
2331	 0.177404817832714 
2332	 0.169045155968762 
2333	 0.165952000018261 
2334	 0.170122300096179 
2335	 0.169984089336472 
2336	 0.171254848908897 
2337	 0.17281795153475 
2338	 0.17059837183604 
2339	 0.162901229096618 
2340	 0.155560757893503 
2341	 0.15582806680194 
2342	 0.156245605489632 
2343	 0.161606163232951 
2344	 0.16716415608414 
2345	 0.16668922337453 
2346	 0.169252185839339 
2347	 0.170949745216619 
2348	 0.170563945326215 
2349	 0.167238812723819 
2350	 0.164898317925014 
2351	 0.16133454498146 
2352	 0.157595702317526 
2353	 0.16356837499104 
2354	 0.16028174371114 
2355	 0.152797924836919 
2356	 0.153514915295673 
2357	 0.151112852007736 
2358	 0.151395754735677 
2359	 0.15533236295108 
2360	 0.155434938272496 
2361	 0.154335091386877 
2362	 0.153998422105448 
2363	 0.149636152834906 
2364	 0.143896643195501 
2365	 0.143757641410834 
2366	 0.143593330538484 
2367	 0.142213833913383 
2368	 0.146223566855116 
2369	 0.139782897378452 
2370	 0.131534141411345 
2371	 0.134732053688567 
2372	 0.135143067124482 
2373	 0.13931202452505 
2374	 0.14121567541987 
2375	 0.140383518894917 
2376	 0.141737410335834 
2377	 0.140076656381888 
2378	 0.138219786493539 
2379	 0.139894889304596 
2380	 0.141245404714827 
2381	 0.144509957738968 
2382	 0.145390242574925 
2383	 0.144651879082739 
2384	 0.142500033983957 
2385	 0.135502387416992 
2386	 0.132781886263977 
2387	 0.135401884027549 
2388	 0.135232733092646 
2389	 0.131825678513537 
2390	 0.12993756580169 
2391	 0.124823131319405 
2392	 0.124942489471122 
2393	 0.134899641599174 
2394	 0.137455323879949 
2395	 0.13921343988567 
2396	 0.139244689538601 
2397	 0.12659734149527 
2398	 0.124926790227557 
2399	 0.136052637702571 
2400	 0.137046047276791 
2401	 0.137179258681003 
2402	 0.139657089217016 
2403	 0.129269895266627 
2404	 0.117110324059888 
2405	 0.12248406292635 
2406	 0.131270097067021 
2407	 0.14187779712579 
2408	 0.14973987514939 
2409	 0.142098755600619 
2410	 0.134679580409343 
2411	 0.127988503722395 
2412	 0.125767611806693 
2413	 0.138452808580114 
2414	 0.143386140609509 
2415	 0.13783364898251 
2416	 0.13718188648837 
2417	 0.13823934507057 
2418	 0.130617644882238 
2419	 0.136697324122106 
2420	 0.14885442212744 
2421	 0.146140848369966 
2422	 0.151672803955922 
2423	 0.144888954112491 
2424	 0.135659946451434 
2425	 0.146453023469372 
2426	 0.141978017842566 
2427	 0.125866560723043 
2428	 0.126131524341767 
2429	 0.12741747389342 
2430	 0.126990051394124 
2431	 0.143771555658723 
2432	 0.149481135559093 
2433	 0.135486482849135 
2434	 0.125251063151758 
2435	 0.115201930671004 
2436	 0.111349085128085 
2437	 0.103071220379559 
2438	 0.101746121732619 
2439	 0.111703527278707 
2440	 0.121197279583319 
2441	 0.142504559030298 
2442	 0.145675204487633 
2443	 0.140504994692288 
2444	 0.130649038151564 
2445	 8.45736024880387E-02 
2446	 7.64952826963601E-02 
2447	 0.109078628726996 
2448	 0.118624930308493 
2449	 0.136575272914829 
2450	 0.138025467695893 
2451	 0.107504041558407 
2452	 0.095671870048874 
2453	 9.22586207652388E-02 
2454	 9.39047527076003E-02 
2455	 9.50402546905703E-02 
2456	 9.37296754850658E-02 
2457	 8.97218052907688E-02 
2458	 0.103345360343193 
2459	 0.147377880359244 
2460	 0.151571332522115 
2461	 0.139373431466259 
2462	 0.129879395725085 
2463	 7.08434576089177E-02 
2464	 6.06176976526663E-02 
2465	 0.120295266988445 
2466	 0.126819280093544 
2467	 0.111148451964305 
2468	 0.108609024976415 
2469	 7.62621257984584E-02 
2470	 5.43486420735885E-02 
2471	 5.46614234866194E-02 
2472	 5.25244352862206E-02 
2473	 3.83202761456189E-02 
2474	 3.60194537697321E-02 
2475	 5.84601054794535E-02 
2476	 9.34149750358318E-02 
2477	 0.146181390086482 
2478	 0.184235893560112 
2479	 0.239776518099663 
2480	 0.248882287774377 
2481	 0.202641460973069 
2482	 0.167765940032874 
2483	 8.76118731999445E-02 
2484	 6.69925529392066E-02 
2485	 4.38096471377404E-02 
2486	 0.191701067474011 
2487	 0.360661301506095 
2488	 0.532863910279485 
2489	 0.506563743700687 
2490	 0.267739715550008 
2491	-8.00860991959306E-03 
2492	-0.133845061119235 
2493	-0.194446705925271 
2494	-0.129101804610048 
2495	-0.119992116891831 
2496	-0.149509491275069 
2497	-6.76482681400233E-02 
2498	-6.36683406924138E-02 
2499	 6.13412016526506E-02 
2500	 0.218187414263276 
