Wavelength	ref00127.asd
350	 0.339763674443577 
351	 0.335171803855879 
352	 0.332530080659816 
353	 0.354416104105424 
354	 0.336291298401237 
355	 0.324742059449125 
356	 0.34575821331251 
357	 0.33835641160866 
358	 0.329931127725962 
359	 0.327178718533308 
360	 0.328540614165126 
361	 0.319130183173622 
362	 0.319653158008083 
363	 0.328426676064858 
364	 0.329469879615632 
365	 0.330735553538485 
366	 0.328562582196974 
367	 0.321542868074206 
368	 0.312505214169985 
369	 0.311184569840035 
370	 0.307239878888698 
371	 0.295120584082047 
372	 0.301500008365462 
373	 0.289905272664073 
374	 0.27344420202129 
375	 0.282470410484917 
376	 0.281239135164192 
377	 0.281887344890448 
378	 0.287063040318039 
379	 0.284058485613773 
380	 0.285560729491557 
381	 0.285323094860043 
382	 0.277767546172725 
383	 0.267725874524644 
384	 0.26498334907429 
385	 0.266656339636764 
386	 0.265222273212803 
387	 0.26497342326651 
388	 0.267502425461293 
389	 0.268683960310357 
390	 0.2601405803828 
391	 0.254383188125534 
392	 0.253495654304676 
393	 0.254647794464799 
394	 0.249737491465594 
395	 0.24925724231232 
396	 0.249519524330437 
397	 0.245164844265816 
398	 0.247348945527468 
399	 0.246656691499512 
400	 0.243554612203784 
401	 0.246073998505372 
402	 0.242520382891974 
403	 0.238351767684609 
404	 0.238875706238716 
405	 0.245338441534666 
406	 0.243288799094335 
407	 0.237594557210919 
408	 0.23704347156684 
409	 0.234402381688335 
410	 0.229915733850172 
411	 0.226307472207261 
412	 0.22743054294435 
413	 0.22671507350911 
414	 0.227407781816075 
415	 0.230086460426722 
416	 0.226377217434192 
417	 0.226878124909732 
418	 0.229064136017827 
419	 0.227513041958269 
420	 0.225017802546259 
421	 0.225428040358641 
422	 0.22761470928118 
423	 0.226645017471281 
424	 0.227153726307379 
425	 0.226827250203764 
426	 0.224632747943162 
427	 0.224326477908131 
428	 0.225892773402123 
429	 0.226215593098477 
430	 0.223067247497618 
431	 0.224220055423758 
432	 0.224413575352051 
433	 0.224097770997965 
434	 0.228229534866307 
435	 0.226493525976756 
436	 0.225772006070069 
437	 0.229083356821577 
438	 0.22584772584773 
439	 0.224825268487888 
440	 0.224532396567547 
441	 0.221771146027277 
442	 0.223623768253738 
443	 0.224737794333771 
444	 0.223917921753199 
445	 0.224335214040783 
446	 0.224961579366814 
447	 0.225311732146663 
448	 0.224971674100255 
449	 0.223102509881206 
450	 0.223838032330974 
451	 0.225153481075132 
452	 0.223526057256174 
453	 0.224011800289255 
454	 0.223806894721353 
455	 0.222545990721433 
456	 0.223230249555824 
457	 0.222854247508958 
458	 0.221706462057406 
459	 0.220755763791857 
460	 0.220780872176222 
461	 0.220237722081857 
462	 0.219594390796443 
463	 0.220077909128156 
464	 0.219435119242994 
465	 0.21846929682269 
466	 0.217840444098495 
467	 0.217520576876679 
468	 0.216472420749891 
469	 0.215184404410905 
470	 0.214449564597224 
471	 0.214507203507748 
472	 0.214072539288547 
473	 0.213128013006749 
474	 0.212572758012057 
475	 0.212810689402372 
476	 0.212402259970115 
477	 0.211057950836224 
478	 0.211031866475832 
479	 0.211623572447019 
480	 0.212041977086706 
481	 0.211519946050292 
482	 0.209713057853759 
483	 0.208776371605862 
484	 0.209119605095441 
485	 0.209319669945436 
486	 0.209159338025846 
487	 0.208563307510314 
488	 0.207849583614008 
489	 0.208108163524118 
490	 0.20849664211266 
491	 0.208547187514241 
492	 0.20810821015112 
493	 0.207848318324355 
494	 0.207844902311593 
495	 0.208628703427462 
496	 0.211268308846276 
497	 0.21176356813773 
498	 0.212217724682532 
499	 0.214644379441053 
500	 0.215545726687066 
501	 0.217537444778942 
502	 0.220678105309902 
503	 0.223547100284607 
504	 0.226690735689957 
505	 0.229614978353153 
506	 0.232569624861944 
507	 0.237201696503358 
508	 0.241627233292493 
509	 0.246165802276758 
510	 0.251654482262969 
511	 0.257932052702481 
512	 0.265193106611941 
513	 0.272544365228152 
514	 0.278580672320449 
515	 0.287472890254566 
516	 0.297287158962408 
517	 0.306306879952946 
518	 0.3159520826829 
519	 0.32639365030976 
520	 0.336362528607491 
521	 0.344822688336905 
522	 0.354944643776073 
523	 0.365544240102589 
524	 0.37573135364088 
525	 0.385063528792073 
526	 0.39513335884653 
527	 0.404876057127301 
528	 0.413466124336816 
529	 0.422616120405289 
530	 0.430504905712994 
531	 0.437033041634609 
532	 0.443148681268299 
533	 0.449261041350163 
534	 0.455233416604882 
535	 0.460465617603252 
536	 0.463701882199418 
537	 0.467186654804347 
538	 0.470862928203566 
539	 0.474061243218056 
540	 0.476714838156277 
541	 0.479229904139257 
542	 0.481521255964272 
543	 0.483155180389015 
544	 0.485421313972545 
545	 0.487218242611645 
546	 0.488233780283796 
547	 0.491000112385978 
548	 0.492559540900346 
549	 0.493211881575105 
550	 0.494267152328524 
551	 0.494287907989727 
552	 0.493436264777774 
553	 0.492260896603274 
554	 0.491592155308213 
555	 0.48926368048334 
556	 0.485745067020405 
557	 0.481955342833909 
558	 0.478167412977563 
559	 0.473689811652907 
560	 0.468168075325306 
561	 0.461729886849792 
562	 0.456949084043148 
563	 0.451671821041085 
564	 0.444957067049162 
565	 0.439062576141762 
566	 0.432678354697147 
567	 0.425902739924915 
568	 0.419109629400783 
569	 0.411788745801973 
570	 0.404446094596143 
571	 0.397170182521297 
572	 0.389636028298745 
573	 0.382545974563974 
574	 0.376454177239802 
575	 0.371168068030233 
576	 0.364865630712717 
577	 0.358407981019873 
578	 0.352699981714182 
579	 0.348390118021504 
580	 0.344217830708186 
581	 0.339587042754155 
582	 0.334729443528117 
583	 0.330810321746012 
584	 0.327837613471823 
585	 0.324734526723897 
586	 0.320799991832976 
587	 0.317816713966585 
588	 0.314994017121637 
589	 0.311955888778111 
590	 0.308793485899729 
591	 0.306358961385298 
592	 0.304568457751273 
593	 0.302888974673009 
594	 0.300319349116488 
595	 0.298761936701367 
596	 0.297602199224656 
597	 0.295656891009923 
598	 0.293549844990658 
599	 0.29174862912872 
600	 0.290099362012361 
601	 0.287890798234549 
602	 0.285779291662222 
603	 0.283529162272475 
604	 0.281045650083556 
605	 0.279138339046258 
606	 0.276362631739151 
607	 0.273159208520321 
608	 0.270639595439626 
609	 0.267226645362502 
610	 0.263763441335427 
611	 0.260845086143484 
612	 0.258395594903422 
613	 0.25524885517223 
614	 0.251886417322305 
615	 0.24898769666817 
616	 0.246074823600825 
617	 0.242928132255667 
618	 0.239907799091143 
619	 0.23760036670952 
620	 0.234927767531134 
621	 0.232880236540813 
622	 0.231850543171866 
623	 0.230626588256624 
624	 0.22902932029052 
625	 0.227599758281386 
626	 0.22690257689644 
627	 0.225981991634904 
628	 0.224868993771323 
629	 0.224008634249166 
630	 0.224095729670127 
631	 0.223337137635117 
632	 0.222051496213647 
633	 0.220732261758397 
634	 0.219141173517837 
635	 0.217524434711391 
636	 0.215665699235837 
637	 0.213250691251528 
638	 0.210757153136704 
639	 0.207909760301987 
640	 0.204804344974102 
641	 0.202146006899732 
642	 0.198644381076668 
643	 0.19513673179439 
644	 0.192380044699885 
645	 0.189161853514393 
646	 0.186498174167526 
647	 0.18398074117312 
648	 0.180590849185941 
649	 0.178273952147302 
650	 0.176497878128571 
651	 0.174797010412744 
652	 0.173206752810793 
653	 0.172283725277125 
654	 0.170917710447235 
655	 0.168292373832067 
656	 0.167515152441013 
657	 0.165923928531466 
658	 0.16332105347968 
659	 0.161175915669495 
660	 0.158648038158438 
661	 0.156693372684069 
662	 0.155422471385375 
663	 0.152686844599188 
664	 0.150377545919589 
665	 0.148301686661738 
666	 0.145943253900779 
667	 0.144972561905138 
668	 0.144033124196753 
669	 0.142867734829889 
670	 0.142261292609489 
671	 0.141135332544771 
672	 0.140489489433446 
673	 0.14074801723995 
674	 0.140103265991298 
675	 0.139837345535805 
676	 0.139890080531403 
677	 0.139765011482252 
678	 0.139452692186393 
679	 0.139845516910055 
680	 0.141081007505268 
681	 0.142468088629778 
682	 0.144093176272774 
683	 0.146200979542055 
684	 0.148882151047192 
685	 0.151638150752893 
686	 0.155754776891245 
687	 0.16176732544735 
688	 0.169100107192647 
689	 0.176821426897697 
690	 0.184986693114415 
691	 0.194575109246326 
692	 0.206740377599969 
693	 0.221187602002154 
694	 0.237295402623855 
695	 0.254762144025085 
696	 0.274641770869436 
697	 0.295228943049978 
698	 0.316245359499294 
699	 0.33802196513689 
700	 0.361576484152715 
701	 0.385509117173625 
702	 0.409317558847567 
703	 0.433827708780451 
704	 0.457745478003594 
705	 0.481538815896666 
706	 0.505807566395999 
707	 0.529721380838044 
708	 0.554698396293507 
709	 0.579822507766074 
710	 0.603349234894248 
711	 0.627367941894374 
712	 0.65252826244051 
713	 0.678334830007979 
714	 0.703302325626855 
715	 0.727678009909763 
716	 0.75119745310371 
717	 0.774629242775888 
718	 0.799257273711903 
719	 0.825870259722249 
720	 0.854081115655902 
721	 0.882441096135564 
722	 0.907710123475494 
723	 0.931671442082379 
724	 0.956508517833847 
725	 0.981815679651611 
726	 1.00638514466057 
727	 1.02996495180278 
728	 1.05331549135645 
729	 1.07717359517588 
730	 1.09994648605243 
731	 1.12190668067093 
732	 1.14393110876212 
733	 1.16496709389529 
734	 1.18400699072372 
735	 1.20116948552016 
736	 1.21719131830114 
737	 1.23340474222477 
738	 1.24842077644141 
739	 1.26178146073834 
740	 1.27536621189766 
741	 1.287927219497 
742	 1.29910757137938 
743	 1.30885434640373 
744	 1.31748424812734 
745	 1.32548789603056 
746	 1.33298434355642 
747	 1.33977273984946 
748	 1.34571500978579 
749	 1.35045880849964 
750	 1.35424047879135 
751	 1.35828996292741 
752	 1.36133905428303 
753	 1.36375837862776 
754	 1.36605004649064 
755	 1.36748192274171 
756	 1.36851401668531 
757	 1.36897839438065 
758	 1.36872618769168 
759	 1.37137484126627 
760	 1.37544739113103 
761	 1.37762807191531 
762	 1.37420270278967 
763	 1.37291923571109 
764	 1.37184843664035 
765	 1.36955990576964 
766	 1.36917642836327 
767	 1.36688537721986 
768	 1.36421185830882 
769	 1.36323753538022 
770	 1.36148783185426 
771	 1.35984631232714 
772	 1.35871552533539 
773	 1.35781300663112 
774	 1.35509105619104 
775	 1.35273615046558 
776	 1.35167277566678 
777	 1.34962563982243 
778	 1.34761782549045 
779	 1.34580381775703 
780	 1.3441006865928 
781	 1.3423575925201 
782	 1.34037323768933 
783	 1.33858494864739 
784	 1.33739661776073 
785	 1.33454483529969 
786	 1.33187805537111 
787	 1.32985956981902 
788	 1.3271958092886 
789	 1.32465791746791 
790	 1.32277350857705 
791	 1.32141853075177 
792	 1.31922121839538 
793	 1.31772473609371 
794	 1.3164751232004 
795	 1.31449968864117 
796	 1.31139062867137 
797	 1.30900899700434 
798	 1.30748910875076 
799	 1.30586430300073 
800	 1.3036616018115 
801	 1.30118184152277 
802	 1.29897280859964 
803	 1.29763016882104 
804	 1.29653371371023 
805	 1.29468722156095 
806	 1.29212139840209 
807	 1.29109331438609 
808	 1.28855769725922 
809	 1.28580017707481 
810	 1.28429411084679 
811	 1.28068780336287 
812	 1.2765095194299 
813	 1.27252242190538 
814	 1.26893336614868 
815	 1.26532900159177 
816	 1.26204012957744 
817	 1.25930605141031 
818	 1.25717893969161 
819	 1.25665944904153 
820	 1.25664910777613 
821	 1.25606871547376 
822	 1.25448896943967 
823	 1.25278547916926 
824	 1.25062971820115 
825	 1.24823095074779 
826	 1.24816304700561 
827	 1.24723546833463 
828	 1.24540999801665 
829	 1.24378869853121 
830	 1.24141803976025 
831	 1.23981740500532 
832	 1.23905992267133 
833	 1.23810670011272 
834	 1.2369353604541 
835	 1.23581003636468 
836	 1.23492312945024 
837	 1.2342973473438 
838	 1.2337077790459 
839	 1.2328984841624 
840	 1.2315955579034 
841	 1.22940421072802 
842	 1.22871677988458 
843	 1.22793330289911 
844	 1.22561071740846 
845	 1.22495969923896 
846	 1.22340533365737 
847	 1.2214339689333 
848	 1.22041797853428 
849	 1.21859264728984 
850	 1.21691441841014 
851	 1.21565942762499 
852	 1.21453955893953 
853	 1.21420663256435 
854	 1.21285957209166 
855	 1.20995992416852 
856	 1.20687782595333 
857	 1.20657815076784 
858	 1.20535670898955 
859	 1.2024054112606 
860	 1.20301873844629 
861	 1.20090709579691 
862	 1.19857412507045 
863	 1.19851698266042 
864	 1.1976359324516 
865	 1.19619525185128 
866	 1.19507319114753 
867	 1.19472688193007 
868	 1.19312328787112 
869	 1.18944579817682 
870	 1.18666415213901 
871	 1.18766936267726 
872	 1.18613397463381 
873	 1.18479834809094 
874	 1.18367510418661 
875	 1.18098649478826 
876	 1.1788567933758 
877	 1.17737821273578 
878	 1.17597036716291 
879	 1.1737651328751 
880	 1.17190723506198 
881	 1.17047328300293 
882	 1.16929314718596 
883	 1.16807994892922 
884	 1.16630305080208 
885	 1.16478317190511 
886	 1.16392722703409 
887	 1.16293662988147 
888	 1.16017010357172 
889	 1.15758587469154 
890	 1.15647450894644 
891	 1.15411628970416 
892	 1.15096313482706 
893	 1.14695651818563 
894	 1.1424928103644 
895	 1.13972593414635 
896	 1.13785194736721 
897	 1.13616830637738 
898	 1.1341459088929 
899	 1.13190359268024 
900	 1.12972999670354 
901	 1.1272378174307 
902	 1.12447055578501 
903	 1.12566479810352 
904	 1.12445322689922 
905	 1.12111209985374 
906	 1.11988422361469 
907	 1.11967468604343 
908	 1.11653793825534 
909	 1.11225905816637 
910	 1.11242028044644 
911	 1.11101496360791 
912	 1.10898076662057 
913	 1.10630742990335 
914	 1.10209159783981 
915	 1.10258081051806 
916	 1.1015294170174 
917	 1.09831220166916 
918	 1.09953654196485 
919	 1.09889403867071 
920	 1.09792561331553 
921	 1.09723952368317 
922	 1.09498894771606 
923	 1.09379686909323 
924	 1.09228073052486 
925	 1.08872265249426 
926	 1.08224842565576 
927	 1.07704361823068 
928	 1.07376516978263 
929	 1.07103071801133 
930	 1.06553818322948 
931	 1.05910278841094 
932	 1.05292694062075 
933	 1.04727637529224 
934	 1.04021870482754 
935	 1.03546531642021 
936	 1.03042863621088 
937	 1.02493413656239 
938	 1.02584028531978 
939	 1.02474566690062 
940	 1.02455806523835 
941	 1.02642846149824 
942	 1.02352405841972 
943	 1.0223940743636 
944	 1.02106011620821 
945	 1.01718165409693 
946	 1.01249834414527 
947	 1.00798654978105 
948	 1.00461991394642 
949	 1.00227289388499 
950	 0.99862944262937 
951	 1.00127990993868 
952	 0.999175146967186 
953	 0.988320649029645 
954	 0.987734838281445 
955	 0.986063095792956 
956	 0.983846794245533 
957	 0.982114037799017 
958	 0.977378123769867 
959	 0.976883274942702 
960	 0.979821532185769 
961	 0.982075153130535 
962	 0.978115496211082 
963	 0.979239072868321 
964	 0.977768627519458 
965	 0.971588904485637 
966	 0.973873256896136 
967	 0.977544659734896 
968	 0.977347233216345 
969	 0.973659412548834 
970	 0.9742263008793 
971	 0.97361844625397 
972	 0.972098645827278 
973	 0.970802157559058 
974	 0.970361725662915 
975	 0.970183334605377 
976	 0.969903414717826 
977	 0.969568220036533 
978	 0.969561865345043 
979	 0.968382004716348 
980	 0.967364894049935 
981	 0.967974404608155 
982	 0.97047102747904 
983	 0.967807313660853 
984	 0.966419459165238 
985	 0.967970783471938 
986	 0.968652237283917 
987	 0.972318904554907 
988	 0.971114700941396 
989	 0.966920789011764 
990	 0.967935191723085 
991	 0.966642439585937 
992	 0.967239628661296 
993	 0.970202674599381 
994	 0.972784604484883 
995	 0.972541208281064 
996	 0.969116777190312 
997	 0.968932947832913 
998	 0.975993902969169 
999	 0.972479915521441 
1000	 0.967904355899487 
1001	 1.01242100782302 
1002	 1.01290798493908 
1003	 1.01321454785532 
1004	 1.01364736928986 
1005	 1.01401057333499 
1006	 1.01475950505528 
1007	 1.01512546785302 
1008	 1.01512105924875 
1009	 1.01531079430835 
1010	 1.01595377340259 
1011	 1.01575260045994 
1012	 1.01475656648444 
1013	 1.01489416749794 
1014	 1.01497155492514 
1015	 1.01497674454035 
1016	 1.01579817959901 
1017	 1.01611181139239 
1018	 1.0164940452183 
1019	 1.016863827779 
1020	 1.01726859909412 
1021	 1.01772987473006 
1022	 1.01802974355599 
1023	 1.01837631158932 
1024	 1.01810476733671 
1025	 1.01803223536338 
1026	 1.01853933239252 
1027	 1.01875731813772 
1028	 1.01899590315967 
1029	 1.01919938439994 
1030	 1.01859907977405 
1031	 1.01806549954916 
1032	 1.01785911949696 
1033	 1.01748503574356 
1034	 1.01696115068166 
1035	 1.01667688833907 
1036	 1.01645674258783 
1037	 1.01620251304254 
1038	 1.01604060139162 
1039	 1.01577332721135 
1040	 1.01564155351543 
1041	 1.01546869744647 
1042	 1.01521968600736 
1043	 1.01601586542059 
1044	 1.01685945932143 
1045	 1.01686220775818 
1046	 1.01641011311327 
1047	 1.01538101125542 
1048	 1.0144168647533 
1049	 1.0144918941979 
1050	 1.01450650925407 
1051	 1.01515653352581 
1052	 1.01543520817483 
1053	 1.01578006323866 
1054	 1.01572338958284 
1055	 1.01541067040926 
1056	 1.01554402549818 
1057	 1.01531049635596 
1058	 1.01481939070474 
1059	 1.0150159788399 
1060	 1.01492380451192 
1061	 1.01454539894314 
1062	 1.01445204500177 
1063	 1.0141326907201 
1064	 1.01427546702648 
1065	 1.01417029885384 
1066	 1.01425872953527 
1067	 1.01387799748592 
1068	 1.01340759853452 
1069	 1.01257638940279 
1070	 1.01210728676644 
1071	 1.01196568310934 
1072	 1.01161565746373 
1073	 1.01104225527366 
1074	 1.01057148936053 
1075	 1.01022307111803 
1076	 1.00930416782062 
1077	 1.00869591268372 
1078	 1.00840734747478 
1079	 1.00770582510735 
1080	 1.00744712885807 
1081	 1.00672849811131 
1082	 1.00596734831633 
1083	 1.00435498120672 
1084	 1.00301171026468 
1085	 1.00215016494754 
1086	 1.00155966982686 
1087	 1.00110598705701 
1088	 1.0004992691051 
1089	 0.999097767180407 
1090	 0.997387694915455 
1091	 0.996160546579351 
1092	 0.994856486343608 
1093	 0.993355121775552 
1094	 0.991873677790492 
1095	 0.990371319466627 
1096	 0.988859881610876 
1097	 0.987533741379532 
1098	 0.985751823949095 
1099	 0.983799862006662 
1100	 0.981674392451949 
1101	 0.979211147034157 
1102	 0.97710219545134 
1103	 0.975421877752183 
1104	 0.973346176014376 
1105	 0.971469302130264 
1106	 0.969617244375961 
1107	 0.967293007745262 
1108	 0.965189003061384 
1109	 0.962875092658151 
1110	 0.959731883139256 
1111	 0.956465321760141 
1112	 0.952676603268131 
1113	 0.948798496194843 
1114	 0.944272650474204 
1115	 0.939806331865811 
1116	 0.935095975149869 
1117	 0.930479025154158 
1118	 0.925314467767964 
1119	 0.919701206058121 
1120	 0.914485203613541 
1121	 0.909146981931126 
1122	 0.904462969082436 
1123	 0.90083625389944 
1124	 0.896918197104668 
1125	 0.89347298039246 
1126	 0.890684423159057 
1127	 0.888648383418873 
1128	 0.886291995100809 
1129	 0.884890590031167 
1130	 0.882581029425983 
1131	 0.880186131062402 
1132	 0.877453287439784 
1133	 0.874280571573569 
1134	 0.871346550450415 
1135	 0.868626424807345 
1136	 0.864643733933076 
1137	 0.861304385655246 
1138	 0.857940703826325 
1139	 0.853828092459218 
1140	 0.849964794748033 
1141	 0.845344373814937 
1142	 0.840537086300176 
1143	 0.835574634383599 
1144	 0.829894746248109 
1145	 0.824599139465885 
1146	 0.819184938430978 
1147	 0.814355493589913 
1148	 0.809854455301894 
1149	 0.806001904320821 
1150	 0.802783190776995 
1151	 0.799803945001 
1152	 0.797219415317259 
1153	 0.79505661169407 
1154	 0.79348762924634 
1155	 0.792352076575417 
1156	 0.79153163315306 
1157	 0.791000347608811 
1158	 0.79041662116379 
1159	 0.789216000034054 
1160	 0.788389357017677 
1161	 0.787603367785013 
1162	 0.786905649992175 
1163	 0.786385284755904 
1164	 0.785813875104547 
1165	 0.785236326387752 
1166	 0.784506832744728 
1167	 0.783687292965369 
1168	 0.782823173427528 
1169	 0.781761283132577 
1170	 0.78091286150289 
1171	 0.78009575890748 
1172	 0.77961170837214 
1173	 0.779175797610131 
1174	 0.778491357073825 
1175	 0.777331279093104 
1176	 0.775757168673455 
1177	 0.774611527657142 
1178	 0.773431264255908 
1179	 0.772234899933461 
1180	 0.771313554054866 
1181	 0.770238529441448 
1182	 0.768783991687078 
1183	 0.767658207551894 
1184	 0.766689249539206 
1185	 0.765862695223226 
1186	 0.765306750074178 
1187	 0.764613993219525 
1188	 0.764045047192061 
1189	 0.763387417153706 
1190	 0.762493588793291 
1191	 0.761610233441026 
1192	 0.761043384964868 
1193	 0.760472256823117 
1194	 0.759843504031929 
1195	 0.759355881371883 
1196	 0.758731675994374 
1197	 0.757878174163518 
1198	 0.757285506131068 
1199	 0.756736858696822 
1200	 0.756349524332181 
1201	 0.756185335948061 
1202	 0.755863474986421 
1203	 0.755576154550991 
1204	 0.755328365050462 
1205	 0.754816195415716 
1206	 0.754744911001654 
1207	 0.755147347985596 
1208	 0.7552960479125 
1209	 0.755548959339117 
1210	 0.755702068018654 
1211	 0.755879635810276 
1212	 0.755986493742895 
1213	 0.756339804840875 
1214	 0.756924506142447 
1215	 0.757508969542592 
1216	 0.758173369143078 
1217	 0.758862042036027 
1218	 0.759694189052664 
1219	 0.760414523465069 
1220	 0.761080754542957 
1221	 0.76181432760786 
1222	 0.762534640641625 
1223	 0.763316031988642 
1224	 0.764281609967906 
1225	 0.765011210204166 
1226	 0.765639525599217 
1227	 0.766262274460356 
1228	 0.766750533417323 
1229	 0.767204354742391 
1230	 0.767774097041854 
1231	 0.768545730483105 
1232	 0.769192408741858 
1233	 0.769941985831059 
1234	 0.770496043857253 
1235	 0.770970618148143 
1236	 0.771341538149752 
1237	 0.771518329032204 
1238	 0.771811683278736 
1239	 0.772069993835895 
1240	 0.7723893058865 
1241	 0.772851907036809 
1242	 0.773149246148147 
1243	 0.773412890112521 
1244	 0.773573917459072 
1245	 0.773540686724398 
1246	 0.773636510951584 
1247	 0.773787871154284 
1248	 0.773837970581998 
1249	 0.773852809597706 
1250	 0.773879804998247 
1251	 0.773827909597085 
1252	 0.773826518878399 
1253	 0.773730344892161 
1254	 0.773684053373507 
1255	 0.773517281956687 
1256	 0.77317941289629 
1257	 0.772941589481005 
1258	 0.772807627179244 
1259	 0.772425807981881 
1260	 0.771861728350582 
1261	 0.771425367483415 
1262	 0.770829658723183 
1263	 0.77037564795387 
1264	 0.770051444752728 
1265	 0.769780243992936 
1266	 0.769677888763101 
1267	 0.769378640398635 
1268	 0.768933564655806 
1269	 0.768717794433027 
1270	 0.768582726549562 
1271	 0.768325110009806 
1272	 0.768236946782012 
1273	 0.768083648990371 
1274	 0.767844764495524 
1275	 0.767424257032153 
1276	 0.766970053971717 
1277	 0.766487083453856 
1278	 0.766057966232898 
1279	 0.765458878783236 
1280	 0.765028538094906 
1281	 0.764899465744492 
1282	 0.764410939466409 
1283	 0.763826589334753 
1284	 0.763104692415331 
1285	 0.76214763703307 
1286	 0.761247189285763 
1287	 0.760270665352668 
1288	 0.759289703104749 
1289	 0.758317496259277 
1290	 0.757275523795557 
1291	 0.756183024043492 
1292	 0.755049777298359 
1293	 0.753975060237225 
1294	 0.752669365097026 
1295	 0.751330690515693 
1296	 0.749670712208551 
1297	 0.74798478376005 
1298	 0.746018207367376 
1299	 0.744240847398769 
1300	 0.742563114536341 
1301	 0.740539835546676 
1302	 0.738417914718831 
1303	 0.736160096387057 
1304	 0.733559403267386 
1305	 0.731075587629726 
1306	 0.72856649634116 
1307	 0.726062401851881 
1308	 0.723651802557378 
1309	 0.720919242575721 
1310	 0.717955753132042 
1311	 0.715101057952049 
1312	 0.712158263549749 
1313	 0.709064300551062 
1314	 0.706012363293379 
1315	 0.702878484017183 
1316	 0.699446828094272 
1317	 0.696098411066581 
1318	 0.692887771909793 
1319	 0.689551812786538 
1320	 0.686179824918861 
1321	 0.682597164492403 
1322	 0.678911161955774 
1323	 0.675078135066366 
1324	 0.671090739613963 
1325	 0.666836306167346 
1326	 0.662489641150704 
1327	 0.657864485271268 
1328	 0.653295793026269 
1329	 0.648468862425812 
1330	 0.643882643728707 
1331	 0.639347274082521 
1332	 0.634941403261877 
1333	 0.63080908665073 
1334	 0.626639810113201 
1335	 0.622502539983255 
1336	 0.618610678109708 
1337	 0.614896326856694 
1338	 0.611030769216978 
1339	 0.60684935299792 
1340	 0.603082594776426 
1341	 0.599226553926144 
1342	 0.595240889295443 
1343	 0.591015655450541 
1344	 0.586892547145033 
1345	 0.582286577475588 
1346	 0.576864896596263 
1347	 0.57242717387633 
1348	 0.568015793723551 
1349	 0.562204408695234 
1350	 0.554920421198159 
1351	 0.548146337088948 
1352	 0.540534279003548 
1353	 0.531985700790194 
1354	 0.527077855113882 
1355	 0.518501982301337 
1356	 0.508591824519308 
1357	 0.498628425484111 
1358	 0.507612636318799 
1359	 0.496577307717383 
1360	 0.463383739721266 
1361	 0.444854179581473 
1362	 0.444018505505724 
1363	 0.418529014960129 
1364	 0.443506303796362 
1365	 0.441637257546494 
1366	 0.381886708324366 
1367	 0.363292288878593 
1368	 0.390035340541208 
1369	 0.387699240809806 
1370	 0.375079625403592 
1371	 0.369062656801455 
1372	 0.353042912190597 
1373	 0.352007263854951 
1374	 0.366003373568226 
1375	 0.368419370505596 
1376	 0.36585420045838 
1377	 0.380718108683946 
1378	 0.379826959984386 
1379	 0.371053488123367 
1380	 0.362638279630628 
1381	 0.350787385784634 
1382	 0.339540165256202 
1383	 0.325865127029798 
1384	 0.316499843589024 
1385	 0.314126856191484 
1386	 0.301200440438737 
1387	 0.281156688216428 
1388	 0.275108939418632 
1389	 0.271532295328743 
1390	 0.267121542880683 
1391	 0.27277960465756 
1392	 0.26877631062873 
1393	 0.254470380251238 
1394	 0.24792504692707 
1395	 0.243685293659518 
1396	 0.238971331235347 
1397	 0.237307736357564 
1398	 0.233651095940068 
1399	 0.228140314940591 
1400	 0.223266148614893 
1401	 0.219027939464813 
1402	 0.213645136024722 
1403	 0.206595302649354 
1404	 0.202333192314805 
1405	 0.200414593840498 
1406	 0.1972603734476 
1407	 0.191082349885935 
1408	 0.185940301716822 
1409	 0.181699696070971 
1410	 0.177555619739488 
1411	 0.174406401345452 
1412	 0.173993705647229 
1413	 0.17188828687041 
1414	 0.168092057553876 
1415	 0.16668920663698 
1416	 0.166716533514357 
1417	 0.16570755244831 
1418	 0.164223408371108 
1419	 0.164207920468336 
1420	 0.165184967635437 
1421	 0.164658829919353 
1422	 0.164608928787909 
1423	 0.163605163394957 
1424	 0.160606460699795 
1425	 0.159551136834668 
1426	 0.159560241885956 
1427	 0.158886902925166 
1428	 0.158344711813743 
1429	 0.157759198889641 
1430	 0.156854839515238 
1431	 0.15598777525136 
1432	 0.155288594167296 
1433	 0.154626580269778 
1434	 0.153570298838307 
1435	 0.153047774797069 
1436	 0.152949454502513 
1437	 0.152752880600357 
1438	 0.152966620734128 
1439	 0.1528121407427 
1440	 0.152318975393096 
1441	 0.152094532381729 
1442	 0.15208885762743 
1443	 0.151447880284276 
1444	 0.151318174495444 
1445	 0.152373476672505 
1446	 0.152842821415775 
1447	 0.152712468288925 
1448	 0.152963096876796 
1449	 0.153041368147685 
1450	 0.153150985752043 
1451	 0.153415669756971 
1452	 0.153739094036494 
1453	 0.153892106584717 
1454	 0.154210465877621 
1455	 0.154882597823333 
1456	 0.155077487571898 
1457	 0.154969760668083 
1458	 0.155201784240154 
1459	 0.155540191849251 
1460	 0.155688748813592 
1461	 0.155886794516488 
1462	 0.156089093839735 
1463	 0.155859465536295 
1464	 0.15628206585233 
1465	 0.157532541220239 
1466	 0.158061809502871 
1467	 0.158394550605287 
1468	 0.158909334090632 
1469	 0.1587078356534 
1470	 0.159413061731384 
1471	 0.160830945404086 
1472	 0.162134816722538 
1473	 0.163913975563074 
1474	 0.16521010638188 
1475	 0.166047656342465 
1476	 0.167335677497228 
1477	 0.168683512304122 
1478	 0.169952660502169 
1479	 0.171323085329094 
1480	 0.172822741402814 
1481	 0.174227321011703 
1482	 0.175639243190473 
1483	 0.177215678743263 
1484	 0.178826579476049 
1485	 0.180316951917694 
1486	 0.181865410245184 
1487	 0.183517901872621 
1488	 0.185133394138209 
1489	 0.186647852588186 
1490	 0.188270098029637 
1491	 0.190402206915398 
1492	 0.192399047577608 
1493	 0.194094690393072 
1494	 0.195901550057772 
1495	 0.197511538315222 
1496	 0.198753483896785 
1497	 0.200349029166185 
1498	 0.202157086873192 
1499	 0.203828741825169 
1500	 0.205553215532551 
1501	 0.207211525547758 
1502	 0.208910677404427 
1503	 0.210456820070565 
1504	 0.21184941001977 
1505	 0.213371048613473 
1506	 0.214761563070661 
1507	 0.21641556385816 
1508	 0.218289638788433 
1509	 0.22003991879568 
1510	 0.221892080439117 
1511	 0.22360488629475 
1512	 0.225253731871234 
1513	 0.226855893630965 
1514	 0.228399480729479 
1515	 0.229946795287832 
1516	 0.231325244742499 
1517	 0.233006487302258 
1518	 0.234970171279093 
1519	 0.236672236610054 
1520	 0.23840738253883 
1521	 0.240113892293091 
1522	 0.241691858535931 
1523	 0.24322086199936 
1524	 0.244800676271984 
1525	 0.246351370393794 
1526	 0.247627600508274 
1527	 0.249197800818523 
1528	 0.251084957102034 
1529	 0.252738530961023 
1530	 0.254353990418337 
1531	 0.256020238535418 
1532	 0.257632743668856 
1533	 0.259223882701531 
1534	 0.260890085108084 
1535	 0.262499821734424 
1536	 0.264058357898265 
1537	 0.26554092975468 
1538	 0.266969715007798 
1539	 0.268431431990577 
1540	 0.269791874714436 
1541	 0.271202955007676 
1542	 0.272648404867312 
1543	 0.274158325047915 
1544	 0.275819651858323 
1545	 0.277282580255226 
1546	 0.278660081726788 
1547	 0.280094580099822 
1548	 0.281456982086038 
1549	 0.282762004412134 
1550	 0.284031084446967 
1551	 0.285419244387181 
1552	 0.286777459554316 
1553	 0.288152636619832 
1554	 0.289804602988465 
1555	 0.291233379782303 
1556	 0.292371140859586 
1557	 0.293682080411596 
1558	 0.295104992441046 
1559	 0.296366184468259 
1560	 0.297601574114515 
1561	 0.298867970217267 
1562	 0.299951057552451 
1563	 0.301131748972288 
1564	 0.302401129354792 
1565	 0.303806687847045 
1566	 0.305140314045504 
1567	 0.306463778278034 
1568	 0.30766263660771 
1569	 0.308776057384049 
1570	 0.310022543459431 
1571	 0.311213109035459 
1572	 0.312479333227687 
1573	 0.313926152719777 
1574	 0.315117543611491 
1575	 0.316161437219022 
1576	 0.317257648878844 
1577	 0.318271620828132 
1578	 0.319324617325103 
1579	 0.320311232386425 
1580	 0.321527847555466 
1581	 0.322965485825916 
1582	 0.323905561019271 
1583	 0.324696305580676 
1584	 0.325760551107577 
1585	 0.326517177981543 
1586	 0.327706970818368 
1587	 0.329535216659369 
1588	 0.330671437718845 
1589	 0.331528533892578 
1590	 0.332507336117185 
1591	 0.333325575699121 
1592	 0.334228618838462 
1593	 0.335243468088069 
1594	 0.336087509020536 
1595	 0.33673892091212 
1596	 0.337677283845538 
1597	 0.338688033062307 
1598	 0.339707927321882 
1599	 0.34097606334327 
1600	 0.341929695792455 
1601	 0.342760341473728 
1602	 0.343503105502495 
1603	 0.343990307656248 
1604	 0.344815945524968 
1605	 0.345658374874234 
1606	 0.346633934103183 
1607	 0.347963999588253 
1608	 0.348839088161648 
1609	 0.349594314291878 
1610	 0.350219868620235 
1611	 0.350508855386191 
1612	 0.351151764699813 
1613	 0.351871940921915 
1614	 0.352540165753177 
1615	 0.353292735623773 
1616	 0.354082138227267 
1617	 0.354845623537648 
1618	 0.355609434458422 
1619	 0.356557415131487 
1620	 0.357208309072488 
1621	 0.357586099239242 
1622	 0.358232384890464 
1623	 0.358929771965299 
1624	 0.359559739562394 
1625	 0.360282878073624 
1626	 0.360907661607592 
1627	 0.361399961231352 
1628	 0.361968073269622 
1629	 0.362611174005962 
1630	 0.363221702329302 
1631	 0.363796061090385 
1632	 0.36433203759974 
1633	 0.364944819810756 
1634	 0.365321497934022 
1635	 0.365539899981105 
1636	 0.365840072319092 
1637	 0.365914361757709 
1638	 0.366347555923973 
1639	 0.367075503083513 
1640	 0.367497730416549 
1641	 0.367981009065731 
1642	 0.368303432688805 
1643	 0.368365981891087 
1644	 0.3685389231276 
1645	 0.368791852504446 
1646	 0.368947269651618 
1647	 0.369031263152576 
1648	 0.369002846772691 
1649	 0.368889176321589 
1650	 0.36875083024117 
1651	 0.368456622282234 
1652	 0.368443768961057 
1653	 0.368599951185143 
1654	 0.368506889407315 
1655	 0.368491434689936 
1656	 0.368174088498958 
1657	 0.367505813859307 
1658	 0.367194517814731 
1659	 0.36685696227432 
1660	 0.366816538911165 
1661	 0.366800959238975 
1662	 0.366635242098013 
1663	 0.366432122931947 
1664	 0.366168087049893 
1665	 0.365922263519226 
1666	 0.365609653431599 
1667	 0.365434665537206 
1668	 0.365412642037723 
1669	 0.365574717742181 
1670	 0.366191316464365 
1671	 0.366576954096097 
1672	 0.36663371474188 
1673	 0.366610429140378 
1674	 0.366164440135707 
1675	 0.366028647299972 
1676	 0.366377696867651 
1677	 0.366289448773649 
1678	 0.365883559571845 
1679	 0.36565994159504 
1680	 0.365531918337666 
1681	 0.365502001905574 
1682	 0.365785477082185 
1683	 0.365955054916403 
1684	 0.365676552847585 
1685	 0.36531953582426 
1686	 0.364988988283086 
1687	 0.364433428375977 
1688	 0.363776547663025 
1689	 0.363398695431289 
1690	 0.363429436803375 
1691	 0.363165393874903 
1692	 0.362897008247424 
1693	 0.362568378756824 
1694	 0.361826902196342 
1695	 0.361401973013739 
1696	 0.36139816444458 
1697	 0.360964405200117 
1698	 0.360448230042311 
1699	 0.359844612212709 
1700	 0.358885462421024 
1701	 0.358146550298874 
1702	 0.357517257886626 
1703	 0.356784913792066 
1704	 0.356023981953898 
1705	 0.355261986346181 
1706	 0.354457044474002 
1707	 0.3537168526322 
1708	 0.35311668528893 
1709	 0.352268765647949 
1710	 0.351190581531354 
1711	 0.350295557580159 
1712	 0.34933076118032 
1713	 0.348373434816275 
1714	 0.347601655340818 
1715	 0.346803478789624 
1716	 0.345896686704708 
1717	 0.345127305383795 
1718	 0.344571754094869 
1719	 0.343748442229619 
1720	 0.342794081697738 
1721	 0.341810348314806 
1722	 0.34059226469993 
1723	 0.339701460010536 
1724	 0.339124193904309 
1725	 0.338191654278658 
1726	 0.337023460348284 
1727	 0.336228234141964 
1728	 0.335381555102059 
1729	 0.334598272290202 
1730	 0.33441456376065 
1731	 0.333623597095933 
1732	 0.332389967765363 
1733	 0.33174303202641 
1734	 0.330976380696676 
1735	 0.330310631245613 
1736	 0.330254137870888 
1737	 0.329731383512585 
1738	 0.329000712535808 
1739	 0.32860058002708 
1740	 0.327919520419727 
1741	 0.327226413765783 
1742	 0.326657284357205 
1743	 0.32575840665138 
1744	 0.325003886003239 
1745	 0.324303205955961 
1746	 0.323349789210171 
1747	 0.322550485493357 
1748	 0.321180769198372 
1749	 0.31957607271763 
1750	 0.319062277046731 
1751	 0.318814906483191 
1752	 0.31838199017193 
1753	 0.318333488586277 
1754	 0.317477401788216 
1755	 0.315791273289112 
1756	 0.314691975091847 
1757	 0.313353958546062 
1758	 0.31220462130855 
1759	 0.311518247190413 
1760	 0.310438433145935 
1761	 0.308983487172541 
1762	 0.307979958297463 
1763	 0.307150295375006 
1764	 0.306118508549625 
1765	 0.30539865837594 
1766	 0.3045654817711 
1767	 0.303232138970125 
1768	 0.302511080004184 
1769	 0.302308216403469 
1770	 0.301545868275668 
1771	 0.300703439930249 
1772	 0.30013299725888 
1773	 0.299424861845564 
1774	 0.299609361692459 
1775	 0.298536804134435 
1776	 0.297963620501303 
1777	 0.297648940473398 
1778	 0.295966231916079 
1779	 0.29533758582601 
1780	 0.294533223180649 
1781	 0.293240052389877 
1782	 0.293352091662619 
1783	 0.293841951231687 
1784	 0.294322326249917 
1785	 0.293869679967261 
1786	 0.292214612075638 
1787	 0.290933920117706 
1788	 0.289727805010901 
1789	 0.288593588004952 
1790	 0.288074391438968 
1791	 0.287778438226997 
1792	 0.287125890996888 
1793	 0.286549478202758 
1794	 0.285978590462665 
1795	 0.284482568155967 
1796	 0.283321526210502 
1797	 0.282695220637879 
1798	 0.282724210959539 
1799	 0.283768861321281 
1800	 0.283202059161765 
1801	 0.280067142780374 
1802	 0.280988922094931 
1803	 0.280169711224276 
1804	 0.278140989386633 
1805	 0.276550310083408 
1806	 0.273721169728634 
1807	 0.2710639509721 
1808	 0.270165544850692 
1809	 0.26479619571715 
1810	 0.26366084307752 
1811	 0.264675839932154 
1812	 0.26265712259124 
1813	 0.260331130973778 
1814	 0.260008764701133 
1815	 0.257659623488212 
1816	 0.255831445101278 
1817	 0.259597820677355 
1818	 0.261029741904387 
1819	 0.2611176154514 
1820	 0.255678155565616 
1821	 0.255016013984171 
1822	 0.258222480003375 
1823	 0.257984223871017 
1824	 0.257750587356302 
1825	 0.255492635436214 
1826	 0.244331595201262 
1827	 0.239932122235447 
1828	 0.238107658412702 
1829	 0.240862432511858 
1830	 0.239376049618447 
1831	 0.24551879490864 
1832	 0.249607084524414 
1833	 0.249047788381582 
1834	 0.243705501694492 
1835	 0.227617050877848 
1836	 0.231235325795259 
1837	 0.24908305762637 
1838	 0.251453596876531 
1839	 0.256726823585036 
1840	 0.289668415403936 
1841	 0.311931044772786 
1842	 0.320069764828993 
1843	 0.306549874879735 
1844	 0.264519797175018 
1845	 0.275351492663301 
1846	 0.291198741679278 
1847	 0.299235916513247 
1848	 0.319338608083014 
1849	 0.411270674932727 
1850	 0.41570917975344 
1851	 0.352807391949983 
1852	 0.333960015950726 
1853	 0.339416554611753 
1854	 0.289016721371317 
1855	 0.194215820497239 
1856	 0.16721243984012 
1857	 0.141812724261329 
1858	 0.107587580715903 
1859	 0.12763193743304 
1860	 0.230563224931669 
1861	 0.23802298319325 
1862	 0.209452113832562 
1863	 0.217175230935549 
1864	 0.198301863063972 
1865	 0.206108554481709 
1866	 0.310472210684739 
1867	 0.335741054581541 
1868	 0.281633312012541 
1869	 0.252323724542716 
1870	 0.217404730962215 
1871	 0.119320640338692 
1872	 0.110485596301515 
1873	 0.153103356714847 
1874	 0.185828759749085 
1875	 0.276406729397205 
1876	 0.274970443302882 
1877	 0.237651854026593 
1878	 0.217525277005245 
1879	 0.178223089935818 
1880	 0.139378359671975 
1881	 0.137801753464086 
1882	 0.180863273884251 
1883	 0.181449160798197 
1884	 0.177999959704921 
1885	 0.173764267426887 
1886	 0.162305476931758 
1887	 0.132743083701846 
1888	 0.125481265286032 
1889	 0.140756731176713 
1890	 0.142864058901717 
1891	 0.153391520960119 
1892	 0.149997472623941 
1893	 0.125874528151526 
1894	 0.110185308668938 
1895	 8.52191183231032E-02 
1896	 8.27931867678295E-02 
1897	 9.93845595929768E-02 
1898	 0.135584898383329 
1899	 0.164105561197868 
1900	 0.137525926463168 
1901	 0.163361884371076 
1902	 0.192426078372012 
1903	 0.221631555701575 
1904	 0.341239234543513 
1905	 0.359516347248447 
1906	 0.299497548504464 
1907	 0.182158102535295 
1908	 0.158649150950271 
1909	 0.157629202639714 
1910	 0.16626571666839 
1911	 0.149418983837355 
1912	 0.137408091287317 
1913	 0.103620392123266 
1914	 9.54977635357888E-02 
1915	 0.113270817536871 
1916	 0.104333983677204 
1917	 8.10664285095812E-02 
1918	 7.53404739445297E-02 
1919	 7.16096870509487E-02 
1920	 6.38712990238336E-02 
1921	 7.03391167656805E-02 
1922	 0.054041900349526 
1923	 5.21062870258302E-02 
1924	 4.90433131030792E-02 
1925	 4.93602802888154E-02 
1926	 5.39599214202073E-02 
1927	 6.60571470544889E-02 
1928	 8.25330181177476E-02 
1929	 9.31543637353936E-02 
1930	 0.110551464208234 
1931	 0.113711323384589 
1932	 9.40728887359605E-02 
1933	 7.46608905062761E-02 
1934	 6.58506605574455E-02 
1935	 5.61002339853842E-02 
1936	 5.26104726729718E-02 
1937	 5.47899612835471E-02 
1938	 5.77846487566399E-02 
1939	 0.064680020623999 
1940	 6.45749452463498E-02 
1941	 6.33087285197479E-02 
1942	 7.10507230469348E-02 
1943	 6.90719643126501E-02 
1944	 6.74070584417386E-02 
1945	 7.10933014957827E-02 
1946	 6.66000784130561E-02 
1947	 6.63490349674467E-02 
1948	 6.88052266347501E-02 
1949	 6.87742530484314E-02 
1950	 6.67398236705379E-02 
1951	 6.94111036491082E-02 
1952	 7.10806229970397E-02 
1953	 6.83635436270669E-02 
1954	 6.92646196027405E-02 
1955	 6.97678399515185E-02 
1956	 6.89096175800112E-02 
1957	 7.07279383419517E-02 
1958	 7.16859350523772E-02 
1959	 7.34563902446598E-02 
1960	 7.31285555250786E-02 
1961	 7.19152330187612E-02 
1962	 7.08572251107045E-02 
1963	 6.88135268558692E-02 
1964	 7.05432440732163E-02 
1965	 7.28247901633948E-02 
1966	 7.40012853756301E-02 
1967	 7.63466909450301E-02 
1968	 0.076159265245095 
1969	 7.56649055376806E-02 
1970	 7.42847537425749E-02 
1971	 7.37900620334293E-02 
1972	 7.27265666461411E-02 
1973	 7.24018293188577E-02 
1974	 7.27760673085737E-02 
1975	 7.31230030735793E-02 
1976	 7.28979083255883E-02 
1977	 7.29981318897061E-02 
1978	 7.36371969776225E-02 
1979	 7.38150094990083E-02 
1980	 7.41638519332343E-02 
1981	 7.37912331403481E-02 
1982	 7.39686737730307E-02 
1983	 7.40843606447809E-02 
1984	 7.47176336494426E-02 
1985	 7.49088818569659E-02 
1986	 7.61987463522787E-02 
1987	 7.67352479274938E-02 
1988	 7.73833580349258E-02 
1989	 7.88485168766956E-02 
1990	 7.87124078096351E-02 
1991	 7.95485813118956E-02 
1992	 7.98611096271088E-02 
1993	 7.76621526344563E-02 
1994	 7.69353803732837E-02 
1995	 7.70694816316312E-02 
1996	 7.77604597476493E-02 
1997	 7.74440746117798E-02 
1998	 7.96427797740018E-02 
1999	 8.31875502351091E-02 
2000	 8.38487261975526E-02 
2001	 8.59563824390664E-02 
2002	 8.95331923265795E-02 
2003	 8.90505516190303E-02 
2004	 8.84994869698988E-02 
2005	 8.67740324290914E-02 
2006	 8.60496524885953E-02 
2007	 8.38729840115538E-02 
2008	 8.57159677279058E-02 
2009	 8.90537840963053E-02 
2010	 9.32872264061665E-02 
2011	 0.095081740516106 
2012	 9.56601913716576E-02 
2013	 9.49463316076724E-02 
2014	 9.18490843366371E-02 
2015	 9.25938849056786E-02 
2016	 9.30282973561702E-02 
2017	 9.09096289022703E-02 
2018	 9.02697880653499E-02 
2019	 9.03778192727543E-02 
2020	 8.99488165828414E-02 
2021	 0.090380685583123 
2022	 9.25629070577322E-02 
2023	 9.43302694396151E-02 
2024	 9.52595989418158E-02 
2025	 9.54546433717653E-02 
2026	 9.60509934264668E-02 
2027	 9.67694381869032E-02 
2028	 0.096770509660643 
2029	 9.73623015050955E-02 
2030	 9.84709314995574E-02 
2031	 9.96118576451837E-02 
2032	 0.100296979224943 
2033	 0.101532534854194 
2034	 0.101684924802692 
2035	 0.100287392669234 
2036	 9.96310883838009E-02 
2037	 0.100424762744548 
2038	 0.101625566456556 
2039	 0.102219158776527 
2040	 0.103031380736314 
2041	 0.104723177238133 
2042	 0.105123464061045 
2043	 0.106383284190127 
2044	 0.107887450922501 
2045	 0.108090980303606 
2046	 0.106106131331962 
2047	 0.105160685756143 
2048	 0.106129093105788 
2049	 0.107896727729022 
2050	 0.10969648810726 
2051	 0.111061788377641 
2052	 0.110800818622365 
2053	 0.109581547250737 
2054	 0.109475055508417 
2055	 0.109797878013564 
2056	 0.111145001024859 
2057	 0.11179288397672 
2058	 0.111030634234857 
2059	 0.111770055252607 
2060	 0.113224947426573 
2061	 0.114915764005727 
2062	 0.115782983526541 
2063	 0.11761190091994 
2064	 0.118732577164234 
2065	 0.117981836728913 
2066	 0.118505468652421 
2067	 0.119037637751725 
2068	 0.117838995571764 
2069	 0.117230577922144 
2070	 0.118231333071268 
2071	 0.119468971649393 
2072	 0.120177828512082 
2073	 0.121093019578995 
2074	 0.123162102349768 
2075	 0.124267651329995 
2076	 0.123814121967666 
2077	 0.124662834763181 
2078	 0.125160962161206 
2079	 0.123983376273306 
2080	 0.123717944467355 
2081	 0.125097890667933 
2082	 0.126011344029771 
2083	 0.125870524246191 
2084	 0.12619567696311 
2085	 0.127117724646646 
2086	 0.126863871066635 
2087	 0.127083254344467 
2088	 0.128101157126285 
2089	 0.129738944768736 
2090	 0.128979888309873 
2091	 0.129009723348583 
2092	 0.13094070788247 
2093	 0.131249902710998 
2094	 0.131853058878373 
2095	 0.134765979060298 
2096	 0.135244164547216 
2097	 0.134277523529193 
2098	 0.135326015585849 
2099	 0.135084779700407 
2100	 0.133385414715994 
2101	 0.133030306171782 
2102	 0.133891848719602 
2103	 0.135405430980514 
2104	 0.13661301650324 
2105	 0.138756743538598 
2106	 0.141504612758056 
2107	 0.141579183400603 
2108	 0.139613729212181 
2109	 0.138321414418698 
2110	 0.13778357384043 
2111	 0.137599224124539 
2112	 0.138025872554964 
2113	 0.139375842511402 
2114	 0.13993471918455 
2115	 0.140470385500091 
2116	 0.142055909290793 
2117	 0.142844240312196 
2118	 0.14317362094306 
2119	 0.143539948423778 
2120	 0.143649979223866 
2121	 0.143458858517961 
2122	 0.144123413641401 
2123	 0.144896228428302 
2124	 0.145749545536943 
2125	 0.146986146726849 
2126	 0.146427913407779 
2127	 0.145498172533398 
2128	 0.144905776449117 
2129	 0.143666962440992 
2130	 0.14398488565383 
2131	 0.144612450778684 
2132	 0.145071928792203 
2133	 0.145916089574755 
2134	 0.146330109529613 
2135	 0.146229913714609 
2136	 0.146553944090847 
2137	 0.146806898836426 
2138	 0.147779221632108 
2139	 0.147736988891263 
2140	 0.146458273622909 
2141	 0.147531041355503 
2142	 0.147399522870707 
2143	 0.147483806456424 
2144	 0.150292123940458 
2145	 0.151572675745738 
2146	 0.151916023895466 
2147	 0.153207562688371 
2148	 0.152640842609255 
2149	 0.150207375253292 
2150	 0.149990416687361 
2151	 0.150331762119782 
2152	 0.151327402139922 
2153	 0.152519832237933 
2154	 0.155473487669118 
2155	 0.15628346124519 
2156	 0.157339911375582 
2157	 0.156847731764004 
2158	 0.156844008607426 
2159	 0.158372015167523 
2160	 0.15744565655709 
2161	 0.156533144841019 
2162	 0.156574468784401 
2163	 0.157522504253012 
2164	 0.159861382079579 
2165	 0.161615064516954 
2166	 0.163080544188614 
2167	 0.16452047381226 
2168	 0.164918874981795 
2169	 0.163836697684375 
2170	 0.164474740946547 
2171	 0.166133506516166 
2172	 0.165032121654621 
2173	 0.165028827324982 
2174	 0.165784613431348 
2175	 0.165417418325479 
2176	 0.165319957668292 
2177	 0.165924577358163 
2178	 0.166022366484369 
2179	 0.16628208175406 
2180	 0.167934392202822 
2181	 0.168991423767196 
2182	 0.168623772212917 
2183	 0.167433074520451 
2184	 0.166725100770121 
2185	 0.166780638660435 
2186	 0.166879827368099 
2187	 0.167544585517586 
2188	 0.169735708023814 
2189	 0.170232961467787 
2190	 0.169685173414818 
2191	 0.170819343090513 
2192	 0.170027867009883 
2193	 0.170086823252063 
2194	 0.171618323053131 
2195	 0.172180091264742 
2196	 0.173453280807776 
2197	 0.173195359457043 
2198	 0.172319479312687 
2199	 0.172954888696407 
2200	 0.173703258697857 
2201	 0.174857842352219 
2202	 0.176325411881191 
2203	 0.174823332277212 
2204	 0.173457500111258 
2205	 0.174536524802994 
2206	 0.173878874454462 
2207	 0.173261168398482 
2208	 0.173667308807217 
2209	 0.174343031461793 
2210	 0.174744274956946 
2211	 0.175834629485407 
2212	 0.176866572287278 
2213	 0.177451526105385 
2214	 0.178494027169005 
2215	 0.177461968205725 
2216	 0.178031909244236 
2217	 0.177898018560367 
2218	 0.175277828724937 
2219	 0.174998617710963 
2220	 0.174151270035386 
2221	 0.173141540345207 
2222	 0.173534098023298 
2223	 0.173271649217711 
2224	 0.173388789392602 
2225	 0.174155090667189 
2226	 0.173922237738527 
2227	 0.172439515570987 
2228	 0.172134947117066 
2229	 0.172053924670339 
2230	 0.172664724915843 
2231	 0.173131074597984 
2232	 0.174312625922161 
2233	 0.174218434886151 
2234	 0.173323643202652 
2235	 0.173010653337589 
2236	 0.172321932589337 
2237	 0.173142816121979 
2238	 0.173617527223016 
2239	 0.172696793673255 
2240	 0.172353911583097 
2241	 0.17241223670912 
2242	 0.173438122721862 
2243	 0.17393914552151 
2244	 0.173179040433298 
2245	 0.172359072370048 
2246	 0.16942308814232 
2247	 0.165822615355381 
2248	 0.163778209780661 
2249	 0.162971521293221 
2250	 0.163292833357484 
2251	 0.165306669173494 
2252	 0.166744651894375 
2253	 0.166583460628233 
2254	 0.167569925097968 
2255	 0.168198061935729 
2256	 0.167067605660437 
2257	 0.165372373107113 
2258	 0.162128037697007 
2259	 0.156128433310958 
2260	 0.151752235033413 
2261	 0.149840654696214 
2262	 0.152038698267908 
2263	 0.156878373881916 
2264	 0.158766589526803 
2265	 0.160520390441813 
2266	 0.159499584088091 
2267	 0.157269455751495 
2268	 0.158673598346967 
2269	 0.158860207022488 
2270	 0.159398779869885 
2271	 0.159079360205216 
2272	 0.155831413451167 
2273	 0.155081950133592 
2274	 0.154413825775692 
2275	 0.154172571345868 
2276	 0.157877455320754 
2277	 0.158020182780235 
2278	 0.155916222798155 
2279	 0.156134026863177 
2280	 0.154353001469935 
2281	 0.152065479831185 
2282	 0.150945389556955 
2283	 0.151115185486726 
2284	 0.151109110344783 
2285	 0.149795409323204 
2286	 0.14870206658142 
2287	 0.147855840344864 
2288	 0.146676090508533 
2289	 0.144002207908232 
2290	 0.142458761305153 
2291	 0.145001456241992 
2292	 0.143307558765336 
2293	 0.142394810963159 
2294	 0.144965164509326 
2295	 0.140388609526804 
2296	 0.137035852847106 
2297	 0.137166107311807 
2298	 0.135093431209913 
2299	 0.136914531088119 
2300	 0.138974532642853 
2301	 0.138147814732808 
2302	 0.138143211253372 
2303	 0.139684027712043 
2304	 0.142198399843044 
2305	 0.141009219870957 
2306	 0.140233809560045 
2307	 0.138431323061064 
2308	 0.136027554994505 
2309	 0.138518587840649 
2310	 0.139225337025039 
2311	 0.138185723846207 
2312	 0.135916373213932 
2313	 0.134876185778671 
2314	 0.135683436500217 
2315	 0.133386230116557 
2316	 0.134460693812988 
2317	 0.135637342621405 
2318	 0.133296928567581 
2319	 0.135661269393697 
2320	 0.135806165905748 
2321	 0.134992540234954 
2322	 0.133044257043765 
2323	 0.132456768971433 
2324	 0.131038473500899 
2325	 0.130572527925983 
2326	 0.131753393549908 
2327	 0.129758035510199 
2328	 0.129791480394495 
2329	 0.131026751072182 
2330	 0.128506728311957 
2331	 0.130599403559033 
2332	 0.130353887045519 
2333	 0.126518032503796 
2334	 0.128763679434178 
2335	 0.127762688693744 
2336	 0.126547234656954 
2337	 0.129098021274876 
2338	 0.130470779397742 
2339	 0.129615121783921 
2340	 0.125718228194686 
2341	 0.122606126074265 
2342	 0.119803157562896 
2343	 0.117700031889189 
2344	 0.11517787046482 
2345	 0.113240706329995 
2346	 0.111624965380987 
2347	 0.107772139624104 
2348	 0.109978367774757 
2349	 0.111281178486126 
2350	 0.113171137028657 
2351	 0.118888403301975 
2352	 0.118596970742414 
2353	 0.121622954396589 
2354	 0.121045420652279 
2355	 0.114982619407477 
2356	 0.116408684831686 
2357	 0.11780538300092 
2358	 0.117079498744744 
2359	 0.116394531589839 
2360	 0.113357098713779 
2361	 0.109069090579405 
2362	 0.107498104751968 
2363	 0.109170563901294 
2364	 0.112394738441261 
2365	 0.116411665041292 
2366	 0.120524431173921 
2367	 0.124219396084045 
2368	 0.123366442777097 
2369	 0.122112825985693 
2370	 0.122550080443172 
2371	 0.119311371779574 
2372	 0.11068731990239 
2373	 9.34135226986195E-02 
2374	 8.74303541805045E-02 
2375	 8.16279930038134E-02 
2376	 8.17405390422029E-02 
2377	 9.33742015515013E-02 
2378	 9.81801317622619E-02 
2379	 0.100493608753037 
2380	 9.96102988665657E-02 
2381	 0.101455348596773 
2382	 9.93577882612681E-02 
2383	 8.96494868324197E-02 
2384	 8.58465723074758E-02 
2385	 8.29203804222219E-02 
2386	 7.94653659517213E-02 
2387	 7.52237929192518E-02 
2388	 7.42199353454848E-02 
2389	 7.26216159884465E-02 
2390	 7.60463122534313E-02 
2391	 8.78616616900745E-02 
2392	 9.47735582781848E-02 
2393	 0.103410680506523 
2394	 0.105478727329336 
2395	 0.104222369745717 
2396	 0.103624000386384 
2397	 9.76480113924076E-02 
2398	 9.47771500099133E-02 
2399	 9.62748454033354E-02 
2400	 9.11924831537582E-02 
2401	 8.32776093605306E-02 
2402	 7.07223870995099E-02 
2403	 6.76671008209289E-02 
2404	 6.46507911908918E-02 
2405	 7.31628419140284E-02 
2406	 9.62080781361123E-02 
2407	 0.100773567613785 
2408	 0.106214409921605 
2409	 0.114660583116921 
2410	 0.107153785431707 
2411	 0.110088460309255 
2412	 0.110056739155506 
2413	 9.03051675789518E-02 
2414	 8.12086333809527E-02 
2415	 7.62913354310982E-02 
2416	 6.01703726077097E-02 
2417	 6.93230565649397E-02 
2418	 8.52519870156315E-02 
2419	 9.20796350816523E-02 
2420	 0.103169114801814 
2421	 0.096062352143626 
2422	 8.53948036743001E-02 
2423	 8.33381914515479E-02 
2424	 8.72286329556706E-02 
2425	 9.56357336817799E-02 
2426	 9.86151447240946E-02 
2427	 9.39640339462391E-02 
2428	 9.22664371181168E-02 
2429	 9.74702151021716E-02 
2430	 9.93560568727261E-02 
2431	 0.105070748575466 
2432	 0.101573626803649 
2433	 8.08925288497156E-02 
2434	 6.66372875814887E-02 
2435	 4.35331647690309E-02 
2436	 3.15329294178949E-02 
2437	 2.28567084843182E-02 
2438	 0.02272159821825 
2439	 2.76445510305049E-02 
2440	 4.26184253809276E-02 
2441	 0.094592619107366 
2442	 0.116993632203596 
2443	 0.139655322067323 
2444	 0.145453571583955 
2445	 0.087760854647836 
2446	 6.91801791487264E-02 
2447	 6.65260917817513E-02 
2448	 7.17868943047318E-02 
2449	 0.13947475948627 
2450	 0.142742204704471 
2451	 8.51596352379244E-02 
2452	 6.59095201056804E-02 
2453	 8.62216008824347E-03 
2454	 9.48365796479208E-03 
2455	 9.33284912520509E-02 
2456	 0.121484435335967 
2457	 0.155501936390841 
2458	 0.148451266580844 
2459	 7.86919817370278E-02 
2460	 6.04207005471755E-02 
2461	 3.31819272959156E-02 
2462	 2.61804709592574E-02 
2463	 6.98683538277826E-02 
2464	 8.08820233844482E-02 
2465	 8.51105666207303E-02 
2466	 9.76209306717995E-02 
2467	 0.106227942959903 
2468	 0.115959938909353 
2469	 0.142359664739177 
2470	 0.136588879195678 
2471	 0.100800182666772 
2472	 6.33221414824992E-02 
2473	-3.44526669586215E-02 
2474	-3.55989840279392E-02 
2475	 4.40858375852779E-02 
2476	 7.92044194991972E-02 
2477	 0.205376983107795 
2478	 0.219520469232956 
2479	 5.73684249405567E-02 
2480	 3.47441167609179E-02 
2481	 6.36096708600216E-02 
2482	 6.35949466224214E-02 
2483	 0.132587620053622 
2484	 0.139463218730946 
2485	 2.97730394000837E-02 
2486	 0.175380174005242 
2487	 0.172702789748317 
2488	 0.156867508725433 
2489	 0.17746464295571 
2490	 0.166995967655449 
2491	 0.183542929551446 
2492	 0.157578658451358 
2493	 0.157893405559123 
2494	 0.141855350724584 
2495	 1.14752059769772E-02 
2496	-1.23709104311385E-02 
2497	-7.06866836780849E-02 
2498	-0.257095839205144 
2499	-0.2795365654108 
2500	-0.12873602312851 
