Wavelength	ref00119.asd
350	 0.545115436927164 
351	 0.549224024083896 
352	 0.558806890471868 
353	 0.541756409375049 
354	 0.533442894180857 
355	 0.541340382478693 
356	 0.554842602062844 
357	 0.533815167384256 
358	 0.552262510878394 
359	 0.563460546953241 
360	 0.522312418659928 
361	 0.553752256925293 
362	 0.564159713575885 
363	 0.545592117230986 
364	 0.545912081080216 
365	 0.529647928823125 
366	 0.516800198166655 
367	 0.51877172043923 
368	 0.527470788669196 
369	 0.524825338336549 
370	 0.517167057537793 
371	 0.513300127256042 
372	 0.511599892246364 
373	 0.49972425103397 
374	 0.491086296025899 
375	 0.504919712859332 
376	 0.504282876338769 
377	 0.495698757256339 
378	 0.487738778814656 
379	 0.48566345936375 
380	 0.477319329182408 
381	 0.474916599472125 
382	 0.483214673411153 
383	 0.474209571491531 
384	 0.475139665038409 
385	 0.481170775275129 
386	 0.476189498759489 
387	 0.469762840913994 
388	 0.45783197889113 
389	 0.446967119637713 
390	 0.452306667663144 
391	 0.457925020755833 
392	 0.45703148958485 
393	 0.451265249058409 
394	 0.45606565080166 
395	 0.45534106306079 
396	 0.451007666765747 
397	 0.448576812805646 
398	 0.439218383021986 
399	 0.433628320345886 
400	 0.430202718531095 
401	 0.419073758472713 
402	 0.420479648057636 
403	 0.425520241713783 
404	 0.42603699417714 
405	 0.423010298696587 
406	 0.42353123168258 
407	 0.424955720917186 
408	 0.422598465615368 
409	 0.419955731886537 
410	 0.414677301645555 
411	 0.409657433595319 
412	 0.411255670999635 
413	 0.408444607971144 
414	 0.403768676538153 
415	 0.401052107461781 
416	 0.402551612534031 
417	 0.402343136108565 
418	 0.400594975986816 
419	 0.39981638397871 
420	 0.40318807535919 
421	 0.40285869143706 
422	 0.398552695537375 
423	 0.396630505530935 
424	 0.396798236231105 
425	 0.397502480440731 
426	 0.397267472689534 
427	 0.394992902137766 
428	 0.396341723580505 
429	 0.397253670831541 
430	 0.392741131157132 
431	 0.391048842669433 
432	 0.390128394391014 
433	 0.388044490692199 
434	 0.383819556155633 
435	 0.382631379809408 
436	 0.382435653933344 
437	 0.381343844720814 
438	 0.380173801734127 
439	 0.379488925865877 
440	 0.378435579595495 
441	 0.37630836188652 
442	 0.375763732987308 
443	 0.375346855561665 
444	 0.374653660322193 
445	 0.374397784534396 
446	 0.373246899473881 
447	 0.37196733826847 
448	 0.371431036556712 
449	 0.372088204203685 
450	 0.371913891364603 
451	 0.370600198354272 
452	 0.368972780241593 
453	 0.369902702748848 
454	 0.369517696080384 
455	 0.367390403243671 
456	 0.367496846932594 
457	 0.365709358734071 
458	 0.363844070929297 
459	 0.363461190741281 
460	 0.361322067503499 
461	 0.360743727617749 
462	 0.361039555501506 
463	 0.359585629702527 
464	 0.357025457809401 
465	 0.355881465181014 
466	 0.356590303977511 
467	 0.356368876436925 
468	 0.354092484495247 
469	 0.352022263562898 
470	 0.352029925914154 
471	 0.350620897277159 
472	 0.348834337514465 
473	 0.347496581018242 
474	 0.3470699981747 
475	 0.346318847785099 
476	 0.345656331084101 
477	 0.345172537445952 
478	 0.343865581434876 
479	 0.343340509396853 
480	 0.343209607315298 
481	 0.342580240322453 
482	 0.341595997415132 
483	 0.341307185894619 
484	 0.341928673564182 
485	 0.342733495256475 
486	 0.342241160550672 
487	 0.341500731025653 
488	 0.341302047596226 
489	 0.340310428994782 
490	 0.339612897212786 
491	 0.340076124625612 
492	 0.342014278133884 
493	 0.343269920384739 
494	 0.343405855068859 
495	 0.343297745265794 
496	 0.345135113473904 
497	 0.347261511020971 
498	 0.349431414216609 
499	 0.352059836101657 
500	 0.356779279710918 
501	 0.361195249791721 
502	 0.36456942173843 
503	 0.367530017555774 
504	 0.372067806824995 
505	 0.376555093826512 
506	 0.380855364467863 
507	 0.387988355383541 
508	 0.395382547537396 
509	 0.402767119315819 
510	 0.410852005511799 
511	 0.421297209423965 
512	 0.431808773387371 
513	 0.441880778250519 
514	 0.452788321656179 
515	 0.464993481657785 
516	 0.479835692593848 
517	 0.49704701489861 
518	 0.512643886736071 
519	 0.527510803271582 
520	 0.542252608626405 
521	 0.557328790815465 
522	 0.571385279556721 
523	 0.587150122640945 
524	 0.60461086018925 
525	 0.620264404852605 
526	 0.635143956333425 
527	 0.649923098092661 
528	 0.664494650364175 
529	 0.676316125115247 
530	 0.686972442794854 
531	 0.697524974346814 
532	 0.708478847734019 
533	 0.717348033318847 
534	 0.725958770285873 
535	 0.734373215276614 
536	 0.738960559012821 
537	 0.743598881106654 
538	 0.748794539153556 
539	 0.75390543880966 
540	 0.757972229007177 
541	 0.761739113184582 
542	 0.765058558791554 
543	 0.767137343752387 
544	 0.770226668538444 
545	 0.773316430013675 
546	 0.775640421915662 
547	 0.778241309992549 
548	 0.780607892160109 
549	 0.782755829840777 
550	 0.784582151802723 
551	 0.783990859320049 
552	 0.78265945272154 
553	 0.781584129298424 
554	 0.780601532487441 
555	 0.776038266157732 
556	 0.770378484988453 
557	 0.765861527068474 
558	 0.758798871285687 
559	 0.750921688389123 
560	 0.743176786851611 
561	 0.735739982648415 
562	 0.727409599231763 
563	 0.717647288057594 
564	 0.707083821489057 
565	 0.698299141379627 
566	 0.688084381595287 
567	 0.676418900807578 
568	 0.664441631639949 
569	 0.653258080631663 
570	 0.641550631154413 
571	 0.629427741127814 
572	 0.618280934517819 
573	 0.606918664637277 
574	 0.596151519944661 
575	 0.586549177212914 
576	 0.577458994457615 
577	 0.568407700646444 
578	 0.559953616581703 
579	 0.552920618561402 
580	 0.546421269180886 
581	 0.539448054990825 
582	 0.532597745294934 
583	 0.528518823963308 
584	 0.522834471050369 
585	 0.516916828630914 
586	 0.512686026936515 
587	 0.508002527847718 
588	 0.503800677675251 
589	 0.500064273433266 
590	 0.496118611155709 
591	 0.491531419859096 
592	 0.488208552073355 
593	 0.486525610128533 
594	 0.483858814950142 
595	 0.482232129169304 
596	 0.480640902284417 
597	 0.47766361127946 
598	 0.475065745530006 
599	 0.471959688516526 
600	 0.468747226462968 
601	 0.467067339061257 
602	 0.4640323393299 
603	 0.460363464340423 
604	 0.457128123230512 
605	 0.454366099135937 
606	 0.450870840261803 
607	 0.446658985111246 
608	 0.442406865918755 
609	 0.438492563636447 
610	 0.434561305436239 
611	 0.430478202767791 
612	 0.426493343826354 
613	 0.423089824864995 
614	 0.419424290028351 
615	 0.414983682177491 
616	 0.411872424922713 
617	 0.408084622836407 
618	 0.403762386634384 
619	 0.400452395213757 
620	 0.39782726705113 
621	 0.395340634356443 
622	 0.392842613086628 
623	 0.391063161378427 
624	 0.388908358642208 
625	 0.386971189906355 
626	 0.386104901408746 
627	 0.385224259920152 
628	 0.384358508160187 
629	 0.383426556516949 
630	 0.382237588581652 
631	 0.381418547597992 
632	 0.380182620077583 
633	 0.378075865737371 
634	 0.37613929864892 
635	 0.373924498319089 
636	 0.37125395443127 
637	 0.368095619990883 
638	 0.364463766426207 
639	 0.360859746244852 
640	 0.357349266946422 
641	 0.353501976325801 
642	 0.348575885227962 
643	 0.343788915651931 
644	 0.340061527674813 
645	 0.33586470869534 
646	 0.331724919968372 
647	 0.328001247030941 
648	 0.324899062809923 
649	 0.322019044210293 
650	 0.319600277730711 
651	 0.31758633615845 
652	 0.315193994451398 
653	 0.31376894628922 
654	 0.312378655833383 
655	 0.310068912410841 
656	 0.309299096355196 
657	 0.30741398995511 
658	 0.304396428168439 
659	 0.301980251700795 
660	 0.300089910624464 
661	 0.297613190421653 
662	 0.294426461187732 
663	 0.292446237314484 
664	 0.29012599381223 
665	 0.287509868164054 
666	 0.285144279178663 
667	 0.283183896944345 
668	 0.281849769952588 
669	 0.281054635675086 
670	 0.280416740865215 
671	 0.279844094674271 
672	 0.279577645289987 
673	 0.279676078719865 
674	 0.279526787386581 
675	 0.28035874980413 
676	 0.281305779321536 
677	 0.281117142856173 
678	 0.281365057822351 
679	 0.282420050286767 
680	 0.284172078807606 
681	 0.286097909946377 
682	 0.28823569822114 
683	 0.291120663816414 
684	 0.295050810830758 
685	 0.299352658978618 
686	 0.305832736575014 
687	 0.314646133302631 
688	 0.324081406027557 
689	 0.332688534769384 
690	 0.343093889908909 
691	 0.356497566707122 
692	 0.371715496485399 
693	 0.389997054871577 
694	 0.41116292857814 
695	 0.435047471588356 
696	 0.462657379362774 
697	 0.492176170556752 
698	 0.523313986654082 
699	 0.556261169509238 
700	 0.591350646152931 
701	 0.626766054698133 
702	 0.662186270967959 
703	 0.699242426355448 
704	 0.735316311112784 
705	 0.770413601328987 
706	 0.805399452131139 
707	 0.840752518219366 
708	 0.876877704106615 
709	 0.912692367796607 
710	 0.946738477848053 
711	 0.982572136401176 
712	 1.01766679383346 
713	 1.05147471973291 
714	 1.08629655037782 
715	 1.12012080649017 
716	 1.15248508674042 
717	 1.18449065022334 
718	 1.217119373297 
719	 1.25187124892397 
720	 1.28706501001621 
721	 1.32018579491881 
722	 1.35242389556465 
723	 1.38231402064606 
724	 1.41108992504 
725	 1.43969421551549 
726	 1.46797225700997 
727	 1.49470126932467 
728	 1.51997752237441 
729	 1.54534471602075 
730	 1.56937984441326 
731	 1.59226634562193 
732	 1.61468100419206 
733	 1.63543559686598 
734	 1.65379481437778 
735	 1.67039659621357 
736	 1.68656117430502 
737	 1.70165818959745 
738	 1.71510192912678 
739	 1.72706365375719 
740	 1.73866505643805 
741	 1.74943174248155 
742	 1.75907435968245 
743	 1.76732861130985 
744	 1.77422449062883 
745	 1.78022048748263 
746	 1.78575122971269 
747	 1.79105641367818 
748	 1.79481980795111 
749	 1.79757249634025 
750	 1.79997203628334 
751	 1.80245395489808 
752	 1.8036904791577 
753	 1.80454988802722 
754	 1.80572788565798 
755	 1.80488099242248 
756	 1.80486584032765 
757	 1.80594040700565 
758	 1.80696932709174 
759	 1.8098812593512 
760	 1.80995090767062 
761	 1.80484922008584 
762	 1.8043839623922 
763	 1.80172337141708 
764	 1.79733181454948 
765	 1.79326647294435 
766	 1.79173308335979 
767	 1.78863753061832 
768	 1.78492260091989 
769	 1.78237096725569 
770	 1.77983312329324 
771	 1.77680778343055 
772	 1.77374714178852 
773	 1.77163305572418 
774	 1.76806865749235 
775	 1.76497573146239 
776	 1.76309907447731 
777	 1.76015711032616 
778	 1.75655987977618 
779	 1.75360883294503 
780	 1.75195033333994 
781	 1.74894887663217 
782	 1.74637153735089 
783	 1.74413767804085 
784	 1.74122428564703 
785	 1.73757125202617 
786	 1.73427532231085 
787	 1.73148183335673 
788	 1.7282685531947 
789	 1.7245418023198 
790	 1.72157430405406 
791	 1.71963541825411 
792	 1.71641602287533 
793	 1.71354112192361 
794	 1.71111821864506 
795	 1.70859256795691 
796	 1.70465774153521 
797	 1.70207179254344 
798	 1.70032978971497 
799	 1.6972770864071 
800	 1.69437474062471 
801	 1.69152808248322 
802	 1.68883708991417 
803	 1.68667648748373 
804	 1.68459118588742 
805	 1.68230116263115 
806	 1.67976926723375 
807	 1.6773446048378 
808	 1.67450816291368 
809	 1.67168709774191 
810	 1.66909398174627 
811	 1.66492020520901 
812	 1.6606839664803 
813	 1.65634741646018 
814	 1.65120406551249 
815	 1.64668925990486 
816	 1.64315122591822 
817	 1.64026244574523 
818	 1.63724590106953 
819	 1.63670993227749 
820	 1.63735813609388 
821	 1.63693698790935 
822	 1.63275851156264 
823	 1.62942657740767 
824	 1.62834363967182 
825	 1.62879182746835 
826	 1.62715472066082 
827	 1.62491634106291 
828	 1.62279973006289 
829	 1.62099482688269 
830	 1.61789418998373 
831	 1.61622118285565 
832	 1.61561443726629 
833	 1.61363896151164 
834	 1.61213757757731 
835	 1.61107342692274 
836	 1.61028416220628 
837	 1.60966864477935 
838	 1.60814643451072 
839	 1.60641720962648 
840	 1.60485425352666 
841	 1.60240305993449 
842	 1.6010575036358 
843	 1.59986501905881 
844	 1.59784251242001 
845	 1.5968782775884 
846	 1.59593356897407 
847	 1.59441763237894 
848	 1.59215811243202 
849	 1.59001658083893 
850	 1.58708005754611 
851	 1.58428568481388 
852	 1.583540783867 
853	 1.58283461455707 
854	 1.58014293478989 
855	 1.57644135142633 
856	 1.57565962871986 
857	 1.57581299984712 
858	 1.57433641531597 
859	 1.57119807855237 
860	 1.57027151193708 
861	 1.56812194686698 
862	 1.56601723711998 
863	 1.56519219420484 
864	 1.56404203571603 
865	 1.56118598359581 
866	 1.55873920483696 
867	 1.55855641243315 
868	 1.55632307133947 
869	 1.55490102561261 
870	 1.55412144694681 
871	 1.55243320399466 
872	 1.54926361996503 
873	 1.54793615540117 
874	 1.54725982062591 
875	 1.54364314648594 
876	 1.54194343041475 
877	 1.54082294552702 
878	 1.53898961658104 
879	 1.53607688853688 
880	 1.53424279918716 
881	 1.53258474397611 
882	 1.53074614288271 
883	 1.52965084188978 
884	 1.52774776848061 
885	 1.52579893503124 
886	 1.5244468679237 
887	 1.52326343885709 
888	 1.52159782240593 
889	 1.51974445075442 
890	 1.5177113564377 
891	 1.51405421145997 
892	 1.51111893417792 
893	 1.50808094399864 
894	 1.50366516461927 
895	 1.49869859698422 
896	 1.49639771781549 
897	 1.494263424365 
898	 1.48918220765736 
899	 1.4876100115915 
900	 1.48625984592465 
901	 1.48475785421659 
902	 1.48451789750083 
903	 1.48726003776767 
904	 1.48620718735272 
905	 1.48205014049433 
906	 1.4798056670445 
907	 1.4782111036386 
908	 1.473074399774 
909	 1.46733326329455 
910	 1.46828913285632 
911	 1.46687156272124 
912	 1.46560869628251 
913	 1.46418609110626 
914	 1.45943468240136 
915	 1.45903905514633 
916	 1.4570899707574 
917	 1.454172114893 
918	 1.45854853772685 
919	 1.45860245060517 
920	 1.45715521238978 
921	 1.45596483706276 
922	 1.45283542565513 
923	 1.45199102847458 
924	 1.45050764230838 
925	 1.44725175777772 
926	 1.44555015926939 
927	 1.43837353650438 
928	 1.43218259103393 
929	 1.42944808051759 
930	 1.41953441836642 
931	 1.40948204708582 
932	 1.40074491973212 
933	 1.39321977944096 
934	 1.38589257336803 
935	 1.38794458112543 
936	 1.39010203948914 
937	 1.38716371074447 
938	 1.39098735048671 
939	 1.39345215349238 
940	 1.39511429591631 
941	 1.39651329723427 
942	 1.39444503717416 
943	 1.38980680955205 
944	 1.38581046863591 
945	 1.38349331010214 
946	 1.37805630062574 
947	 1.37521860138394 
948	 1.37421963318176 
949	 1.37350290438304 
950	 1.37360302363019 
951	 1.37491411431723 
952	 1.37221502165922 
953	 1.36543720182048 
954	 1.36684961349442 
955	 1.36551006293671 
956	 1.36505301767059 
957	 1.36712367641628 
958	 1.362814107232 
959	 1.36100087061323 
960	 1.36416230723845 
961	 1.36856720172982 
962	 1.36342241854116 
963	 1.36710121358672 
964	 1.36800938710411 
965	 1.36170272583904 
966	 1.36577514846364 
967	 1.37005683004321 
968	 1.37119245214103 
969	 1.3694908286188 
970	 1.36851891687967 
971	 1.36995746168738 
972	 1.36991360595709 
973	 1.3662016723039 
974	 1.3610904322579 
975	 1.36005240555831 
976	 1.35840362068259 
977	 1.35681689409795 
978	 1.36344612944125 
979	 1.36085825879675 
980	 1.3592088432498 
981	 1.36244226436793 
982	 1.36293489643773 
983	 1.35714749081659 
984	 1.35680780626723 
985	 1.36105418201102 
986	 1.35828986726914 
987	 1.36314392769425 
988	 1.3604892591959 
989	 1.35393704028975 
990	 1.35864450809696 
991	 1.35276847565877 
992	 1.35304693464782 
993	 1.36186829649174 
994	 1.36924010872158 
995	 1.3649796457973 
996	 1.35767211421946 
997	 1.35523765654983 
998	 1.35973578242268 
999	 1.35689298183983 
1000	 1.35252643273046 
1001	 1.35858829511833 
1002	 1.35857089926504 
1003	 1.35819670729288 
1004	 1.35753918147674 
1005	 1.35712658490247 
1006	 1.35678703297359 
1007	 1.35650779132404 
1008	 1.35638204922465 
1009	 1.35595050879203 
1010	 1.35572530363846 
1011	 1.35490021266127 
1012	 1.35329524151156 
1013	 1.35279957849171 
1014	 1.35225540787737 
1015	 1.35158048911738 
1016	 1.35136343821933 
1017	 1.3507319211805 
1018	 1.35040492980741 
1019	 1.3502474673973 
1020	 1.34998699883057 
1021	 1.34988029775374 
1022	 1.34959689042378 
1023	 1.34919497124871 
1024	 1.34848827554102 
1025	 1.3480852955007 
1026	 1.34816487507624 
1027	 1.34824300018105 
1028	 1.34864974006178 
1029	 1.34870228258644 
1030	 1.34833140250606 
1031	 1.34814876831998 
1032	 1.34775487880712 
1033	 1.34739222945108 
1034	 1.34715591291921 
1035	 1.34683934197881 
1036	 1.34620174733297 
1037	 1.34574764671222 
1038	 1.34545477985165 
1039	 1.34516067276365 
1040	 1.34428118903079 
1041	 1.34396225192768 
1042	 1.34365959014961 
1043	 1.34337715667281 
1044	 1.34315961693032 
1045	 1.34258775960348 
1046	 1.3413899976717 
1047	 1.34000207336582 
1048	 1.33908226371478 
1049	 1.33855318641337 
1050	 1.3380375078906 
1051	 1.33801574067016 
1052	 1.3373756192943 
1053	 1.33633662629108 
1054	 1.33541522308823 
1055	 1.33458457966646 
1056	 1.33388738580049 
1057	 1.33283611817438 
1058	 1.33221554088397 
1059	 1.3314576889654 
1060	 1.32993696405097 
1061	 1.32894985425697 
1062	 1.32767567980149 
1063	 1.32626398701935 
1064	 1.32568379136232 
1065	 1.32454757083501 
1066	 1.3234370258418 
1067	 1.32209421276206 
1068	 1.32068615280671 
1069	 1.31852494969775 
1070	 1.31714756823863 
1071	 1.31632004073901 
1072	 1.31502798573793 
1073	 1.31428096255549 
1074	 1.31324798355384 
1075	 1.31167810040188 
1076	 1.30987866171358 
1077	 1.30822656376188 
1078	 1.30714382561663 
1079	 1.30639066190212 
1080	 1.30590828645257 
1081	 1.30466729877133 
1082	 1.30305861336536 
1083	 1.30090687319539 
1084	 1.29896891357068 
1085	 1.29772230276006 
1086	 1.29669948297847 
1087	 1.29543696598319 
1088	 1.29448838411357 
1089	 1.29229749241497 
1090	 1.29011907105981 
1091	 1.28934301893057 
1092	 1.28809650959681 
1093	 1.28683331945296 
1094	 1.28580308836975 
1095	 1.28441908380241 
1096	 1.28292553844715 
1097	 1.28131546224611 
1098	 1.27953203657194 
1099	 1.27757347726985 
1100	 1.2754319878685 
1101	 1.27338020729336 
1102	 1.27150776731093 
1103	 1.27033391193903 
1104	 1.26912443095724 
1105	 1.26787524243669 
1106	 1.26680239174091 
1107	 1.26512681511525 
1108	 1.26321880391157 
1109	 1.26109881379731 
1110	 1.25806957370962 
1111	 1.25502443987134 
1112	 1.25133979483398 
1113	 1.24793015057531 
1114	 1.24454692844057 
1115	 1.24075862657172 
1116	 1.2368234245447 
1117	 1.23222878236401 
1118	 1.22757471104619 
1119	 1.2218500038329 
1120	 1.21634866352938 
1121	 1.21190908758947 
1122	 1.20794397857808 
1123	 1.20523905140859 
1124	 1.20277449685682 
1125	 1.20087855982811 
1126	 1.19981401495116 
1127	 1.19959406832952 
1128	 1.19882791071565 
1129	 1.19885212732682 
1130	 1.19849503608582 
1131	 1.19762931178361 
1132	 1.19718482563996 
1133	 1.1970116772848 
1134	 1.19714034010861 
1135	 1.1970968851248 
1136	 1.1961267077846 
1137	 1.19522780740769 
1138	 1.19360894791641 
1139	 1.19147029134663 
1140	 1.18945997258266 
1141	 1.18672941493839 
1142	 1.18453484688658 
1143	 1.18224663823415 
1144	 1.17968317839611 
1145	 1.17733988513689 
1146	 1.17536975272829 
1147	 1.1729550498425 
1148	 1.16976518419092 
1149	 1.16805045676741 
1150	 1.16674102476727 
1151	 1.16605220392616 
1152	 1.16637636409659 
1153	 1.16702061792544 
1154	 1.16749969390186 
1155	 1.16763929399167 
1156	 1.16754646900455 
1157	 1.16790775747046 
1158	 1.16869977535311 
1159	 1.16876432747021 
1160	 1.1690411187278 
1161	 1.16964689877102 
1162	 1.16996559407225 
1163	 1.17002128874795 
1164	 1.17014271257418 
1165	 1.17029785572261 
1166	 1.17021944306092 
1167	 1.16992366470112 
1168	 1.1698391876755 
1169	 1.16990499601933 
1170	 1.16969670113587 
1171	 1.16950726043532 
1172	 1.16908169261089 
1173	 1.16880354894773 
1174	 1.16877196209169 
1175	 1.16842954752739 
1176	 1.16798907095659 
1177	 1.16732683220483 
1178	 1.16611465943086 
1179	 1.16523049584944 
1180	 1.16441237378111 
1181	 1.16366559967608 
1182	 1.16285036621765 
1183	 1.16221049071694 
1184	 1.16175881117636 
1185	 1.16125533052946 
1186	 1.16097100048198 
1187	 1.16049783397034 
1188	 1.15994019967055 
1189	 1.15929659735896 
1190	 1.1586917127041 
1191	 1.15820579285619 
1192	 1.15793536718011 
1193	 1.15759772856271 
1194	 1.15731630881491 
1195	 1.15712248818292 
1196	 1.15676203415342 
1197	 1.15638369854558 
1198	 1.15599119743351 
1199	 1.1554456171902 
1200	 1.15500326810335 
1201	 1.15456440152618 
1202	 1.15420321958173 
1203	 1.15389888013198 
1204	 1.15360462035411 
1205	 1.15328229606315 
1206	 1.15316758166843 
1207	 1.15334919359115 
1208	 1.15325630509925 
1209	 1.1531098617689 
1210	 1.15299175716129 
1211	 1.15297090187138 
1212	 1.15266235296944 
1213	 1.15265943977356 
1214	 1.15292085349316 
1215	 1.15317885940352 
1216	 1.15344082579867 
1217	 1.1537997257432 
1218	 1.15442719048851 
1219	 1.15472763475324 
1220	 1.15491696749584 
1221	 1.15511603693006 
1222	 1.15511420364309 
1223	 1.15527028504915 
1224	 1.15557866108512 
1225	 1.15575385766267 
1226	 1.15591861422458 
1227	 1.15603494941415 
1228	 1.15615338623219 
1229	 1.1560046041428 
1230	 1.15600616671072 
1231	 1.15638774653646 
1232	 1.15658449811417 
1233	 1.15694324897339 
1234	 1.15703975692008 
1235	 1.15694505071703 
1236	 1.15701577260877 
1237	 1.15707704904323 
1238	 1.15707316058832 
1239	 1.15719450161557 
1240	 1.15710156154903 
1241	 1.15674541194205 
1242	 1.15658232053639 
1243	 1.15642267316421 
1244	 1.15626829075152 
1245	 1.15617643946386 
1246	 1.15609790622415 
1247	 1.15600735070845 
1248	 1.15592527109816 
1249	 1.15594474308037 
1250	 1.15586566785951 
1251	 1.15559028038082 
1252	 1.15548025185075 
1253	 1.15554778405556 
1254	 1.15579751146542 
1255	 1.15575287326006 
1256	 1.1558434100466 
1257	 1.15569399427829 
1258	 1.15513350518644 
1259	 1.15482722674381 
1260	 1.1546739092126 
1261	 1.15436687351642 
1262	 1.15406511519686 
1263	 1.15357317507453 
1264	 1.15281443375233 
1265	 1.15226818839716 
1266	 1.15172496823965 
1267	 1.15114717822165 
1268	 1.15079176980715 
1269	 1.15023319338991 
1270	 1.14950410429183 
1271	 1.14876294058111 
1272	 1.14805484095907 
1273	 1.14718052388064 
1274	 1.14621985158529 
1275	 1.1451323250357 
1276	 1.14410824597142 
1277	 1.14294309357563 
1278	 1.14196727746428 
1279	 1.14121561433585 
1280	 1.14011712098835 
1281	 1.13885887896743 
1282	 1.137732862718 
1283	 1.13661999081475 
1284	 1.1352488258202 
1285	 1.13376958794549 
1286	 1.13242901682037 
1287	 1.13084945320104 
1288	 1.12941504032293 
1289	 1.12838903147859 
1290	 1.12703484334659 
1291	 1.12535273596141 
1292	 1.12383266212658 
1293	 1.12240761103194 
1294	 1.12079376703475 
1295	 1.11921491536332 
1296	 1.11739989204922 
1297	 1.11563918837089 
1298	 1.1137101847265 
1299	 1.11178565911702 
1300	 1.10982728660671 
1301	 1.10796992549058 
1302	 1.10608460032875 
1303	 1.10411970864179 
1304	 1.10228027231339 
1305	 1.10025468201598 
1306	 1.0978818224983 
1307	 1.0958210266055 
1308	 1.09411503781868 
1309	 1.09190783477073 
1310	 1.08929019756475 
1311	 1.08712847152459 
1312	 1.08503818885132 
1313	 1.08274514152517 
1314	 1.08094425310375 
1315	 1.078657398408 
1316	 1.07544266751332 
1317	 1.07282817881101 
1318	 1.07063965188802 
1319	 1.06814264422709 
1320	 1.06577402846476 
1321	 1.06331914372933 
1322	 1.06048666766536 
1323	 1.05706142701669 
1324	 1.05403388132254 
1325	 1.05112569804468 
1326	 1.04767378723759 
1327	 1.04386096799217 
1328	 1.04027912094476 
1329	 1.03616531413124 
1330	 1.03262685074883 
1331	 1.03001345464803 
1332	 1.02640805474948 
1333	 1.02206112136565 
1334	 1.01860668127934 
1335	 1.01514795275812 
1336	 1.01188514159478 
1337	 1.00941776063786 
1338	 1.00665337455269 
1339	 1.00341107652648 
1340	 1.00036934647946 
1341	 0.997534660363254 
1342	 0.994330781015834 
1343	 0.990368410074635 
1344	 0.986384777496997 
1345	 0.981745380143666 
1346	 0.976399084420928 
1347	 0.971307345884892 
1348	 0.965832710604769 
1349	 0.959276303438084 
1350	 0.951646231773616 
1351	 0.943265963406716 
1352	 0.932581348778734 
1353	 0.921577152873182 
1354	 0.912765624740495 
1355	 0.899626044708683 
1356	 0.889646150497443 
1357	 0.873151989445842 
1358	 0.861745767533162 
1359	 0.83805943632861 
1360	 0.813428754206398 
1361	 0.783392385389627 
1362	 0.778069966215772 
1363	 0.759764711562599 
1364	 0.787214843083032 
1365	 0.782359957745812 
1366	 0.757730366751422 
1367	 0.740235455879748 
1368	 0.720114534992003 
1369	 0.71303600659428 
1370	 0.716819041851683 
1371	 0.714188391568271 
1372	 0.706270429651511 
1373	 0.706934716331058 
1374	 0.708376269437017 
1375	 0.714534580057269 
1376	 0.715974402151143 
1377	 0.718247675690993 
1378	 0.71643464890898 
1379	 0.708106202071822 
1380	 0.698282118969709 
1381	 0.690162681383864 
1382	 0.674632439907495 
1383	 0.648112836044969 
1384	 0.637437018763799 
1385	 0.633542499849717 
1386	 0.624562674992724 
1387	 0.620943823706967 
1388	 0.613462496917256 
1389	 0.600389678058059 
1390	 0.594574314428104 
1391	 0.595716215347615 
1392	 0.588765539306607 
1393	 0.579882536735775 
1394	 0.570829822390629 
1395	 0.556681013079023 
1396	 0.546503578938471 
1397	 0.536931673807024 
1398	 0.530210675766245 
1399	 0.526827760751724 
1400	 0.5212365285496 
1401	 0.519716308854613 
1402	 0.512583763936153 
1403	 0.498953984178799 
1404	 0.490088960575818 
1405	 0.48141938861393 
1406	 0.474731505394634 
1407	 0.469882667570317 
1408	 0.465111435920795 
1409	 0.458023635093229 
1410	 0.452362108825414 
1411	 0.448851854041675 
1412	 0.446627763732136 
1413	 0.444147427388335 
1414	 0.443272454562963 
1415	 0.440469526003361 
1416	 0.436198087782967 
1417	 0.434158629577585 
1418	 0.432583494552671 
1419	 0.430870357827308 
1420	 0.430225304461119 
1421	 0.428891020998457 
1422	 0.426709386222853 
1423	 0.425311849341319 
1424	 0.424362717751614 
1425	 0.423064018482278 
1426	 0.421737043910207 
1427	 0.420535227094848 
1428	 0.41876587433904 
1429	 0.417956512697813 
1430	 0.418201856337892 
1431	 0.417388887844207 
1432	 0.416526150119685 
1433	 0.4155651623757 
1434	 0.413726393914735 
1435	 0.412385442507056 
1436	 0.411360456838428 
1437	 0.410424194295299 
1438	 0.409522403099971 
1439	 0.408832513539275 
1440	 0.408137395090385 
1441	 0.408021819173329 
1442	 0.40878480539688 
1443	 0.40844795064714 
1444	 0.40887396988968 
1445	 0.410061746876369 
1446	 0.410511326604819 
1447	 0.411093030663665 
1448	 0.411726265446134 
1449	 0.412153588713465 
1450	 0.413007214636106 
1451	 0.41421165143735 
1452	 0.415008443198146 
1453	 0.415694571287303 
1454	 0.416601761352663 
1455	 0.417471346873653 
1456	 0.418356162914008 
1457	 0.419634710232138 
1458	 0.42041290302776 
1459	 0.42102531663118 
1460	 0.421428745463957 
1461	 0.421397176150901 
1462	 0.42187882993761 
1463	 0.422244926415541 
1464	 0.423137928669807 
1465	 0.424951186558582 
1466	 0.426074513336565 
1467	 0.426755514816054 
1468	 0.428177337831428 
1469	 0.429338111275181 
1470	 0.431254150573102 
1471	 0.434298658703115 
1472	 0.436776729350785 
1473	 0.438835982435779 
1474	 0.441388925886106 
1475	 0.444168903492697 
1476	 0.446674965704949 
1477	 0.449123967983011 
1478	 0.451814320147744 
1479	 0.453990448048718 
1480	 0.456853584364433 
1481	 0.460363119118923 
1482	 0.463782051270824 
1483	 0.467383998743435 
1484	 0.47095857979376 
1485	 0.474625951689028 
1486	 0.478063608922164 
1487	 0.481306760542014 
1488	 0.484465213484289 
1489	 0.487909020668739 
1490	 0.491437126256912 
1491	 0.495332443935513 
1492	 0.49931090405187 
1493	 0.502767490640285 
1494	 0.505894331745615 
1495	 0.509193377146941 
1496	 0.512379590550227 
1497	 0.515550466134684 
1498	 0.518836290614836 
1499	 0.52215416390891 
1500	 0.525411717889238 
1501	 0.528755249613611 
1502	 0.532340994749768 
1503	 0.535723632499763 
1504	 0.538983033147226 
1505	 0.542307209961231 
1506	 0.545669554806523 
1507	 0.548852113930997 
1508	 0.551972455782718 
1509	 0.554991208149585 
1510	 0.557790972231334 
1511	 0.560832309818008 
1512	 0.56398604647577 
1513	 0.566979195410908 
1514	 0.570048306501298 
1515	 0.573030321799372 
1516	 0.575754750057404 
1517	 0.578820038408147 
1518	 0.582178874298771 
1519	 0.585298779888452 
1520	 0.588467035668658 
1521	 0.59158292268661 
1522	 0.594594199052754 
1523	 0.597581327705974 
1524	 0.600659539618125 
1525	 0.603569625834058 
1526	 0.606318007015832 
1527	 0.609057522712017 
1528	 0.611624685081007 
1529	 0.614412314270976 
1530	 0.617355785325153 
1531	 0.620161023651138 
1532	 0.623072593471996 
1533	 0.625887241921387 
1534	 0.628480559476417 
1535	 0.631198156987735 
1536	 0.634168818988296 
1537	 0.636802966628294 
1538	 0.63914700788173 
1539	 0.64170623527849 
1540	 0.644323266773138 
1541	 0.64668153942916 
1542	 0.648964991615619 
1543	 0.651368147139305 
1544	 0.653449426015654 
1545	 0.655804130872445 
1546	 0.658696859378777 
1547	 0.661226559541403 
1548	 0.663601257338031 
1549	 0.665979291430431 
1550	 0.668168800941228 
1551	 0.670443495427642 
1552	 0.672884076644803 
1553	 0.675138049703584 
1554	 0.677252891720451 
1555	 0.679399648308699 
1556	 0.681506476544623 
1557	 0.68351619936763 
1558	 0.685574184936438 
1559	 0.687498839928425 
1560	 0.688989463047303 
1561	 0.690857368100951 
1562	 0.693051174274115 
1563	 0.695040488473999 
1564	 0.697169942203708 
1565	 0.6993563786997 
1566	 0.70079203663933 
1567	 0.702458148219411 
1568	 0.704093133793424 
1569	 0.705571461571597 
1570	 0.707430485539279 
1571	 0.709482132675808 
1572	 0.711604152842673 
1573	 0.714060078187065 
1574	 0.715950222801236 
1575	 0.717749216820326 
1576	 0.719256209553958 
1577	 0.720223445356667 
1578	 0.721702916678065 
1579	 0.723183427012334 
1580	 0.724837385729907 
1581	 0.726823103266156 
1582	 0.728365627705423 
1583	 0.72976905926298 
1584	 0.731259469979708 
1585	 0.732635142041764 
1586	 0.733951641266659 
1587	 0.735331417576124 
1588	 0.736636655786308 
1589	 0.737692049445759 
1590	 0.739058447627132 
1591	 0.740610111400025 
1592	 0.742114820276838 
1593	 0.743887602501685 
1594	 0.745008083587943 
1595	 0.74574825591794 
1596	 0.746900324822883 
1597	 0.747728722034123 
1598	 0.749029950170116 
1599	 0.751066632270766 
1600	 0.752270337598208 
1601	 0.753070502151077 
1602	 0.754235128973262 
1603	 0.755196846298046 
1604	 0.756433172299391 
1605	 0.758141240332261 
1606	 0.759309803306649 
1607	 0.760260549924429 
1608	 0.761183197867294 
1609	 0.761856018549173 
1610	 0.762715841118779 
1611	 0.763552940776035 
1612	 0.764573646850857 
1613	 0.765739826250924 
1614	 0.766744893481683 
1615	 0.767816978137056 
1616	 0.768756204585051 
1617	 0.769563742152945 
1618	 0.770430185243734 
1619	 0.771259589092372 
1620	 0.77216405821471 
1621	 0.773111305446866 
1622	 0.773937811049348 
1623	 0.774831136155024 
1624	 0.775578674463388 
1625	 0.776114897947138 
1626	 0.776806300970819 
1627	 0.777531247532161 
1628	 0.778241231069493 
1629	 0.778985944168036 
1630	 0.779701929871636 
1631	 0.780485364266988 
1632	 0.781027033582219 
1633	 0.781379441794091 
1634	 0.781989857758571 
1635	 0.782594369248139 
1636	 0.783103071266076 
1637	 0.783763961432608 
1638	 0.784296589253563 
1639	 0.784640263204692 
1640	 0.784977473262584 
1641	 0.785430667793469 
1642	 0.785624474574476 
1643	 0.785591492867473 
1644	 0.785540053711457 
1645	 0.785286306150072 
1646	 0.785396945956732 
1647	 0.785642358517039 
1648	 0.785588255380596 
1649	 0.785591664403223 
1650	 0.785634290314684 
1651	 0.785431394321854 
1652	 0.785426206996852 
1653	 0.785830217085609 
1654	 0.785567294130102 
1655	 0.784948344991225 
1656	 0.784512130801692 
1657	 0.783873807152851 
1658	 0.783397765383398 
1659	 0.782585720597299 
1660	 0.782176384493283 
1661	 0.78242412989802 
1662	 0.782504541937054 
1663	 0.782551255847056 
1664	 0.782364482578274 
1665	 0.78192352424233 
1666	 0.781615730181562 
1667	 0.781719918118007 
1668	 0.782004673429461 
1669	 0.78219242190592 
1670	 0.782856062183097 
1671	 0.78314614884439 
1672	 0.782913009144208 
1673	 0.78298832752236 
1674	 0.782762069834175 
1675	 0.782948863711588 
1676	 0.783805430062756 
1677	 0.784397351704245 
1678	 0.784657437318587 
1679	 0.784494531730867 
1680	 0.784151867207131 
1681	 0.783673573217694 
1682	 0.783262830583563 
1683	 0.783555928836218 
1684	 0.783860381418979 
1685	 0.783813976161938 
1686	 0.783800818650036 
1687	 0.783602279172708 
1688	 0.783389154703415 
1689	 0.783105436770962 
1690	 0.782772221884974 
1691	 0.782584492922399 
1692	 0.782265257644841 
1693	 0.781984583268934 
1694	 0.782086958733125 
1695	 0.781745522660338 
1696	 0.78083199240445 
1697	 0.780362273878923 
1698	 0.780094670242908 
1699	 0.779620295450816 
1700	 0.779632773104221 
1701	 0.778911811936179 
1702	 0.777232238310312 
1703	 0.776211369565139 
1704	 0.774970270748382 
1705	 0.774172728019868 
1706	 0.774213761356227 
1707	 0.77360707480016 
1708	 0.772758410626168 
1709	 0.772176569251409 
1710	 0.771643069811616 
1711	 0.770734664250266 
1712	 0.769821250618378 
1713	 0.768816745551102 
1714	 0.767287480501839 
1715	 0.766159950481974 
1716	 0.765483585710971 
1717	 0.764291287168349 
1718	 0.762568926413297 
1719	 0.7614749811374 
1720	 0.760753929939036 
1721	 0.759615195478634 
1722	 0.758607198531727 
1723	 0.757495593277284 
1724	 0.755927623329493 
1725	 0.75451386295044 
1726	 0.753390848248159 
1727	 0.752163613006555 
1728	 0.750750258833445 
1729	 0.749356633257252 
1730	 0.748010197445875 
1731	 0.746330139086626 
1732	 0.744769066067583 
1733	 0.743217758796677 
1734	 0.742189090324999 
1735	 0.741258503115034 
1736	 0.739791281435159 
1737	 0.73824582365206 
1738	 0.736892923303058 
1739	 0.735154917665772 
1740	 0.733897849581517 
1741	 0.73315275468524 
1742	 0.732047448364172 
1743	 0.731683514025156 
1744	 0.731077994575678 
1745	 0.729786649704568 
1746	 0.728709681499896 
1747	 0.726884688907369 
1748	 0.725544956857596 
1749	 0.724959571517428 
1750	 0.724115837396738 
1751	 0.723463263509564 
1752	 0.721954981673304 
1753	 0.719819688361977 
1754	 0.718400676736747 
1755	 0.716854966336209 
1756	 0.715611985308906 
1757	 0.714402272893937 
1758	 0.712803114511227 
1759	 0.711445088229513 
1760	 0.709815449268797 
1761	 0.707621486862624 
1762	 0.706031346406419 
1763	 0.704427829996402 
1764	 0.702792926889203 
1765	 0.701502399443757 
1766	 0.700210103820619 
1767	 0.698730546845641 
1768	 0.697428967893434 
1769	 0.696604559912719 
1770	 0.695327795905554 
1771	 0.693675694838965 
1772	 0.69255787169495 
1773	 0.691523117452475 
1774	 0.69037608364689 
1775	 0.689446628229448 
1776	 0.688531315542307 
1777	 0.68674604618522 
1778	 0.685231489079181 
1779	 0.684286143132328 
1780	 0.682642641299218 
1781	 0.681723039774608 
1782	 0.680663717990901 
1783	 0.679635419869626 
1784	 0.679178156579068 
1785	 0.677886121313297 
1786	 0.677629648219371 
1787	 0.677012595792584 
1788	 0.674732594803783 
1789	 0.673454433624586 
1790	 0.671664214427018 
1791	 0.669190513267801 
1792	 0.668235911836041 
1793	 0.667135955880094 
1794	 0.665762293208078 
1795	 0.664525485993908 
1796	 0.663286039738427 
1797	 0.662515092038635 
1798	 0.660958483369859 
1799	 0.6600344146538 
1800	 0.657372800063064 
1801	 0.651014508288431 
1802	 0.649757679562832 
1803	 0.647297934559078 
1804	 0.641901159334297 
1805	 0.639467977656373 
1806	 0.637751229710754 
1807	 0.636243396760077 
1808	 0.638090885059185 
1809	 0.638559828758017 
1810	 0.635826158964761 
1811	 0.628871976469017 
1812	 0.626674448195825 
1813	 0.623594950739162 
1814	 0.621147677343765 
1815	 0.624161119956943 
1816	 0.624421114462532 
1817	 0.622925364676819 
1818	 0.620178933652585 
1819	 0.616391045707189 
1820	 0.61132388416234 
1821	 0.608244252486678 
1822	 0.602466096644978 
1823	 0.59960008914322 
1824	 0.604469168701815 
1825	 0.603687950806942 
1826	 0.595411079579131 
1827	 0.593238988121027 
1828	 0.593287125878078 
1829	 0.595632299448285 
1830	 0.59707891448546 
1831	 0.609627641442235 
1832	 0.61832057882385 
1833	 0.622073153052158 
1834	 0.626617681631131 
1835	 0.634284202616888 
1836	 0.636666698302264 
1837	 0.590407521542628 
1838	 0.593049466920881 
1839	 0.618663267613008 
1840	 0.705071255155625 
1841	 0.716760901303469 
1842	 0.743382533610265 
1843	 0.727965349929291 
1844	 0.614849147678982 
1845	 0.586294236849809 
1846	 0.587068947971075 
1847	 0.581632847602189 
1848	 0.585129060127182 
1849	 0.609690904691249 
1850	 0.629474060157874 
1851	 0.686135766645203 
1852	 0.6622973771097 
1853	 0.602594699291776 
1854	 0.557417368049442 
1855	 0.447856337796029 
1856	 0.402663273389059 
1857	 0.387065358144664 
1858	 0.393144706141288 
1859	 0.411584336314938 
1860	 0.464937244672236 
1861	 0.468710415194828 
1862	 0.473398686418353 
1863	 0.465585575930447 
1864	 0.371189471082392 
1865	 0.375464023858065 
1866	 0.479382750355104 
1867	 0.561369520247763 
1868	 0.567982824510993 
1869	 0.57431970073048 
1870	 0.536186989886564 
1871	 0.327296203822828 
1872	 0.278132338164331 
1873	 0.318326057904881 
1874	 0.321895593471268 
1875	 0.33849472522577 
1876	 0.345378392416349 
1877	 0.331921752650752 
1878	 0.364742283628949 
1879	 0.383199866342558 
1880	 0.363734836756454 
1881	 0.35788706316787 
1882	 0.358830119291249 
1883	 0.339135650292823 
1884	 0.300168917697171 
1885	 0.28831881639143 
1886	 0.285765075631946 
1887	 0.259164539425045 
1888	 0.254954181809029 
1889	 0.263915891850198 
1890	 0.265036884984445 
1891	 0.26834283283807 
1892	 0.262845170771333 
1893	 0.242410394501376 
1894	 0.241370572180257 
1895	 0.237075165059648 
1896	 0.238445227506475 
1897	 0.263182831036136 
1898	 0.316071488135038 
1899	 0.312957635713118 
1900	 0.299224449830457 
1901	 0.310618002978853 
1902	 0.313179823089187 
1903	 0.328825870107832 
1904	 0.370295604409813 
1905	 0.414034234372149 
1906	 0.490445597221358 
1907	 0.500522085083001 
1908	 0.461557877164595 
1909	 0.447377160084928 
1910	 0.359718596902196 
1911	 0.278886542841935 
1912	 0.249319199404699 
1913	 0.235760189909129 
1914	 0.231373957218625 
1915	 0.242103082741869 
1916	 0.24311755504468 
1917	 0.24848175442879 
1918	 0.245973481003493 
1919	 0.230281994219306 
1920	 0.223120859075597 
1921	 0.217314030925383 
1922	 0.202878547106058 
1923	 0.191117546659075 
1924	 0.178728161992321 
1925	 0.173454688500017 
1926	 0.165813873084556 
1927	 0.16644039490316 
1928	 0.176784868445798 
1929	 0.186360733241793 
1930	 0.185385294784619 
1931	 0.186416622756356 
1932	 0.192079901859361 
1933	 0.185196770197481 
1934	 0.181238662868117 
1935	 0.177526413845749 
1936	 0.176964728162815 
1937	 0.178909901571216 
1938	 0.176782264894924 
1939	 0.176412048917094 
1940	 0.173245481266301 
1941	 0.165846627309417 
1942	 0.156160882472304 
1943	 0.15812991004397 
1944	 0.16205563811734 
1945	 0.167768748110756 
1946	 0.174357826065444 
1947	 0.176750261554071 
1948	 0.177376158278556 
1949	 0.177960874223956 
1950	 0.174835040487565 
1951	 0.17350559446202 
1952	 0.179218052732239 
1953	 0.179635060302317 
1954	 0.179642996082393 
1955	 0.182609010666543 
1956	 0.183601086305313 
1957	 0.18393469866279 
1958	 0.184153934567798 
1959	 0.184924480872886 
1960	 0.185814234992683 
1961	 0.185874017468296 
1962	 0.186517682570712 
1963	 0.18836900721556 
1964	 0.187631733008317 
1965	 0.186230173851261 
1966	 0.18423897375648 
1967	 0.182078789770332 
1968	 0.182056514819486 
1969	 0.182821357296015 
1970	 0.184377740018641 
1971	 0.186232555977591 
1972	 0.189073855387861 
1973	 0.191867563371833 
1974	 0.193787665749227 
1975	 0.195339588585057 
1976	 0.196504550175633 
1977	 0.197776335453236 
1978	 0.198889104155723 
1979	 0.199946028897127 
1980	 0.200495483903687 
1981	 0.20080858283034 
1982	 0.201965373589659 
1983	 0.203475921084579 
1984	 0.204962889567421 
1985	 0.206847967680325 
1986	 0.208782198666322 
1987	 0.208940452619438 
1988	 0.208713174408472 
1989	 0.20977789200172 
1990	 0.212171462164712 
1991	 0.215654071306013 
1992	 0.21961805344753 
1993	 0.222265358173714 
1994	 0.222625521008147 
1995	 0.223567513559902 
1996	 0.223074341344668 
1997	 0.223580017100259 
1998	 0.225192398833668 
1999	 0.226627921702662 
2000	 0.229244768812054 
2001	 0.231734194783483 
2002	 0.231993680883281 
2003	 0.236586411933641 
2004	 0.239165156673426 
2005	 0.237835046153736 
2006	 0.237837909749928 
2007	 0.238074953691035 
2008	 0.237768347130394 
2009	 0.238904179336056 
2010	 0.240802581485329 
2011	 0.244966312003033 
2012	 0.247117023251468 
2013	 0.245749475281811 
2014	 0.248022536824481 
2015	 0.250761329405262 
2016	 0.250787821308624 
2017	 0.25309604936821 
2018	 0.254977299967056 
2019	 0.256479424287652 
2020	 0.256862337718417 
2021	 0.25990003714451 
2022	 0.261695592556648 
2023	 0.262802175103234 
2024	 0.265016764434563 
2025	 0.266075699663425 
2026	 0.26762868623456 
2027	 0.269646509904735 
2028	 0.271441849215368 
2029	 0.273724798790536 
2030	 0.275786778699556 
2031	 0.277798856177595 
2032	 0.279262736346152 
2033	 0.280183481921686 
2034	 0.280770048940284 
2035	 0.282374124689066 
2036	 0.284795400537699 
2037	 0.286979830532113 
2038	 0.288223125233997 
2039	 0.28965665537748 
2040	 0.290977122935251 
2041	 0.292504882431496 
2042	 0.295069236096419 
2043	 0.298152144510085 
2044	 0.300545120840838 
2045	 0.302171177827783 
2046	 0.303081588863996 
2047	 0.304932102402816 
2048	 0.305992449602454 
2049	 0.305977467114998 
2050	 0.308180111971953 
2051	 0.311424282984301 
2052	 0.313259448926984 
2053	 0.315605985590183 
2054	 0.31675414495664 
2055	 0.316352378959109 
2056	 0.318202955873551 
2057	 0.319788835149683 
2058	 0.319504757519551 
2059	 0.320876879954541 
2060	 0.322712483295635 
2061	 0.325391183460957 
2062	 0.326500040550636 
2063	 0.328824680019443 
2064	 0.332159592952192 
2065	 0.33104504552815 
2066	 0.33139504123973 
2067	 0.334773974773853 
2068	 0.336799976174023 
2069	 0.338940667705472 
2070	 0.340785580700262 
2071	 0.34306557324896 
2072	 0.344715063519549 
2073	 0.345628616308169 
2074	 0.34673613412564 
2075	 0.348211928660742 
2076	 0.347386056940396 
2077	 0.347861664914235 
2078	 0.350111684846814 
2079	 0.352367255490886 
2080	 0.355677860617587 
2081	 0.358716761739112 
2082	 0.360041787110065 
2083	 0.36048338601229 
2084	 0.36180485575261 
2085	 0.363585398629546 
2086	 0.365660920061884 
2087	 0.367408672119656 
2088	 0.369796487182693 
2089	 0.37097956889457 
2090	 0.37163491164161 
2091	 0.371163824363058 
2092	 0.371323938572515 
2093	 0.37227284929131 
2094	 0.372388547579637 
2095	 0.375154819090975 
2096	 0.378154878036753 
2097	 0.380294808979429 
2098	 0.382902489318605 
2099	 0.384577343458218 
2100	 0.385054016976012 
2101	 0.385540580467439 
2102	 0.386763554030749 
2103	 0.38873843163271 
2104	 0.389724473717639 
2105	 0.39126792242507 
2106	 0.392708421404992 
2107	 0.393281496409587 
2108	 0.394200810297244 
2109	 0.394088286784358 
2110	 0.395057657189393 
2111	 0.395919449430545 
2112	 0.395485762639443 
2113	 0.395549323898996 
2114	 0.396047133544021 
2115	 0.396801146679644 
2116	 0.398505852545075 
2117	 0.40049986002824 
2118	 0.403771719169581 
2119	 0.405474007549275 
2120	 0.40658870890187 
2121	 0.408499972416387 
2122	 0.409250682924103 
2123	 0.409200206204261 
2124	 0.409757947246106 
2125	 0.409327745626148 
2126	 0.407976992313784 
2127	 0.408136459073639 
2128	 0.409279377641308 
2129	 0.410533874991951 
2130	 0.411578721572516 
2131	 0.412131926492484 
2132	 0.412404631964483 
2133	 0.412604323350004 
2134	 0.413380258572617 
2135	 0.414784653469922 
2136	 0.416796777729295 
2137	 0.418605327370437 
2138	 0.419702623330812 
2139	 0.420255950103532 
2140	 0.421370130419276 
2141	 0.422210474355098 
2142	 0.422927840911072 
2143	 0.424516804098839 
2144	 0.426069659461713 
2145	 0.427508423683725 
2146	 0.428510970344087 
2147	 0.429498730681064 
2148	 0.428730890516215 
2149	 0.426784864187297 
2150	 0.427555190117212 
2151	 0.427412784069879 
2152	 0.426477644989046 
2153	 0.427220814718189 
2154	 0.429548715450393 
2155	 0.428860419345217 
2156	 0.430933807464548 
2157	 0.433525369991553 
2158	 0.433736269469921 
2159	 0.434124036254922 
2160	 0.435382305048341 
2161	 0.436219588363011 
2162	 0.437433700651422 
2163	 0.440636887367801 
2164	 0.442431145622033 
2165	 0.443959258978757 
2166	 0.445396264058265 
2167	 0.445113490572095 
2168	 0.445607436293313 
2169	 0.445618507846024 
2170	 0.445750769550629 
2171	 0.445997494828017 
2172	 0.447133248944627 
2173	 0.447680500197371 
2174	 0.448418788665652 
2175	 0.44938848337469 
2176	 0.451545234830924 
2177	 0.453139050081423 
2178	 0.453064128038007 
2179	 0.453247005845144 
2180	 0.45230285352784 
2181	 0.452208831563464 
2182	 0.4535916592953 
2183	 0.455199822429473 
2184	 0.458035865554634 
2185	 0.459850571180847 
2186	 0.460310273390489 
2187	 0.461035994924693 
2188	 0.46122200065996 
2189	 0.461354153548282 
2190	 0.460885177895025 
2191	 0.462111533236288 
2192	 0.464366627739856 
2193	 0.464605012034675 
2194	 0.465543897411978 
2195	 0.465725271302382 
2196	 0.462942260994578 
2197	 0.461547993193083 
2198	 0.461306274374583 
2199	 0.461762443993329 
2200	 0.463577187622947 
2201	 0.465245733653434 
2202	 0.467649270346489 
2203	 0.469818485374811 
2204	 0.47073099477389 
2205	 0.471906358200926 
2206	 0.472231069822869 
2207	 0.471864812162673 
2208	 0.472227803332033 
2209	 0.473366653438379 
2210	 0.473616719374408 
2211	 0.473464562748453 
2212	 0.474623605626449 
2213	 0.474382777623535 
2214	 0.473050075233441 
2215	 0.473185142468476 
2216	 0.471573220930891 
2217	 0.47007250576066 
2218	 0.470483768435939 
2219	 0.470757057376506 
2220	 0.471368815739436 
2221	 0.471872850707459 
2222	 0.471900702351286 
2223	 0.47158815147521 
2224	 0.470626651620092 
2225	 0.469553499721317 
2226	 0.469928580902217 
2227	 0.468440724532636 
2228	 0.467270196756769 
2229	 0.468730401446946 
2230	 0.469547249278216 
2231	 0.469822349093659 
2232	 0.471368013969382 
2233	 0.471164418235969 
2234	 0.469555241983324 
2235	 0.466821159809181 
2236	 0.4645795842499 
2237	 0.464121938705711 
2238	 0.462164899674558 
2239	 0.461123060017594 
2240	 0.461780415268676 
2241	 0.462066102532265 
2242	 0.462453359812566 
2243	 0.462691436090348 
2244	 0.461595406730698 
2245	 0.45944934726637 
2246	 0.457935071129968 
2247	 0.456862308604382 
2248	 0.457874057729501 
2249	 0.46004411863488 
2250	 0.459842405234658 
2251	 0.460776371837728 
2252	 0.462091562493694 
2253	 0.459307864756934 
2254	 0.458498126314159 
2255	 0.459658720764456 
2256	 0.459263889625177 
2257	 0.456731357897344 
2258	 0.457912508169101 
2259	 0.45751516067798 
2260	 0.453310405194956 
2261	 0.451739325905035 
2262	 0.449029110215591 
2263	 0.445938265069424 
2264	 0.44532267179657 
2265	 0.444493086763436 
2266	 0.442538143957698 
2267	 0.440988053218656 
2268	 0.440456517294982 
2269	 0.43858042130447 
2270	 0.436582100550882 
2271	 0.436804776812176 
2272	 0.437322274067331 
2273	 0.437892395217932 
2274	 0.43836305487713 
2275	 0.436962021928033 
2276	 0.435243567245271 
2277	 0.435005131257297 
2278	 0.432676579558493 
2279	 0.431892739939161 
2280	 0.432872982810612 
2281	 0.42929941772066 
2282	 0.429891728663563 
2283	 0.432002691482277 
2284	 0.429007224272464 
2285	 0.429170826824361 
2286	 0.429106523370484 
2287	 0.428374633212503 
2288	 0.424292772893507 
2289	 0.423687359267534 
2290	 0.423516839148006 
2291	 0.420754038622298 
2292	 0.420742785088784 
2293	 0.42258499972095 
2294	 0.421021250863424 
2295	 0.418107375009292 
2296	 0.415485996365651 
2297	 0.410468358917722 
2298	 0.405427759293849 
2299	 0.405699094558426 
2300	 0.40719212459775 
2301	 0.404791211223315 
2302	 0.403067248961908 
2303	 0.400878865411809 
2304	 0.393802253364879 
2305	 0.388805544269191 
2306	 0.388533823700809 
2307	 0.38692256694561 
2308	 0.388030763479147 
2309	 0.394733044423374 
2310	 0.398399821545193 
2311	 0.399754609785055 
2312	 0.400842603199093 
2313	 0.400891096273509 
2314	 0.400754567806505 
2315	 0.397039761925083 
2316	 0.393716559383959 
2317	 0.389140998683365 
2318	 0.38268159562546 
2319	 0.383127115513774 
2320	 0.38485428740995 
2321	 0.384508461315224 
2322	 0.384643702051286 
2323	 0.383075321955473 
2324	 0.379151781333932 
2325	 0.376340523065189 
2326	 0.373798714791215 
2327	 0.37267161436142 
2328	 0.372931573318949 
2329	 0.375036267802698 
2330	 0.377496016524618 
2331	 0.378560866841563 
2332	 0.3792196508927 
2333	 0.373611761241733 
2334	 0.367190404109182 
2335	 0.362031202265906 
2336	 0.360294314953944 
2337	 0.360181069043516 
2338	 0.354981352809518 
2339	 0.353508728364578 
2340	 0.349608595908184 
2341	 0.34310648391176 
2342	 0.343116813479527 
2343	 0.339128859798488 
2344	 0.331918321000722 
2345	 0.329622289969607 
2346	 0.327606041168378 
2347	 0.328752895360772 
2348	 0.336191670208529 
2349	 0.338534777772014 
2350	 0.338669475329771 
2351	 0.338592153154807 
2352	 0.333990294642565 
2353	 0.335392749080494 
2354	 0.33017351299082 
2355	 0.324252602527303 
2356	 0.326891582837882 
2357	 0.321075981124277 
2358	 0.323175969091597 
2359	 0.330463778533549 
2360	 0.32697851393226 
2361	 0.326792397015177 
2362	 0.329376894342716 
2363	 0.324346680530117 
2364	 0.317828362342215 
2365	 0.311233907485647 
2366	 0.304777763482828 
2367	 0.302826107632853 
2368	 0.306482807905302 
2369	 0.310968618022086 
2370	 0.313981763334288 
2371	 0.318429154076761 
2372	 0.316776811408286 
2373	 0.308323516577552 
2374	 0.307195025031064 
2375	 0.300194502577828 
2376	 0.300454444805243 
2377	 0.3189607898445 
2378	 0.316998232923034 
2379	 0.304083999315757 
2380	 0.301111472697123 
2381	 0.288661030484282 
2382	 0.282380665179065 
2383	 0.286702099193019 
2384	 0.287914305589319 
2385	 0.289380388885069 
2386	 0.289331579987843 
2387	 0.292975572914652 
2388	 0.290191733570299 
2389	 0.277635083435606 
2390	 0.271399768179296 
2391	 0.263699263901187 
2392	 0.262544390531643 
2393	 0.27082187577869 
2394	 0.271965631902792 
2395	 0.27391528181351 
2396	 0.275583289424416 
2397	 0.275380926753012 
2398	 0.270654028343268 
2399	 0.260283728166942 
2400	 0.254443386833372 
2401	 0.244474835848719 
2402	 0.241242247533554 
2403	 0.254409889971569 
2404	 0.263128359454819 
2405	 0.257332850448931 
2406	 0.253756196698367 
2407	 0.239257483351921 
2408	 0.221475824400403 
2409	 0.22886933768866 
2410	 0.234308577254321 
2411	 0.228645199214082 
2412	 0.239529335896014 
2413	 0.237333471871735 
2414	 0.227240027368636 
2415	 0.238229016692351 
2416	 0.24047865838901 
2417	 0.250488595943856 
2418	 0.269224351504399 
2419	 0.267533091242752 
2420	 0.260653057326572 
2421	 0.254185536943573 
2422	 0.239391450625317 
2423	 0.227741032754751 
2424	 0.227597271957172 
2425	 0.224397395146499 
2426	 0.224814113758736 
2427	 0.237361827651026 
2428	 0.249207887682277 
2429	 0.252572414307591 
2430	 0.253777184911821 
2431	 0.255867525205429 
2432	 0.240827382518207 
2433	 0.237975288341735 
2434	 0.236405468601098 
2435	 0.229647665719536 
2436	 0.232153099399582 
2437	 0.244686652480118 
2438	 0.248011087001188 
2439	 0.255313263638654 
2440	 0.25369963838141 
2441	 0.232268432146763 
2442	 0.228176965975323 
2443	 0.224639744073221 
2444	 0.222911339422995 
2445	 0.245370118039112 
2446	 0.248839504729616 
2447	 0.247591437354594 
2448	 0.244209995158656 
2449	 0.224086037462999 
2450	 0.207181273651148 
2451	 0.180760937376107 
2452	 0.175424785953074 
2453	 0.193173688110021 
2454	 0.188550188691329 
2455	 0.184598433346434 
2456	 0.173227875577208 
2457	 0.127333329116849 
2458	 0.126440285654634 
2459	 0.153299307317189 
2460	 0.173002474982857 
2461	 0.231196138999459 
2462	 0.247855800451259 
2463	 0.231295935642631 
2464	 0.234519174505531 
2465	 0.22195978519996 
2466	 0.202294206140376 
2467	 0.182605956029294 
2468	 0.188820255516551 
2469	 0.213204840063966 
2470	 0.205474125725348 
2471	 0.192028599468083 
2472	 0.214125588088485 
2473	 0.215318942405348 
2474	 0.229807153597502 
2475	 0.340123411879897 
2476	 0.359992937853094 
2477	 0.303684004014659 
2478	 0.22239159971518 
2479	 3.00083638083919E-02 
2480	-8.18933659698566E-03 
2481	 2.66360350061891E-02 
2482	 3.32209883346479E-02 
2483	 0.209633346385616 
2484	 0.242722481323808 
2485	 0.068016590020633 
2486	 5.68899845675149E-02 
2487	 2.76019109438748E-02 
2488	 0.061908621848791 
2489	 0.155216289442634 
2490	 0.247574858445703 
2491	 0.506444033210306 
2492	 0.356456526738742 
2493	 0.198614353357247 
2494	 0.217529475803973 
2495	 0.111808669150319 
2496	 0.175521721909393 
2497	 0.469072977953627 
2498	 0.467332953326127 
2499	 0.494723631353447 
2500	 0.486231489243284 
