Wavelength	ref00079.asd
350	 1.81438310186036E-02 
351	 1.88439598670849E-02 
352	 1.76679698186452E-02 
353	 1.74814937428791E-02 
354	 1.71331309602026E-02 
355	 1.70968524785904E-02 
356	 1.76308238006098E-02 
357	 0.018167659897047 
358	 1.76151860749477E-02 
359	 0.017071193290997 
360	 1.76637894853437E-02 
361	 1.75581013238777E-02 
362	 1.74647845108862E-02 
363	 1.74618647997444E-02 
364	 1.72157468041558E-02 
365	 1.72153004491542E-02 
366	 1.72134278322083E-02 
367	 1.70291061161512E-02 
368	 1.66758316392343E-02 
369	 0.017089557306238 
370	 1.73102272253305E-02 
371	 1.66187920179118E-02 
372	 1.64054512502162E-02 
373	 1.62711440657354E-02 
374	 1.63109721973326E-02 
375	 1.67143179272423E-02 
376	 1.64403007402129E-02 
377	 1.62099163109726E-02 
378	 1.64201882310403E-02 
379	 1.68692098304983E-02 
380	 1.66506753453084E-02 
381	 1.65529918453242E-02 
382	 1.70269566998809E-02 
383	 1.65436289770239E-02 
384	 1.63430177562913E-02 
385	 1.65038732141431E-02 
386	 1.66068174753224E-02 
387	 1.65965877187333E-02 
388	 1.69886553558753E-02 
389	 0.017437751436825 
390	 0.016802198334373 
391	 1.69499697606462E-02 
392	 0.017146067045676 
393	 1.68482751847651E-02 
394	 1.70550378405007E-02 
395	 1.72050081830542E-02 
396	 1.71231203909993E-02 
397	 1.69081921339651E-02 
398	 1.73119997319399E-02 
399	 1.74481706263096E-02 
400	 1.72833135175544E-02 
401	 1.75024895178989E-02 
402	 1.77082500085782E-02 
403	 1.76521297330749E-02 
404	 1.74569845551872E-02 
405	 1.79971692948362E-02 
406	 1.81276265953258E-02 
407	 1.79478484922201E-02 
408	 0.017921782898263 
409	 1.79385275705929E-02 
410	 1.81945770036573E-02 
411	 1.86033827921011E-02 
412	 1.88340459938346E-02 
413	 1.88431538619607E-02 
414	 1.87164381044469E-02 
415	 1.86457470140904E-02 
416	 1.90257391511242E-02 
417	 1.90908621080409E-02 
418	 1.90853459330335E-02 
419	 1.94062985492079E-02 
420	 1.93095423642001E-02 
421	 1.92880196770619E-02 
422	 1.94735269571939E-02 
423	 1.96375527014201E-02 
424	 1.99018033410947E-02 
425	 2.00106775980953E-02 
426	 0.019899927324954 
427	 2.00242793345002E-02 
428	 2.02683011040121E-02 
429	 2.04158458271281E-02 
430	 0.020326604323676 
431	 2.04678331440994E-02 
432	 2.05743509307977E-02 
433	 2.06108161694037E-02 
434	 2.07612280488976E-02 
435	 2.09215865795001E-02 
436	 2.09767414234439E-02 
437	 2.09089133569632E-02 
438	 2.08611234137384E-02 
439	 2.10693752059731E-02 
440	 0.021324059455804 
441	 2.13362021344381E-02 
442	 2.13532789109218E-02 
443	 0.021426320903482 
444	 0.021526756298689 
445	 2.15686586623214E-02 
446	 2.16484611637753E-02 
447	 2.16698255703444E-02 
448	 2.16377962695828E-02 
449	 2.19126032821889E-02 
450	 2.20420214156561E-02 
451	 2.20272515407926E-02 
452	 2.20605269941639E-02 
453	 2.21744209642061E-02 
454	 2.22905215824813E-02 
455	 2.23951943549832E-02 
456	 2.25598357526714E-02 
457	 2.25855466918158E-02 
458	 2.25560679065473E-02 
459	 2.25873984822232E-02 
460	 2.26872802099091E-02 
461	 2.27919725293066E-02 
462	 2.28597892960726E-02 
463	 2.28745670542498E-02 
464	 2.29009916631293E-02 
465	 2.29778452517191E-02 
466	 2.30958809625681E-02 
467	 2.31830125724364E-02 
468	 0.023250143793377 
469	 2.32503196025578E-02 
470	 2.31867925500922E-02 
471	 0.023296298939129 
472	 2.33881099877245E-02 
473	 2.34733191447734E-02 
474	 2.36765889582742E-02 
475	 2.36232656922409E-02 
476	 0.023607818240296 
477	 2.37885942833249E-02 
478	 2.39030691955063E-02 
479	 2.39325214861615E-02 
480	 2.39958011317825E-02 
481	 0.024195172329754 
482	 2.42599974422432E-02 
483	 2.42834399237317E-02 
484	 2.43284469244047E-02 
485	 2.44095020010444E-02 
486	 2.44932293716551E-02 
487	 2.45709371031517E-02 
488	 2.46543088547752E-02 
489	 0.024796691185967 
490	 2.49376678893257E-02 
491	 2.50271180862804E-02 
492	 2.50556691767028E-02 
493	 2.52202454222188E-02 
494	 2.53973733294457E-02 
495	 2.55260644238752E-02 
496	 2.56539584631882E-02 
497	 2.57102876776089E-02 
498	 0.025881398705522 
499	 2.62459087973608E-02 
500	 2.63170954666728E-02 
501	 2.64503653764463E-02 
502	 2.67039151411658E-02 
503	 0.026943765728075 
504	 2.71436591692853E-02 
505	 2.73186927775944E-02 
506	 2.75225771908097E-02 
507	 2.78654456637048E-02 
508	 2.81054732342656E-02 
509	 2.83043762172802E-02 
510	 2.85910022602214E-02 
511	 2.89385639592274E-02 
512	 2.92529087389126E-02 
513	 2.95161234964492E-02 
514	 2.97843284199204E-02 
515	 3.01395788130166E-02 
516	 3.05372911127082E-02 
517	 3.09011232746028E-02 
518	 3.11190879400301E-02 
519	 3.15649801685568E-02 
520	 3.20672476644397E-02 
521	 3.23202917947812E-02 
522	 3.26317527394977E-02 
523	 0.033004988796258 
524	 3.33700718132642E-02 
525	 3.35976494287115E-02 
526	 3.38771111598999E-02 
527	 3.42571116320738E-02 
528	 3.46917968657734E-02 
529	 3.49711205503416E-02 
530	 3.52043884672751E-02 
531	 3.54225138132184E-02 
532	 3.56278561628419E-02 
533	 3.59791571389699E-02 
534	 3.63208398822092E-02 
535	 3.65647550744729E-02 
536	 0.036792647341317 
537	 3.70655167210525E-02 
538	 3.73512697233244E-02 
539	 3.75981384342652E-02 
540	 3.78154859471568E-02 
541	 3.81281794688674E-02 
542	 3.84695365024528E-02 
543	 3.86257558289058E-02 
544	 3.87891456003115E-02 
545	 3.90652082053545E-02 
546	 3.94309541456682E-02 
547	 3.95963653634352E-02 
548	 3.98529077741674E-02 
549	 4.01531665278872E-02 
550	 4.03436353123914E-02 
551	 4.05559949350769E-02 
552	 0.040782314978708 
553	 4.09891576599503E-02 
554	 4.11261947236843E-02 
555	 4.12401042527392E-02 
556	 4.14311608487923E-02 
557	 4.17142286509741E-02 
558	 4.17688367895204E-02 
559	 4.18877346661109E-02 
560	 4.20849600487963E-02 
561	 4.21988662475022E-02 
562	 4.23110193078791E-02 
563	 4.23756717708693E-02 
564	 4.23920145752168E-02 
565	 0.042464506451839 
566	 4.25021131274193E-02 
567	 0.042567249963522 
568	 4.27207253568073E-02 
569	 4.27827772508555E-02 
570	 4.27572513483249E-02 
571	 4.27127773813772E-02 
572	 4.27582877810419E-02 
573	 4.27199837426481E-02 
574	 4.27216590669856E-02 
575	 0.042848394972955 
576	 0.042959104668966 
577	 4.30174094718417E-02 
578	 4.30700130882211E-02 
579	 0.043186695771387 
580	 4.32597629890466E-02 
581	 4.32250787510937E-02 
582	 4.31153402850159E-02 
583	 4.30779169274123E-02 
584	 4.31028807383499E-02 
585	 4.32408894542358E-02 
586	 4.34908046141995E-02 
587	 4.36318358372895E-02 
588	 4.38096968460283E-02 
589	 4.39397219494935E-02 
590	 4.38122906133203E-02 
591	 4.38999488355789E-02 
592	 4.40107614121396E-02 
593	 4.40290724788641E-02 
594	 4.41465362462609E-02 
595	 4.43138731141066E-02 
596	 4.44567342824896E-02 
597	 4.45086842409033E-02 
598	 4.44919893918428E-02 
599	 0.044548730476915 
600	 4.46994832869707E-02 
601	 4.48394838973859E-02 
602	 4.49867752375883E-02 
603	 4.51026353922592E-02 
604	 4.51643603008046E-02 
605	 4.52022476840682E-02 
606	 4.52946007386554E-02 
607	 4.53748462602908E-02 
608	 4.53389373066346E-02 
609	 4.54166962896017E-02 
610	 4.54728104990525E-02 
611	 4.54933379016077E-02 
612	 4.56811329354302E-02 
613	 4.57879675026251E-02 
614	 4.58142512039212E-02 
615	 4.58176066627273E-02 
616	 4.57836594405917E-02 
617	 4.58182893038195E-02 
618	 4.58964223229688E-02 
619	 4.59157202068008E-02 
620	 4.60231565605694E-02 
621	 4.61771651494052E-02 
622	 4.63174104864594E-02 
623	 4.63957510550724E-02 
624	 0.04642913872796 
625	 4.65114353728029E-02 
626	 4.67161785700906E-02 
627	 4.68717873783431E-02 
628	 4.70203194394514E-02 
629	 4.71594859955346E-02 
630	 4.72400687779793E-02 
631	 4.73947306132501E-02 
632	 4.74982132532531E-02 
633	 4.74793267093703E-02 
634	 4.75294492397303E-02 
635	 4.76023719945667E-02 
636	 4.76223054470138E-02 
637	 4.75232511067671E-02 
638	 4.74385870006577E-02 
639	 4.73460697813058E-02 
640	 4.72129607572099E-02 
641	 4.70145955558739E-02 
642	 0.046919212213166 
643	 4.68033702189154E-02 
644	 4.65825059555162E-02 
645	 4.65670451744411E-02 
646	 4.64402880544853E-02 
647	 4.62702971704896E-02 
648	 4.63256281713083E-02 
649	 4.63329236937428E-02 
650	 4.62832816955199E-02 
651	 4.62439321045855E-02 
652	 4.63482101552786E-02 
653	 4.64158211524648E-02 
654	 4.64567572818467E-02 
655	 4.65229286410566E-02 
656	 4.65767327909529E-02 
657	 4.66536501582128E-02 
658	 4.66857910176824E-02 
659	 4.65726147427668E-02 
660	 4.65312058268725E-02 
661	 4.65009733085545E-02 
662	 4.64327862556516E-02 
663	 4.63652178071985E-02 
664	 4.63753304973994E-02 
665	 4.63404192189804E-02 
666	 4.61625009486723E-02 
667	 4.62356076454506E-02 
668	 4.62868879095764E-02 
669	 0.046247813915821 
670	 4.62643585100663E-02 
671	 4.63662128031309E-02 
672	 4.64486888740025E-02 
673	 4.64672318518206E-02 
674	 4.65805285098081E-02 
675	 4.67131169551858E-02 
676	 4.68846173588715E-02 
677	 4.71130391933362E-02 
678	 4.72167877496476E-02 
679	 4.73229532494977E-02 
680	 4.75172590138714E-02 
681	 4.78154202347416E-02 
682	 4.81347058761168E-02 
683	 4.86434145085384E-02 
684	 4.93837255224291E-02 
685	 4.99279242970061E-02 
686	 5.05907659062992E-02 
687	 5.15563203783891E-02 
688	 5.27883879531993E-02 
689	 5.38105175743631E-02 
690	 5.49089797828059E-02 
691	 5.62933877010046E-02 
692	 0.05792179444828 
693	 5.96864199781758E-02 
694	 6.16168038135085E-02 
695	 6.36615934246454E-02 
696	 6.55209031517273E-02 
697	 6.74116109974743E-02 
698	 6.95247021718306E-02 
699	 7.19299468175583E-02 
700	 7.40559372540459E-02 
701	 7.62511370592146E-02 
702	 7.85888529990637E-02 
703	 8.07237692863415E-02 
704	 8.28162983890108E-02 
705	 8.49644474248858E-02 
706	 8.71816879665211E-02 
707	 8.92151911652445E-02 
708	 9.12621502304445E-02 
709	 9.33146443782569E-02 
710	 9.52844420698652E-02 
711	 9.73498946154787E-02 
712	 9.93945053219997E-02 
713	 0.101357494899435 
714	 0.103278016665778 
715	 0.105360273203295 
716	 0.107582463522087 
717	 0.109907422156053 
718	 0.112195427737655 
719	 0.114427277793412 
720	 0.116303408173414 
721	 0.117642072916408 
722	 0.118998455256318 
723	 0.120753987015229 
724	 0.122843586988684 
725	 0.12452101704823 
726	 0.126329803356574 
727	 0.127964229205902 
728	 0.129293998798637 
729	 0.130868510025624 
730	 0.132256451093558 
731	 0.133422395770581 
732	 0.134499745507701 
733	 0.135552250918871 
734	 0.136548181842921 
735	 0.137557711142065 
736	 0.138702477499851 
737	 0.13978613761151 
738	 0.140710433034876 
739	 0.141528263611748 
740	 0.142529959347299 
741	 0.143344065388976 
742	 0.144104457618595 
743	 0.145017786087926 
744	 0.145839326979609 
745	 0.146603699480356 
746	 0.147319384648571 
747	 0.147974006506426 
748	 0.148620332844194 
749	 0.149230452150175 
750	 0.14983794457405 
751	 0.150601726434029 
752	 0.151163547169513 
753	 0.151636059225451 
754	 0.152197982381427 
755	 0.152746379808188 
756	 0.153261671467645 
757	 0.153729423247939 
758	 0.154153232915853 
759	 0.154532560312012 
760	 0.15519498923264 
761	 0.156257515932499 
762	 0.156845835316696 
763	 0.157043092362394 
764	 0.157263532178348 
765	 0.15764431891392 
766	 0.157859685608798 
767	 0.15821312988002 
768	 0.158589313288474 
769	 0.158833357910273 
770	 0.159165597624855 
771	 0.159644567463247 
772	 0.16013685706712 
773	 0.160395670807414 
774	 0.16077165660288 
775	 0.161193339144339 
776	 0.161587497857533 
777	 0.161997629183544 
778	 0.162302575900551 
779	 0.162633062132892 
780	 0.163090736069749 
781	 0.163437363561092 
782	 0.163749562102522 
783	 0.164119291631689 
784	 0.164602867276436 
785	 0.164967576193404 
786	 0.165287123959293 
787	 0.165690371652756 
788	 0.166303873563859 
789	 0.166712328835653 
790	 0.167046820830815 
791	 0.167419674361327 
792	 0.167655490853827 
793	 0.168121339513664 
794	 0.1686215765957 
795	 0.168913271694775 
796	 0.169358387909293 
797	 0.169795420772089 
798	 0.170125719969746 
799	 0.170348860548065 
800	 0.170844345800805 
801	 0.171248824689014 
802	 0.171482547230347 
803	 0.171865719948785 
804	 0.172305728732869 
805	 0.1726589196655 
806	 0.172872389065021 
807	 0.173091321133276 
808	 0.173484038088004 
809	 0.17399319652291 
810	 0.174494014580371 
811	 0.174947032913242 
812	 0.175563828429584 
813	 0.176391450471166 
814	 0.177307149220979 
815	 0.177853833794689 
816	 0.178297073022787 
817	 0.178736762792895 
818	 0.17902017929041 
819	 0.179170271489697 
820	 0.179134742211138 
821	 0.179111720983716 
822	 0.179724458220634 
823	 0.180203806703674 
824	 0.180306985244991 
825	 0.180141449255401 
826	 0.180290658728169 
827	 0.180580689601609 
828	 0.18090988141854 
829	 0.181180857921462 
830	 0.181284186103309 
831	 0.181401502807405 
832	 0.18152274130946 
833	 0.181516319181526 
834	 0.181618159724872 
835	 0.181767807381492 
836	 0.181913704630313 
837	 0.182061823440682 
838	 0.182238812720083 
839	 0.182511021060805 
840	 0.182825369894809 
841	 0.182883380907832 
842	 0.183081241793326 
843	 0.183351950703918 
844	 0.183597315363491 
845	 0.184139573818171 
846	 0.184336933796654 
847	 0.184339361293717 
848	 0.184606118273065 
849	 0.185102490501689 
850	 0.185441526377136 
851	 0.18559027394745 
852	 0.18580819617325 
853	 0.186184525487939 
854	 0.186543468947641 
855	 0.186841674100395 
856	 0.187198643756974 
857	 0.18733349537544 
858	 0.187414392482817 
859	 0.187605464872609 
860	 0.187937988805169 
861	 0.188287585944646 
862	 0.188522696424598 
863	 0.188629582078795 
864	 0.188864700531735 
865	 0.189248837550422 
866	 0.189639830074343 
867	 0.189876158593837 
868	 0.190006183704234 
869	 0.190117293272823 
870	 0.190282414511967 
871	 0.190563322400108 
872	 0.19107227719204 
873	 0.191341931223742 
874	 0.191395916987796 
875	 0.191605760822139 
876	 0.191930843769355 
877	 0.192132818710754 
878	 0.192186427821831 
879	 0.192298837942989 
880	 0.192517562634122 
881	 0.192766621496333 
882	 0.192962044961175 
883	 0.19305266917756 
884	 0.193137600017485 
885	 0.193362622447458 
886	 0.193658146816432 
887	 0.193571236283501 
888	 0.193820456018156 
889	 0.194148578572549 
890	 0.194251566875933 
891	 0.194352627094603 
892	 0.194790467994138 
893	 0.195484401887984 
894	 0.196169374492264 
895	 0.196537567727805 
896	 0.197108484538235 
897	 0.197715287542995 
898	 0.198011157119291 
899	 0.19837953709845 
900	 0.198594659683526 
901	 0.198673298886006 
902	 0.198678151144104 
903	 0.19810896964195 
904	 0.197823184552988 
905	 0.198159134426791 
906	 0.198908765358873 
907	 0.199092796946202 
908	 0.199479446904819 
909	 0.199978957348992 
910	 0.199850789901481 
911	 0.200327206256651 
912	 0.200458448758161 
913	 0.200041622701143 
914	 0.199832926434106 
915	 0.20027444236242 
916	 0.200347691013609 
917	 0.199833865798157 
918	 0.199581358431872 
919	 0.199214336541996 
920	 0.198992503495133 
921	 0.198930979420757 
922	 0.19867653810805 
923	 0.19877420316816 
924	 0.199082599401026 
925	 0.199358002983389 
926	 0.199428432537975 
927	 0.199652610951494 
928	 0.200234081269579 
929	 0.201146691753981 
930	 0.20201048905409 
931	 0.20393514842163 
932	 0.205488614069576 
933	 0.205668568803378 
934	 0.206292947962785 
935	 0.206755296427471 
936	 0.206359138025259 
937	 0.20516361184402 
938	 0.204547790958897 
939	 0.203860611101227 
940	 0.202910499053784 
941	 0.201943415235521 
942	 0.201798909510653 
943	 0.201236960218842 
944	 0.200803603193306 
945	 0.200802042486546 
946	 0.200048656417031 
947	 0.199381315881137 
948	 0.198652792725289 
949	 0.197771783924493 
950	 0.197277211346205 
951	 0.19618465209096 
952	 0.195481953946393 
953	 0.195555355911939 
954	 0.194605734767144 
955	 0.1939553569236 
956	 0.193270133947783 
957	 0.192219134873392 
958	 0.191285317821527 
959	 0.189837848467288 
960	 0.188888490974434 
961	 0.188853862948914 
962	 0.188446156539602 
963	 0.188156377717923 
964	 0.186968464347791 
965	 0.185236967679764 
966	 0.18578168011704 
967	 0.186454610165119 
968	 0.185757818342816 
969	 0.184164791489466 
970	 0.184649007644242 
971	 0.185341725384295 
972	 0.184657766253099 
973	 0.183158346062836 
974	 0.184009641622639 
975	 0.183882958575026 
976	 0.183741446631139 
977	 0.184360369134569 
978	 0.185188898898418 
979	 0.185788904139244 
980	 0.185240099217758 
981	 0.184104817408458 
982	 0.184293489615532 
983	 0.18508333738552 
984	 0.184657226681522 
985	 0.183628701521273 
986	 0.184403754600364 
987	 0.184323493289681 
988	 0.184388522318136 
989	 0.184441800664175 
990	 0.183673510912002 
991	 0.184743529787226 
992	 0.185254146860196 
993	 0.185414514874337 
994	 0.186556923588422 
995	 0.185388560074529 
996	 0.185863092635075 
997	 0.186959696163622 
998	 0.186156307503648 
999	 0.186560886585163 
1000	 0.186656903193367 
1001	 0.19229097253083 
1002	 0.192595509511394 
1003	 0.192874743718125 
1004	 0.193007472378693 
1005	 0.193263064252129 
1006	 0.193563249154393 
1007	 0.193932226778887 
1008	 0.194326806894974 
1009	 0.194747504455474 
1010	 0.195292548111548 
1011	 0.195754791899555 
1012	 0.196199402805686 
1013	 0.19655088497311 
1014	 0.196793785433236 
1015	 0.197142446498244 
1016	 0.197476685245101 
1017	 0.197830273825233 
1018	 0.19825275823464 
1019	 0.198849540958191 
1020	 0.19925053466044 
1021	 0.199624519088897 
1022	 0.19994007565076 
1023	 0.200147588068538 
1024	 0.200288622967431 
1025	 0.200668911104683 
1026	 0.201100722749107 
1027	 0.201544504684413 
1028	 0.202057897283161 
1029	 0.202383614969925 
1030	 0.2026066359123 
1031	 0.202863511714466 
1032	 0.203108990368068 
1033	 0.203389958327862 
1034	 0.203684760229576 
1035	 0.204022426841637 
1036	 0.204437769377016 
1037	 0.204775791032001 
1038	 0.205107680686958 
1039	 0.205457064517536 
1040	 0.20567717227068 
1041	 0.205917705959249 
1042	 0.206307312682877 
1043	 0.206557395324 
1044	 0.206851339713246 
1045	 0.207107714396095 
1046	 0.207355536652944 
1047	 0.207744309109352 
1048	 0.20799707531468 
1049	 0.208406925978206 
1050	 0.208802306049795 
1051	 0.20922273243687 
1052	 0.209439728217671 
1053	 0.209782051770675 
1054	 0.210089166325955 
1055	 0.210302501852678 
1056	 0.210540582557555 
1057	 0.210741628404664 
1058	 0.210977566881923 
1059	 0.21112479978037 
1060	 0.211320480222521 
1061	 0.211673299279647 
1062	 0.211907472854944 
1063	 0.212123056056973 
1064	 0.212334426672605 
1065	 0.212541599114189 
1066	 0.212713870964429 
1067	 0.21292167723852 
1068	 0.213117316358701 
1069	 0.21329974299183 
1070	 0.213441267950592 
1071	 0.213600621936809 
1072	 0.213840550657523 
1073	 0.214087445901482 
1074	 0.214291710328485 
1075	 0.214421386595792 
1076	 0.214467075139333 
1077	 0.214542748117312 
1078	 0.214686483637523 
1079	 0.214779314037591 
1080	 0.214851249687498 
1081	 0.214963569947655 
1082	 0.215081068118513 
1083	 0.215144528971312 
1084	 0.215222986919398 
1085	 0.215370682850408 
1086	 0.215417022954727 
1087	 0.215378938208089 
1088	 0.215444853276569 
1089	 0.215455009104434 
1090	 0.215442867690531 
1091	 0.215482546037538 
1092	 0.21551328960335 
1093	 0.215615208675789 
1094	 0.215670142954058 
1095	 0.215755639572907 
1096	 0.215842820408847 
1097	 0.215887983335266 
1098	 0.215958512055287 
1099	 0.216047494960796 
1100	 0.216199710473667 
1101	 0.21628694002253 
1102	 0.216406310970563 
1103	 0.216632407146622 
1104	 0.216763678573339 
1105	 0.216985580452354 
1106	 0.217270157441969 
1107	 0.217390215269862 
1108	 0.217625834217472 
1109	 0.217942361961319 
1110	 0.218272686715403 
1111	 0.21872549449535 
1112	 0.219454016481687 
1113	 0.219981731001613 
1114	 0.220472072159471 
1115	 0.221098706845753 
1116	 0.221664888376612 
1117	 0.222467459018185 
1118	 0.223512059407693 
1119	 0.224372856736772 
1120	 0.225006370089533 
1121	 0.225447075727263 
1122	 0.22553008045746 
1123	 0.225251168287329 
1124	 0.225062818718773 
1125	 0.224618233192201 
1126	 0.223940100786982 
1127	 0.223272811124232 
1128	 0.222177443112437 
1129	 0.220665542246057 
1130	 0.219227652959704 
1131	 0.217486696714037 
1132	 0.216027474134941 
1133	 0.214662261133317 
1134	 0.213391852541336 
1135	 0.212144374866933 
1136	 0.210894915392963 
1137	 0.209611458316004 
1138	 0.208330280905952 
1139	 0.207358354136454 
1140	 0.206391168012609 
1141	 0.20526430199755 
1142	 0.204265215310648 
1143	 0.203268076527059 
1144	 0.202193899318572 
1145	 0.201145045318534 
1146	 0.200345404324712 
1147	 0.199198821476781 
1148	 0.197820714094643 
1149	 0.196562506029567 
1150	 0.195251392894798 
1151	 0.193996319952136 
1152	 0.192864115795872 
1153	 0.191741090107397 
1154	 0.190661013155397 
1155	 0.189672730005509 
1156	 0.188645428218955 
1157	 0.187802914638499 
1158	 0.186918132410476 
1159	 0.185989887501177 
1160	 0.185302630103698 
1161	 0.184714679180387 
1162	 0.184204422795097 
1163	 0.183828898845704 
1164	 0.183508285980181 
1165	 0.183264273056276 
1166	 0.183005723245896 
1167	 0.182810962104692 
1168	 0.182593264454488 
1169	 0.182362869951939 
1170	 0.182112891118254 
1171	 0.181923490620376 
1172	 0.181761897126131 
1173	 0.181540990979203 
1174	 0.181348266014035 
1175	 0.181300601719008 
1176	 0.181203428346349 
1177	 0.181131218418067 
1178	 0.181163872372132 
1179	 0.181157970440025 
1180	 0.181108438183439 
1181	 0.181062712159181 
1182	 0.181072281967013 
1183	 0.180979965472955 
1184	 0.180813783176062 
1185	 0.18066347201027 
1186	 0.180440773521219 
1187	 0.1803048414414 
1188	 0.180209300107754 
1189	 0.180096950743365 
1190	 0.180071188011517 
1191	 0.180003471144614 
1192	 0.179882035163456 
1193	 0.179810367898885 
1194	 0.179743242615505 
1195	 0.179666365076104 
1196	 0.179610732896771 
1197	 0.179591832099883 
1198	 0.179566071213412 
1199	 0.179514743182872 
1200	 0.179522097445083 
1201	 0.179540986802742 
1202	 0.179615816112783 
1203	 0.179810667581085 
1204	 0.179897442031417 
1205	 0.179989400067757 
1206	 0.18003204536498 
1207	 0.179888430526808 
1208	 0.17991687400562 
1209	 0.180030983827842 
1210	 0.180166211519691 
1211	 0.180338794270852 
1212	 0.180522748531673 
1213	 0.180639391231521 
1214	 0.180679473635993 
1215	 0.180773434375961 
1216	 0.180843852445747 
1217	 0.180987812754293 
1218	 0.18114824256054 
1219	 0.181365027378204 
1220	 0.181687884634917 
1221	 0.181922110548933 
1222	 0.182181314457368 
1223	 0.182385430880843 
1224	 0.182474981619044 
1225	 0.182667331738899 
1226	 0.182900644099553 
1227	 0.183115158307272 
1228	 0.183374331899796 
1229	 0.183626306887667 
1230	 0.183859864222096 
1231	 0.183994097774962 
1232	 0.184166227406696 
1233	 0.184336637356959 
1234	 0.184495675457549 
1235	 0.184616036379114 
1236	 0.184801952219836 
1237	 0.185010125308676 
1238	 0.185216317695403 
1239	 0.1854735085031 
1240	 0.185690065365057 
1241	 0.185890668238031 
1242	 0.186078495951531 
1243	 0.186254148444637 
1244	 0.186429622731205 
1245	 0.186582837847922 
1246	 0.18674845791982 
1247	 0.186974846184259 
1248	 0.187104725616956 
1249	 0.187142827591778 
1250	 0.187233889116757 
1251	 0.187282643243419 
1252	 0.187349399583899 
1253	 0.187439209806976 
1254	 0.187589444929117 
1255	 0.187724014321205 
1256	 0.187864628087859 
1257	 0.187971769827763 
1258	 0.188084309727033 
1259	 0.188203026638052 
1260	 0.188255709851632 
1261	 0.188393930109918 
1262	 0.18862471113228 
1263	 0.188796339775977 
1264	 0.189028692884022 
1265	 0.189144690910266 
1266	 0.189126290222043 
1267	 0.189189102823748 
1268	 0.189165597823746 
1269	 0.189248195405153 
1270	 0.189470715256922 
1271	 0.189640490941351 
1272	 0.189882000530436 
1273	 0.190023085603639 
1274	 0.190137336150677 
1275	 0.190197620850281 
1276	 0.190269012388355 
1277	 0.190286781110543 
1278	 0.190359740816104 
1279	 0.190490325322082 
1280	 0.190519720704616 
1281	 0.190511774726972 
1282	 0.190515563285531 
1283	 0.19041981672427 
1284	 0.190437285542879 
1285	 0.19055210488878 
1286	 0.190606239729139 
1287	 0.190719239702126 
1288	 0.190735025124696 
1289	 0.190661041288229 
1290	 0.190614566298092 
1291	 0.190498773698814 
1292	 0.190441050012932 
1293	 0.190468856066644 
1294	 0.190424911674094 
1295	 0.19039835354069 
1296	 0.190293539335321 
1297	 0.190196752355516 
1298	 0.190049464385575 
1299	 0.189897197043875 
1300	 0.189724226347973 
1301	 0.189585229980907 
1302	 0.189438275839366 
1303	 0.189275039063057 
1304	 0.189162412841378 
1305	 0.18896363544765 
1306	 0.188639124553198 
1307	 0.188439953473207 
1308	 0.188328472028312 
1309	 0.188100513060311 
1310	 0.187874374020066 
1311	 0.187623666394455 
1312	 0.187277326070753 
1313	 0.186934017783376 
1314	 0.186588310622512 
1315	 0.186265262948366 
1316	 0.185918904546339 
1317	 0.185568461954926 
1318	 0.185268123966458 
1319	 0.184940411363579 
1320	 0.184624894909905 
1321	 0.184161264548914 
1322	 0.183817591374161 
1323	 0.183479387478703 
1324	 0.18319159534084 
1325	 0.182968668751841 
1326	 0.182693796971375 
1327	 0.182419618891072 
1328	 0.182157121925437 
1329	 0.181903590942492 
1330	 0.181577230565502 
1331	 0.181315182207422 
1332	 0.180886074715913 
1333	 0.180226174380501 
1334	 0.179737332705488 
1335	 0.17916174767741 
1336	 0.178761363003524 
1337	 0.178512674134635 
1338	 0.178298636479223 
1339	 0.17812721415981 
1340	 0.178091660699563 
1341	 0.178193368599826 
1342	 0.178371058528716 
1343	 0.178761772280432 
1344	 0.179246474786692 
1345	 0.179973854619577 
1346	 0.18089531143723 
1347	 0.181725347675821 
1348	 0.18288276065957 
1349	 0.184291593707422 
1350	 0.185901071071649 
1351	 0.188070113612792 
1352	 0.191849884421833 
1353	 0.195051020147708 
1354	 0.197768054100619 
1355	 0.201355033580964 
1356	 0.201287859796821 
1357	 0.205363114860543 
1358	 0.210840502942959 
1359	 0.219424795642582 
1360	 0.233747438847635 
1361	 0.24958796600378 
1362	 0.249939625770854 
1363	 0.257545831540792 
1364	 0.245332808660293 
1365	 0.243246775914635 
1366	 0.24745836567654 
1367	 0.244913385211626 
1368	 0.243933233310239 
1369	 0.239416797626716 
1370	 0.227861434982032 
1371	 0.224584155387125 
1372	 0.224809782830293 
1373	 0.224014125632924 
1374	 0.224160373206109 
1375	 0.22648996592866 
1376	 0.225284054673353 
1377	 0.221422481281872 
1378	 0.220405685631262 
1379	 0.220598814904023 
1380	 0.216980256163652 
1381	 0.212598059361931 
1382	 0.208561756417944 
1383	 0.201531358816512 
1384	 0.198255274487317 
1385	 0.198254764187275 
1386	 0.196267825267718 
1387	 0.194330543895521 
1388	 0.192464618314515 
1389	 0.191397826119031 
1390	 0.188853270195383 
1391	 0.186501844249043 
1392	 0.182819886743894 
1393	 0.176793443716046 
1394	 0.173000890044069 
1395	 0.169381324747398 
1396	 0.166581038051853 
1397	 0.166164105696537 
1398	 0.163558304149038 
1399	 0.15908390836169 
1400	 0.156274912621651 
1401	 0.153522548601966 
1402	 0.150902061146678 
1403	 0.150379460045888 
1404	 0.148246462728799 
1405	 0.144900970730114 
1406	 0.142539092993537 
1407	 0.139241780130285 
1408	 0.135972140690209 
1409	 0.133498645935343 
1410	 0.13016592632004 
1411	 0.127893935589942 
1412	 0.126093913083782 
1413	 0.12430249315836 
1414	 0.122710657758689 
1415	 0.121286678594008 
1416	 0.120110611346998 
1417	 0.118649095707686 
1418	 0.117288526975368 
1419	 0.115736400410458 
1420	 0.113662152956231 
1421	 0.112535105800502 
1422	 0.111788172314434 
1423	 0.110901836453932 
1424	 0.110271442859923 
1425	 0.109667594438765 
1426	 0.109037641557182 
1427	 0.108259259840472 
1428	 0.107442557617471 
1429	 0.106807437966317 
1430	 0.105957771196512 
1431	 0.10530227640471 
1432	 0.104749971685098 
1433	 0.104507877708152 
1434	 0.104639995376894 
1435	 0.104439768982928 
1436	 0.104558190928862 
1437	 0.104287931252037 
1438	 0.103196962559845 
1439	 0.10271933660237 
1440	 0.102657481854301 
1441	 0.102331001401977 
1442	 0.102085358942311 
1443	 0.101949374557535 
1444	 0.101414341481611 
1445	 0.100849536928996 
1446	 0.100581097377082 
1447	 0.1002063514824 
1448	 9.98351535734937E-02 
1449	 9.95189890375552E-02 
1450	 9.91542960500116E-02 
1451	 0.098698847239537 
1452	 9.83965020141785E-02 
1453	 9.81382115336189E-02 
1454	 9.78939594499606E-02 
1455	 9.76325234689771E-02 
1456	 9.75564030094751E-02 
1457	 9.75784778286931E-02 
1458	 9.75521538847508E-02 
1459	 9.75770331781752E-02 
1460	 9.77063543709902E-02 
1461	 0.097825362921412 
1462	 0.098002300420878 
1463	 9.83993924775473E-02 
1464	 9.86749310429531E-02 
1465	 9.88769502523873E-02 
1466	 9.91562150906283E-02 
1467	 9.95345444265135E-02 
1468	 0.099775534049417 
1469	 9.98627186281154E-02 
1470	 0.100090571056444 
1471	 0.100394663484999 
1472	 0.100555985133282 
1473	 0.100789622124322 
1474	 0.100868224975991 
1475	 0.100665978608851 
1476	 0.10059492697112 
1477	 0.10044950891163 
1478	 0.100487378519894 
1479	 0.100746528052109 
1480	 0.100824132510619 
1481	 0.10091320305837 
1482	 0.100974125783923 
1483	 0.100890305555594 
1484	 0.100871466162792 
1485	 0.100911859732885 
1486	 0.100947084789132 
1487	 0.101054121179783 
1488	 0.100981858932191 
1489	 0.10098912506066 
1490	 0.101038804132097 
1491	 0.101001127136357 
1492	 0.101060970969317 
1493	 0.101038460919655 
1494	 0.101047492984698 
1495	 0.101142886501007 
1496	 0.10128817256102 
1497	 0.101381384974175 
1498	 0.101524531731447 
1499	 0.101662753349486 
1500	 0.101754615538564 
1501	 0.101905743156143 
1502	 0.102096889265164 
1503	 0.102322110717702 
1504	 0.10258660456201 
1505	 0.102785175302357 
1506	 0.103017937187957 
1507	 0.103211845193819 
1508	 0.103281798382493 
1509	 0.103515323023007 
1510	 0.103830370003267 
1511	 0.104123187828355 
1512	 0.104508184499022 
1513	 0.104796972983804 
1514	 0.105020514322418 
1515	 0.105305401494004 
1516	 0.105602718407778 
1517	 0.105863901569428 
1518	 0.106126625164744 
1519	 0.10641005354716 
1520	 0.106687973624018 
1521	 0.106942637819379 
1522	 0.107248538126335 
1523	 0.107472983762604 
1524	 0.107567751624268 
1525	 0.107774423450373 
1526	 0.108006977812286 
1527	 0.108260664030915 
1528	 0.108616075787138 
1529	 0.108878905262361 
1530	 0.10907374860226 
1531	 0.109319344843934 
1532	 0.109509120631694 
1533	 0.10979894237896 
1534	 0.11023846578727 
1535	 0.110554950557807 
1536	 0.110867596561373 
1537	 0.111148492770193 
1538	 0.111319072423254 
1539	 0.111538629761407 
1540	 0.111800267111598 
1541	 0.112031189096672 
1542	 0.112229230078102 
1543	 0.11246076434062 
1544	 0.112726579860163 
1545	 0.11293885456018 
1546	 0.113068355512059 
1547	 0.11332045105417 
1548	 0.113638676397865 
1549	 0.113914484380878 
1550	 0.114336180310618 
1551	 0.114626314785578 
1552	 0.114705792392889 
1553	 0.11490820778781 
1554	 0.115124965714278 
1555	 0.115363216294827 
1556	 0.115722885025651 
1557	 0.116013915239739 
1558	 0.116268879903902 
1559	 0.116510275888761 
1560	 0.116696640224686 
1561	 0.116911834499691 
1562	 0.117170102704638 
1563	 0.117372870662157 
1564	 0.117582716402412 
1565	 0.117717274522814 
1566	 0.117868129233079 
1567	 0.118056337047519 
1568	 0.11828672377847 
1569	 0.118619445871507 
1570	 0.118797934632622 
1571	 0.118910196622597 
1572	 0.119120286336892 
1573	 0.119306633571336 
1574	 0.119483504909716 
1575	 0.119727154305119 
1576	 0.119933872653047 
1577	 0.120039297161608 
1578	 0.120280486843729 
1579	 0.120639583366303 
1580	 0.120873538553991 
1581	 0.121091338050928 
1582	 0.121288976761488 
1583	 0.121400200434888 
1584	 0.121645800191717 
1585	 0.121984669994929 
1586	 0.122178445880281 
1587	 0.122351752847505 
1588	 0.12257266136792 
1589	 0.122691089301366 
1590	 0.122951825125519 
1591	 0.123388808245104 
1592	 0.123642154970528 
1593	 0.12383872538014 
1594	 0.124056245510892 
1595	 0.124227781089094 
1596	 0.124395153658513 
1597	 0.124562146282222 
1598	 0.12475154265939 
1599	 0.12491676729752 
1600	 0.12510641085382 
1601	 0.125355517873562 
1602	 0.125532904736936 
1603	 0.125637932340566 
1604	 0.12584454676071 
1605	 0.126091887556699 
1606	 0.126305510542735 
1607	 0.126568188607689 
1608	 0.126769167352149 
1609	 0.126906010668985 
1610	 0.127068760240264 
1611	 0.127214887306056 
1612	 0.127407905452758 
1613	 0.12764221508948 
1614	 0.127803521203504 
1615	 0.127964377470012 
1616	 0.128111351858252 
1617	 0.128156172603556 
1618	 0.128340864743347 
1619	 0.128623585866656 
1620	 0.128847220257277 
1621	 0.129123242106546 
1622	 0.12929857486477 
1623	 0.129402320080985 
1624	 0.129527726843352 
1625	 0.129626771247609 
1626	 0.129726537349269 
1627	 0.129809060946708 
1628	 0.129942718694223 
1629	 0.130113876239842 
1630	 0.13020197407692 
1631	 0.1302582293052 
1632	 0.130389246070426 
1633	 0.130504661297134 
1634	 0.130610560980198 
1635	 0.130790703134181 
1636	 0.130938889143495 
1637	 0.131024142658691 
1638	 0.131109721750714 
1639	 0.131265420228185 
1640	 0.13129603520269 
1641	 0.13119279673252 
1642	 0.131194942392543 
1643	 0.131192403354426 
1644	 0.131237927671715 
1645	 0.131330138074069 
1646	 0.131431047517688 
1647	 0.131591161956696 
1648	 0.131633317816479 
1649	 0.131678696220306 
1650	 0.131604269355832 
1651	 0.131375903312168 
1652	 0.131260666057637 
1653	 0.131107715273486 
1654	 0.13105931267423 
1655	 0.131113675867162 
1656	 0.131091159837388 
1657	 0.131114831061199 
1658	 0.130979013541678 
1659	 0.130758257660845 
1660	 0.130672168641795 
1661	 0.130602292076349 
1662	 0.130553758200183 
1663	 0.130676074028273 
1664	 0.130749922964491 
1665	 0.130744097550994 
1666	 0.130682542452761 
1667	 0.130516502635418 
1668	 0.130410000236533 
1669	 0.130253383152188 
1670	 0.130094319284227 
1671	 0.130078032216117 
1672	 0.129930379399466 
1673	 0.129797983208482 
1674	 0.12987824883045 
1675	 0.129876682263354 
1676	 0.12977636067032 
1677	 0.129619388334034 
1678	 0.129331657163566 
1679	 0.129108896522575 
1680	 0.129127925851903 
1681	 0.129164621941985 
1682	 0.128978659256567 
1683	 0.128787473398633 
1684	 0.128584415173165 
1685	 0.128274224583277 
1686	 0.12817505588486 
1687	 0.128229223979936 
1688	 0.128159420935858 
1689	 0.12805864459343 
1690	 0.128046976702524 
1691	 0.127833319176059 
1692	 0.127299347911263 
1693	 0.127017092533134 
1694	 0.126768983150763 
1695	 0.126533990377398 
1696	 0.126565575783463 
1697	 0.126369493405106 
1698	 0.125949305563577 
1699	 0.125669865857983 
1700	 0.125346603396891 
1701	 0.1251132899544 
1702	 0.125046773762554 
1703	 0.124846655356563 
1704	 0.124547135533285 
1705	 0.124351590296363 
1706	 0.124305936980616 
1707	 0.123987920589201 
1708	 0.123511337615039 
1709	 0.123147530558335 
1710	 0.122557536808521 
1711	 0.122202489808604 
1712	 0.122137518523807 
1713	 0.121978483695748 
1714	 0.121928704582518 
1715	 0.121651619770706 
1716	 0.12117241344338 
1717	 0.120828587807581 
1718	 0.120368986024625 
1719	 0.120025535226116 
1720	 0.119876297461301 
1721	 0.119686441550347 
1722	 0.119477587487247 
1723	 0.11931049987118 
1724	 0.119216359170791 
1725	 0.119050357062131 
1726	 0.118782478980277 
1727	 0.118647118692696 
1728	 0.118571653414335 
1729	 0.118478245759819 
1730	 0.118481670904358 
1731	 0.11853099065206 
1732	 0.118448564303349 
1733	 0.118453402050802 
1734	 0.118556825473318 
1735	 0.118702409132205 
1736	 0.118989040376663 
1737	 0.119310484490158 
1738	 0.11941857831674 
1739	 0.119425430980005 
1740	 0.119311139316847 
1741	 0.119256865248716 
1742	 0.119252926850605 
1743	 0.119168764967781 
1744	 0.119190656635849 
1745	 0.119093345489976 
1746	 0.119133838941031 
1747	 0.119319734040929 
1748	 0.119248135009957 
1749	 0.119141182505518 
1750	 0.118945049473463 
1751	 0.118574248057715 
1752	 0.118363694443903 
1753	 0.118247883461391 
1754	 0.118095099516283 
1755	 0.118154303032457 
1756	 0.118175728417796 
1757	 0.118280504556283 
1758	 0.118266030516528 
1759	 0.118058097448583 
1760	 0.117985516041914 
1761	 0.117837708275141 
1762	 0.117800044551183 
1763	 0.117963073315323 
1764	 0.117989437685033 
1765	 0.118086348339711 
1766	 0.118099080091571 
1767	 0.117821306478034 
1768	 0.117910835301152 
1769	 0.118255570558611 
1770	 0.118277265661746 
1771	 0.118338548625748 
1772	 0.118513871409975 
1773	 0.118417992148399 
1774	 0.118902319809403 
1775	 0.119413520033225 
1776	 0.119338325319484 
1777	 0.119343797240276 
1778	 0.119677161736297 
1779	 0.119790973911054 
1780	 0.120122446121928 
1781	 0.120475680636829 
1782	 0.120534312455017 
1783	 0.120770262796157 
1784	 0.121246918634703 
1785	 0.121547927230736 
1786	 0.121778994678036 
1787	 0.122391052278048 
1788	 0.122613522884388 
1789	 0.123119345230424 
1790	 0.123905695755402 
1791	 0.12374635136242 
1792	 0.123720703046379 
1793	 0.12366579463167 
1794	 0.123547010940987 
1795	 0.124297290704818 
1796	 0.124981544598457 
1797	 0.125522244958995 
1798	 0.126537526031923 
1799	 0.127066841861513 
1800	 0.127493769908634 
1801	 0.128697386377667 
1802	 0.127588017043156 
1803	 0.128187096869363 
1804	 0.129524665719417 
1805	 0.130877876999498 
1806	 0.133459512744732 
1807	 0.135391014745763 
1808	 0.137456608229748 
1809	 0.139538226606035 
1810	 0.140551509484306 
1811	 0.140935692612308 
1812	 0.140588455488515 
1813	 0.136264270171559 
1814	 0.136700193789456 
1815	 0.141026233930992 
1816	 0.141981550260034 
1817	 0.144612585430351 
1818	 0.147013214619072 
1819	 0.148267387706927 
1820	 0.143323946914109 
1821	 0.144015775056049 
1822	 0.149708349569553 
1823	 0.152245427828935 
1824	 0.15310818241619 
1825	 0.156462250071409 
1826	 0.163444167777054 
1827	 0.168112449681328 
1828	 0.172753359692344 
1829	 0.179112039613817 
1830	 0.187797081595184 
1831	 0.192073295094946 
1832	 0.203337542166969 
1833	 0.230374877178341 
1834	 0.259606666919989 
1835	 0.296897797045645 
1836	 0.324985814795262 
1837	 0.321430380350963 
1838	 0.322215603462428 
1839	 0.308277550837965 
1840	 0.262677881155443 
1841	 0.227626531947803 
1842	 0.181367270769882 
1843	 0.171261144782307 
1844	 0.169374272701688 
1845	 0.169708624296936 
1846	 0.205325542736666 
1847	 0.220728619756257 
1848	 0.229123471820627 
1849	 0.223266799255484 
1850	 0.231286786235142 
1851	 0.231880469795638 
1852	 0.246947127498591 
1853	 0.295196824503751 
1854	 0.307223478040876 
1855	 0.317212931502704 
1856	 0.311108898732744 
1857	 0.277262025543768 
1858	 0.238899112403533 
1859	 0.235004875967996 
1860	 0.244993226058942 
1861	 0.243632804491221 
1862	 0.259217152602863 
1863	 0.253283506571124 
1864	 0.209520230061142 
1865	 0.19943850822596 
1866	 0.200038191567939 
1867	 0.200863281531838 
1868	 0.217573943463006 
1869	 0.268560663769805 
1870	 0.267049823937578 
1871	 0.233727771521952 
1872	 0.213313066708352 
1873	 0.179812418371711 
1874	 0.153354203711143 
1875	 0.130592577254461 
1876	 0.123807090663431 
1877	 0.124071781596553 
1878	 0.117648442959554 
1879	 0.133745761414637 
1880	 0.138100127748891 
1881	 0.14611513960464 
1882	 0.162063462679209 
1883	 0.16618011294107 
1884	 0.167405378995202 
1885	 0.167492565456265 
1886	 0.168377306190346 
1887	 0.155355271826469 
1888	 0.148733600744866 
1889	 0.143360142108863 
1890	 0.133735162378551 
1891	 0.115512646564838 
1892	 0.112312306637607 
1893	 0.112308957040242 
1894	 0.112539662721285 
1895	 0.128951267378588 
1896	 0.132763473561477 
1897	 0.129722059964063 
1898	 0.125003541011087 
1899	 0.106464543053602 
1900	 9.54284658977302E-02 
1901	 9.18014575220743E-02 
1902	 0.093456168306747 
1903	 0.103186947401037 
1904	 0.142949501617098 
1905	 0.164149012889372 
1906	 0.190400367088756 
1907	 0.188897175796557 
1908	 0.164256104377332 
1909	 0.142070110061447 
1910	 0.119439353734446 
1911	 9.55965407388031E-02 
1912	 8.93847592899636E-02 
1913	 9.56816460849666E-02 
1914	 9.17748247286488E-02 
1915	 8.95589276781594E-02 
1916	 8.69890458537916E-02 
1917	 8.19155317106155E-02 
1918	 7.50036377253479E-02 
1919	 8.05302238687826E-02 
1920	 8.85606922807931E-02 
1921	 9.35564068896478E-02 
1922	 9.93041934538774E-02 
1923	 9.73520277046794E-02 
1924	 8.42094160877517E-02 
1925	 8.21469823125949E-02 
1926	 8.33788143447187E-02 
1927	 8.19948986515143E-02 
1928	 8.29550833553524E-02 
1929	 8.54459156163877E-02 
1930	 7.91134774913298E-02 
1931	 7.31520373009638E-02 
1932	 0.074830723868113 
1933	 7.37910913749435E-02 
1934	 7.37476474439023E-02 
1935	 7.69696997017347E-02 
1936	 7.75548539866389E-02 
1937	 0.077653042839637 
1938	 7.64520144490573E-02 
1939	 7.42324406663691E-02 
1940	 7.27443877822275E-02 
1941	 7.10054171584169E-02 
1942	 0.067300950663008 
1943	 6.84895080013818E-02 
1944	 0.068674043091578 
1945	 6.74113312111658E-02 
1946	 6.84960758070168E-02 
1947	 6.82260983977623E-02 
1948	 6.64030523437569E-02 
1949	 6.58863642901767E-02 
1950	 6.58645875310891E-02 
1951	 6.55552142950691E-02 
1952	 6.58389264008092E-02 
1953	 6.65959746084315E-02 
1954	 6.79676457650423E-02 
1955	 6.92905742414563E-02 
1956	 0.069800565395004 
1957	 7.02057912991675E-02 
1958	 6.99270201618273E-02 
1959	 6.83571995053822E-02 
1960	 6.77176866522072E-02 
1961	 6.68538271840847E-02 
1962	 6.69620470715045E-02 
1963	 6.77934523918581E-02 
1964	 6.85517511635051E-02 
1965	 6.92953222486796E-02 
1966	 6.92615420646434E-02 
1967	 6.83146616247746E-02 
1968	 6.74359204466293E-02 
1969	 6.71551455902031E-02 
1970	 6.70413068186079E-02 
1971	 6.70269510697796E-02 
1972	 6.72746787993362E-02 
1973	 6.77234300421923E-02 
1974	 6.81838614410255E-02 
1975	 6.83319979593218E-02 
1976	 6.83440745886784E-02 
1977	 6.83480378579497E-02 
1978	 6.80495854374612E-02 
1979	 6.77634304946394E-02 
1980	 6.77838731405814E-02 
1981	 6.78422541262813E-02 
1982	 6.79121457031639E-02 
1983	 6.80156501131008E-02 
1984	 6.81677860939469E-02 
1985	 0.068150734534895 
1986	 0.068174407672922 
1987	 6.83820072872517E-02 
1988	 6.86400433274734E-02 
1989	 6.90583314636442E-02 
1990	 6.94536047115209E-02 
1991	 6.94396092394939E-02 
1992	 6.94317112800612E-02 
1993	 6.92665415214716E-02 
1994	 6.89130513248862E-02 
1995	 0.069017589652388 
1996	 0.069619681587696 
1997	 7.00781434073508E-02 
1998	 7.01836693192537E-02 
1999	 7.04310417441939E-02 
2000	 0.070130406537316 
2001	 6.99652226864618E-02 
2002	 7.02505265653653E-02 
2003	 7.05661053429424E-02 
2004	 7.15578756374746E-02 
2005	 7.19313421784075E-02 
2006	 7.21585841026139E-02 
2007	 7.23410339845838E-02 
2008	 7.25573326634324E-02 
2009	 7.18110623112242E-02 
2010	 7.12739336247086E-02 
2011	 0.071119057871734 
2012	 7.15625715918035E-02 
2013	 7.26445773375454E-02 
2014	 7.37754004026588E-02 
2015	 7.45788395819711E-02 
2016	 7.49324975892621E-02 
2017	 7.42680606417333E-02 
2018	 0.073545616665716 
2019	 7.34491631775564E-02 
2020	 7.33830063314694E-02 
2021	 7.35206466762611E-02 
2022	 7.44645944312161E-02 
2023	 7.50597677708839E-02 
2024	 7.45553527772366E-02 
2025	 7.42326183835044E-02 
2026	 7.37197208409648E-02 
2027	 0.072903987712699 
2028	 0.072631257358244 
2029	 7.23674384631865E-02 
2030	 7.23643751110439E-02 
2031	 7.27004043898278E-02 
2032	 7.26568903121586E-02 
2033	 7.26595235998265E-02 
2034	 7.25133069048045E-02 
2035	 7.18982004137615E-02 
2036	 7.11978955350916E-02 
2037	 0.071289624584965 
2038	 7.15543768063388E-02 
2039	 7.17829451669815E-02 
2040	 7.22390519947154E-02 
2041	 7.23440837311621E-02 
2042	 0.071967111216864 
2043	 7.14883527438403E-02 
2044	 7.11068846106202E-02 
2045	 7.09246027375478E-02 
2046	 7.06501831812489E-02 
2047	 7.09970128577224E-02 
2048	 7.16012180666486E-02 
2049	 7.15860385603808E-02 
2050	 7.16930117613119E-02 
2051	 7.15546773440413E-02 
2052	 7.08278425885945E-02 
2053	 7.05968248408831E-02 
2054	 7.07388117144746E-02 
2055	 7.07951693733544E-02 
2056	 7.10568153325472E-02 
2057	 7.18929005375697E-02 
2058	 0.072403796617869 
2059	 7.25171498731893E-02 
2060	 7.21339090503179E-02 
2061	 7.23834385856571E-02 
2062	 7.29777658753058E-02 
2063	 7.30442585525976E-02 
2064	 7.30955714798006E-02 
2065	 7.32937554012547E-02 
2066	 7.24256519947424E-02 
2067	 7.12732707325908E-02 
2068	 7.12750001641175E-02 
2069	 7.13519975729803E-02 
2070	 7.13364076316546E-02 
2071	 7.14728939501968E-02 
2072	 7.15489348224342E-02 
2073	 0.071507450955657 
2074	 0.071596566283982 
2075	 7.17626192194668E-02 
2076	 7.20504775862186E-02 
2077	 7.22002567243485E-02 
2078	 7.20658370283493E-02 
2079	 7.21228593524062E-02 
2080	 7.22108375524035E-02 
2081	 7.22137177329385E-02 
2082	 7.21204614045357E-02 
2083	 7.18421915451142E-02 
2084	 7.15120894852331E-02 
2085	 7.13129948507696E-02 
2086	 7.13487555580496E-02 
2087	 7.14922094849178E-02 
2088	 7.18000673058117E-02 
2089	 7.19130631698311E-02 
2090	 7.21084377679602E-02 
2091	 7.24771896354023E-02 
2092	 7.21698499584662E-02 
2093	 0.071912694151785 
2094	 7.22954168721411E-02 
2095	 7.21624716174121E-02 
2096	 7.22106835867437E-02 
2097	 0.072603850338853 
2098	 7.21375290824883E-02 
2099	 7.20127986512271E-02 
2100	 7.21965674962023E-02 
2101	 0.072058559861788 
2102	 7.20547326046395E-02 
2103	 7.23452582188159E-02 
2104	 7.23440927011516E-02 
2105	 7.19625949289261E-02 
2106	 7.18573781768072E-02 
2107	 7.19440065368544E-02 
2108	 7.19872532412851E-02 
2109	 7.24122867178981E-02 
2110	 7.27115340026273E-02 
2111	 7.25991055705745E-02 
2112	 7.24911789784724E-02 
2113	 7.22459852693732E-02 
2114	 7.21485677504362E-02 
2115	 7.26046592333431E-02 
2116	 0.073365180627041 
2117	 7.37662706360804E-02 
2118	 0.074340875501678 
2119	 7.43878933192248E-02 
2120	 7.39925437351107E-02 
2121	 7.33717335301385E-02 
2122	 7.31064581838749E-02 
2123	 7.31931815377596E-02 
2124	 7.36428461033145E-02 
2125	 7.42492227813027E-02 
2126	 7.45776229882669E-02 
2127	 0.074495461706005 
2128	 7.47386182109645E-02 
2129	 7.48626388480845E-02 
2130	 7.43948240126461E-02 
2131	 7.43529462971796E-02 
2132	 7.41175217162435E-02 
2133	 7.36052139223089E-02 
2134	 7.35487145190258E-02 
2135	 7.39736701008134E-02 
2136	 0.074278819389437 
2137	 7.43820501225208E-02 
2138	 0.074811553678238 
2139	 7.51188820006021E-02 
2140	 7.50898422650367E-02 
2141	 7.50916447762581E-02 
2142	 7.51226471341936E-02 
2143	 0.074874280120448 
2144	 7.46387867519453E-02 
2145	 7.47256073704083E-02 
2146	 7.45160439336361E-02 
2147	 7.43706918713947E-02 
2148	 7.47474926183555E-02 
2149	 7.49951556788507E-02 
2150	 7.52502556843838E-02 
2151	 7.52744712270021E-02 
2152	 7.49622935208652E-02 
2153	 7.48033027831905E-02 
2154	 7.45766310710648E-02 
2155	 7.42546777327992E-02 
2156	 7.42359905227323E-02 
2157	 7.46559965548641E-02 
2158	 7.48299597717792E-02 
2159	 7.51176933251659E-02 
2160	 7.55903383029422E-02 
2161	 0.075259424291632 
2162	 7.43500904734326E-02 
2163	 7.43184048489222E-02 
2164	 7.46368075378741E-02 
2165	 7.49457759922189E-02 
2166	 0.076166280141884 
2167	 7.70352130389818E-02 
2168	 7.74247769055416E-02 
2169	 7.73998093434625E-02 
2170	 7.73585453406831E-02 
2171	 0.076999366190911 
2172	 0.076548701061613 
2173	 7.61773969599379E-02 
2174	 0.075854427123788 
2175	 7.58415996890694E-02 
2176	 7.61150967953158E-02 
2177	 7.64006582146015E-02 
2178	 0.076511864551168 
2179	 7.69786309651493E-02 
2180	 7.69073445982509E-02 
2181	 7.66471516827329E-02 
2182	 7.70432241596103E-02 
2183	 7.71473546538487E-02 
2184	 7.74829689254859E-02 
2185	 7.76358747410531E-02 
2186	 7.72872201441562E-02 
2187	 7.72654182206523E-02 
2188	 0.077273060233375 
2189	 7.71116678659319E-02 
2190	 7.69394623431109E-02 
2191	 7.70460293283724E-02 
2192	 7.71632135740331E-02 
2193	 7.72610092145379E-02 
2194	 7.78331993638639E-02 
2195	 7.84297631337241E-02 
2196	 7.86206176285876E-02 
2197	 7.88474843166317E-02 
2198	 7.92408239726019E-02 
2199	 7.94833953419251E-02 
2200	 8.02423359540348E-02 
2201	 8.04151853839255E-02 
2202	 7.96296508362794E-02 
2203	 7.94324999356817E-02 
2204	 7.86208527848904E-02 
2205	 0.077797614059782 
2206	 0.077965434353823 
2207	 7.80735879857668E-02 
2208	 7.82998105454839E-02 
2209	 7.90485765153229E-02 
2210	 7.91256028656123E-02 
2211	 7.88223603477233E-02 
2212	 7.89672956825219E-02 
2213	 7.89586947110435E-02 
2214	 7.94512526525502E-02 
2215	 8.05076610280256E-02 
2216	 8.07333306671745E-02 
2217	 0.080415126075167 
2218	 8.04907000992832E-02 
2219	 8.05031488013223E-02 
2220	 8.07274327160634E-02 
2221	 8.17053231847836E-02 
2222	 8.17168305217988E-02 
2223	 8.10149254180952E-02 
2224	 8.09247480758194E-02 
2225	 8.05161946417862E-02 
2226	 8.00917894481933E-02 
2227	 0.080525385194565 
2228	 8.04133754928175E-02 
2229	 8.00642864437977E-02 
2230	 8.00679236497132E-02 
2231	 7.97642689317303E-02 
2232	 7.91854970676777E-02 
2233	 0.078624957403419 
2234	 7.77190974682759E-02 
2235	 7.74999348992774E-02 
2236	 0.077921485635742 
2237	 7.80505554129612E-02 
2238	 7.82292732823059E-02 
2239	 7.78894696862534E-02 
2240	 7.67351615641742E-02 
2241	 7.60643418353009E-02 
2242	 0.076140459802428 
2243	 7.62193319060215E-02 
2244	 7.61646304329712E-02 
2245	 7.58168308794578E-02 
2246	 7.51545900822055E-02 
2247	 7.43105462600451E-02 
2248	 7.36449251740985E-02 
2249	 7.34193212201548E-02 
2250	 7.30170411733665E-02 
2251	 7.23857098053739E-02 
2252	 7.19581729310741E-02 
2253	 7.09870570364736E-02 
2254	 7.00784440285252E-02 
2255	 7.01943339946736E-02 
2256	 7.00491668536146E-02 
2257	 6.98851387120957E-02 
2258	 0.069607564973479 
2259	 6.93989743425641E-02 
2260	 6.88754481562364E-02 
2261	 6.86912150357709E-02 
2262	 6.90476925592196E-02 
2263	 6.92359608861448E-02 
2264	 6.87081481209405E-02 
2265	 6.82776649655319E-02 
2266	 6.79856843102279E-02 
2267	 6.82358160667137E-02 
2268	 0.069405833101829 
2269	 6.96881269353985E-02 
2270	 6.94108270849186E-02 
2271	 6.94410440206383E-02 
2272	 6.93317017685556E-02 
2273	 6.92089958043763E-02 
2274	 6.89528558836818E-02 
2275	 6.82226058053425E-02 
2276	 6.79763240075159E-02 
2277	 6.83218273515783E-02 
2278	 6.83876210180002E-02 
2279	 6.81876010120199E-02 
2280	 6.70775252972546E-02 
2281	 6.54573718780829E-02 
2282	 6.43256880866431E-02 
2283	 6.39880394522066E-02 
2284	 6.40511406600592E-02 
2285	 6.40122155938709E-02 
2286	 6.42058009634319E-02 
2287	 6.46512622845106E-02 
2288	 6.49896265985318E-02 
2289	 6.52644969169253E-02 
2290	 6.54431493449398E-02 
2291	 6.48157053482676E-02 
2292	 6.40714614354693E-02 
2293	 6.36617092863102E-02 
2294	 6.27933921094491E-02 
2295	 6.28711050442785E-02 
2296	 6.38906416903351E-02 
2297	 6.36453588675305E-02 
2298	 6.35560885330546E-02 
2299	 6.38476908602599E-02 
2300	 6.26835646208986E-02 
2301	 6.09686497788213E-02 
2302	 5.98198814089023E-02 
2303	 5.91713741816461E-02 
2304	 5.86824006960892E-02 
2305	 5.93566211580586E-02 
2306	 6.03480208154739E-02 
2307	 6.05718276002804E-02 
2308	 6.11618820628576E-02 
2309	 0.060848824267992 
2310	 6.10499082703483E-02 
2311	 6.20386245849931E-02 
2312	 6.19609146427606E-02 
2313	 6.20727383099737E-02 
2314	 6.14388376015089E-02 
2315	 5.98822087207314E-02 
2316	 5.88557170833883E-02 
2317	 5.85727080004017E-02 
2318	 0.058915361823683 
2319	 5.89917857720353E-02 
2320	 5.94621533015996E-02 
2321	 5.98828120933554E-02 
2322	 5.95566191703669E-02 
2323	 0.059617440036721 
2324	 6.04376968927107E-02 
2325	 6.06790663159236E-02 
2326	 5.95081779445463E-02 
2327	 6.04904059178142E-02 
2328	 6.08160526606128E-02 
2329	 6.04200586429313E-02 
2330	 6.10399216207307E-02 
2331	 6.05116726358458E-02 
2332	 6.01290172355946E-02 
2333	 6.13275779841598E-02 
2334	 6.16061309918502E-02 
2335	 6.06847444450438E-02 
2336	 5.97045778471433E-02 
2337	 5.74231130353535E-02 
2338	 5.58251350874104E-02 
2339	 0.056749285852144 
2340	 5.75040111811663E-02 
2341	 5.75961093877356E-02 
2342	 0.057398106506986 
2343	 5.68412178861354E-02 
2344	 5.68978873404792E-02 
2345	 5.61740576492254E-02 
2346	 5.71467629969811E-02 
2347	 5.79849727624353E-02 
2348	 5.60373141287128E-02 
2349	 5.72906224319766E-02 
2350	 5.74764557726597E-02 
2351	 0.056991699761377 
2352	 5.93581938185425E-02 
2353	 5.93278998807232E-02 
2354	 5.93603405596524E-02 
2355	 5.90649757630773E-02 
2356	 5.73949500074196E-02 
2357	 0.057655448158255 
2358	 0.058127313301127 
2359	 5.81445796075145E-02 
2360	 5.82969699302867E-02 
2361	 5.76825553961775E-02 
2362	 5.77823021686603E-02 
2363	 5.92128864483708E-02 
2364	 6.01274376670231E-02 
2365	 5.98719670058217E-02 
2366	 5.90460173015918E-02 
2367	 5.78345535028744E-02 
2368	 5.74568868590429E-02 
2369	 5.84155918602451E-02 
2370	 5.74031217674484E-02 
2371	 5.48334495102839E-02 
2372	 0.054947822173477 
2373	 5.63294456142617E-02 
2374	 5.75282094616518E-02 
2375	 6.17079928681553E-02 
2376	 6.35359471573533E-02 
2377	 6.34002718402365E-02 
2378	 6.30550793141195E-02 
2379	 6.17185539963529E-02 
2380	 6.17172373983339E-02 
2381	 6.13317386483995E-02 
2382	 6.09285724675764E-02 
2383	 6.26654227858421E-02 
2384	 6.18098311016228E-02 
2385	 5.84394913261352E-02 
2386	 5.71907960245738E-02 
2387	 5.52034913012575E-02 
2388	 0.055679160801853 
2389	 5.89034980555569E-02 
2390	 6.08332895332032E-02 
2391	 6.39113680635695E-02 
2392	 6.45229422912961E-02 
2393	 6.31814593400085E-02 
2394	 6.25248272836697E-02 
2395	 6.10349901196094E-02 
2396	 5.99794236833256E-02 
2397	 5.92360074908182E-02 
2398	 5.82864790191271E-02 
2399	 5.75475510850037E-02 
2400	 0.057200469944607 
2401	 5.59300864143234E-02 
2402	 5.73862952672546E-02 
2403	 5.97494567506147E-02 
2404	 5.99661424877773E-02 
2405	 6.30948047511951E-02 
2406	 6.27993893247762E-02 
2407	 6.20744272937245E-02 
2408	 6.09256700778584E-02 
2409	 5.78208100813236E-02 
2410	 5.81143168200574E-02 
2411	 5.56729017105741E-02 
2412	 5.43019033210751E-02 
2413	 0.057218464072753 
2414	 5.81871986396407E-02 
2415	 6.07328043824731E-02 
2416	 0.062763279416881 
2417	 5.89146904319567E-02 
2418	 5.42996652612365E-02 
2419	 5.08316233942265E-02 
2420	 5.10161903168256E-02 
2421	 5.60995958197656E-02 
2422	 5.77959545497554E-02 
2423	 6.00535011913392E-02 
2424	 6.17923563982046E-02 
2425	 5.73583683327087E-02 
2426	 5.53311386767725E-02 
2427	 5.24527517521692E-02 
2428	 4.73244188135263E-02 
2429	 4.81888775663619E-02 
2430	 5.27382100117111E-02 
2431	 5.73174846677391E-02 
2432	 6.10549261484286E-02 
2433	 0.059114092134286 
2434	 5.82494755986021E-02 
2435	 5.67136739066775E-02 
2436	 5.53463349099143E-02 
2437	 5.12042542865281E-02 
2438	 5.27821495581723E-02 
2439	 6.10548112344967E-02 
2440	 6.38727982424029E-02 
2441	 7.02868573136191E-02 
2442	 6.99333875495627E-02 
2443	 5.65112729350029E-02 
2444	 5.15134481098285E-02 
2445	 0.047198561387762 
2446	 4.74840560531077E-02 
2447	 5.69717780066721E-02 
2448	 5.89575440651453E-02 
2449	 6.18995523267126E-02 
2450	 6.14933230574156E-02 
2451	 5.07541919646635E-02 
2452	 5.15609053285664E-02 
2453	 6.23549345063457E-02 
2454	 6.32164411094984E-02 
2455	 6.46632407331781E-02 
2456	 6.25957061781001E-02 
2457	 4.54801149019093E-02 
2458	 4.24815512648008E-02 
2459	 0.051124871774821 
2460	 5.26977340771714E-02 
2461	 5.77779300891429E-02 
2462	 0.061191393321473 
2463	 0.05895300143434 
2464	 5.76855219817266E-02 
2465	 5.82102472709726E-02 
2466	 5.87755365966645E-02 
2467	 5.59602925057193E-02 
2468	 5.52377696113345E-02 
2469	 5.73208791578897E-02 
2470	 5.70970517504738E-02 
2471	 5.79429876476506E-02 
2472	 5.61988232676051E-02 
2473	 5.42304514562118E-02 
2474	 5.20727059671911E-02 
2475	 4.27209301059173E-02 
2476	 3.88854540501589E-02 
2477	 3.36089038005871E-02 
2478	 3.90767450139214E-02 
2479	 0.055443255961961 
2480	 6.79783975720725E-02 
2481	 0.101103861299766 
2482	 0.115177834757279 
2483	 0.119997614818634 
2484	 0.109274144716445 
2485	 6.03471085681601E-02 
2486	 5.11279308010539E-02 
2487	 3.37478984480548E-02 
2488	 0.073240959357712 
2489	 0.115497934796078 
2490	 0.108585435373479 
2491	 9.16868248126165E-02 
2492	 7.91246756027228E-02 
2493	 6.73807500154896E-02 
2494	 9.57291086462174E-02 
2495	 0.135259304035917 
2496	 0.149584214827417 
2497	 0.133994964263245 
2498	 8.54626529602173E-02 
2499	 6.18861167775742E-02 
2500	 7.65298797451405E-02 
