Wavelength	ref00071.asd
350	 2.70702936391562E-02 
351	 2.70525739657844E-02 
352	 2.64859528765883E-02 
353	 2.73674308102152E-02 
354	 2.70912746267227E-02 
355	 2.65453540116231E-02 
356	 2.65269038933794E-02 
357	 2.63583617644816E-02 
358	 0.025884030432968 
359	 2.56603860969525E-02 
360	 0.026122035252682 
361	 2.62940394908603E-02 
362	 2.60052023200567E-02 
363	 2.58707129988053E-02 
364	 2.67077769497058E-02 
365	 2.63317743780595E-02 
366	 2.57560917987765E-02 
367	 2.56546162728597E-02 
368	 2.56639659654339E-02 
369	 0.0261025825817 
370	 2.62464584026357E-02 
371	 2.57114308095864E-02 
372	 2.58684876008113E-02 
373	 2.57129023492797E-02 
374	 2.55382887783173E-02 
375	 2.60778512882388E-02 
376	 2.59893465346798E-02 
377	 2.58137258808683E-02 
378	 2.59711525438181E-02 
379	 0.026498925881958 
380	 2.60052563821514E-02 
381	 2.55978280426317E-02 
382	 2.60594133882954E-02 
383	 2.57731878606807E-02 
384	 2.57162379545942E-02 
385	 2.59498264909696E-02 
386	 2.61690640682397E-02 
387	 2.64837076005198E-02 
388	 2.68347879012063E-02 
389	 2.70840314980747E-02 
390	 2.70532434635372E-02 
391	 0.027135307438606 
392	 0.027194652410812 
393	 2.71480339835562E-02 
394	 2.72200393619353E-02 
395	 2.76811339369024E-02 
396	 0.028046527252995 
397	 2.79051968760157E-02 
398	 2.86443486480506E-02 
399	 2.92895895981507E-02 
400	 2.95855056120365E-02 
401	 2.99579899998609E-02 
402	 3.02394130378588E-02 
403	 3.02536836788114E-02 
404	 3.01303282317118E-02 
405	 3.06609026304241E-02 
406	 3.09105629931505E-02 
407	 0.030910004538808 
408	 3.10252457132133E-02 
409	 3.14692264817516E-02 
410	 3.19564797712244E-02 
411	 3.24271801623788E-02 
412	 3.30044100886219E-02 
413	 3.30798772786512E-02 
414	 3.31482439894403E-02 
415	 3.35200155178436E-02 
416	 3.37509609453012E-02 
417	 3.41161325575697E-02 
418	 3.44847866435397E-02 
419	 3.46642754102664E-02 
420	 3.48386179713361E-02 
421	 3.51427427035187E-02 
422	 3.55365626639255E-02 
423	 3.58300796065741E-02 
424	 3.59408916782666E-02 
425	 3.59596135411328E-02 
426	 3.60072929191817E-02 
427	 0.036199929500002 
428	 3.64008233243521E-02 
429	 3.65473586444818E-02 
430	 3.66305424587589E-02 
431	 3.67262169736726E-02 
432	 3.70171237119369E-02 
433	 3.73637496309168E-02 
434	 3.73989407277738E-02 
435	 0.037730095634941 
436	 3.79378196174886E-02 
437	 3.78452859918515E-02 
438	 3.81180958923164E-02 
439	 3.83466541276875E-02 
440	 3.84475182376337E-02 
441	 3.85104502418883E-02 
442	 3.89130451176827E-02 
443	 3.92978082335115E-02 
444	 3.95399937604819E-02 
445	 3.97822775325148E-02 
446	 4.01726964570361E-02 
447	 4.05813611264179E-02 
448	 0.040920438263396 
449	 4.13437882418725E-02 
450	 4.17165399909085E-02 
451	 4.20114655393729E-02 
452	 4.22656446167048E-02 
453	 4.26027844572262E-02 
454	 4.28778599679107E-02 
455	 4.30678549004623E-02 
456	 4.33143192915834E-02 
457	 4.36116607859293E-02 
458	 0.043826432828087 
459	 0.043902535092544 
460	 4.41029390991111E-02 
461	 4.42384130946676E-02 
462	 4.42896889815272E-02 
463	 0.044335928378197 
464	 4.44309179820039E-02 
465	 4.45212275678447E-02 
466	 0.044577380247852 
467	 4.46225577485452E-02 
468	 4.47326571672611E-02 
469	 4.48495944536221E-02 
470	 4.49160604189908E-02 
471	 4.50393868061142E-02 
472	 4.51466451091774E-02 
473	 4.52537686908875E-02 
474	 4.54268101644664E-02 
475	 4.55229658947199E-02 
476	 4.56248306972661E-02 
477	 4.57616053817702E-02 
478	 4.57895693645402E-02 
479	 4.59846584115071E-02 
480	 4.62088858816229E-02 
481	 4.62685142266768E-02 
482	 4.64700438453235E-02 
483	 4.66315073396664E-02 
484	 4.66866263097566E-02 
485	 4.67159423770062E-02 
486	 4.69532415910026E-02 
487	 4.72588276003481E-02 
488	 4.75077445714388E-02 
489	 0.047827055903422 
490	 4.82015556099116E-02 
491	 4.85917749553554E-02 
492	 4.89716184088731E-02 
493	 4.94572339769506E-02 
494	 5.00154134556796E-02 
495	 5.06431991486998E-02 
496	 5.13872367668855E-02 
497	 5.20150637467717E-02 
498	 5.26986298531799E-02 
499	 5.36154382901041E-02 
500	 5.46122249189321E-02 
501	 5.57070371578403E-02 
502	 5.69094781129952E-02 
503	 5.82226775356417E-02 
504	 5.96174660450026E-02 
505	 6.10927625063983E-02 
506	 6.26461038989439E-02 
507	 0.064261646142286 
508	 6.60240379788556E-02 
509	 6.79108097230474E-02 
510	 6.98899641571328E-02 
511	 7.20513762239004E-02 
512	 7.43685502852304E-02 
513	 7.67837502998656E-02 
514	 0.079232121531389 
515	 8.18568994400911E-02 
516	 8.46149706225905E-02 
517	 8.74566573463465E-02 
518	 9.04276106776929E-02 
519	 0.0936507946505 
520	 9.69341506369758E-02 
521	 0.100008071047665 
522	 0.102896988372377 
523	 0.105862950750724 
524	 0.108883332522904 
525	 0.111573314851495 
526	 0.114280593773744 
527	 0.117003980658544 
528	 0.119653608721901 
529	 0.122121607701166 
530	 0.12439622449916 
531	 0.12640204839919 
532	 0.12808373425995 
533	 0.129789098063939 
534	 0.131546953718949 
535	 0.133250772451334 
536	 0.134664131276279 
537	 0.135912225757461 
538	 0.137062897967734 
539	 0.138148672005407 
540	 0.13909869488869 
541	 0.140115141561388 
542	 0.141176930205635 
543	 0.142077880077507 
544	 0.143034350656774 
545	 0.143933740527421 
546	 0.144700611396113 
547	 0.145444237344852 
548	 0.146311147414445 
549	 0.147102087053641 
550	 0.147552063395656 
551	 0.148028138603546 
552	 0.148386448377831 
553	 0.148538149639234 
554	 0.148506089396927 
555	 0.148369767710108 
556	 0.148133256754229 
557	 0.147731713995913 
558	 0.146924718831352 
559	 0.146133142402679 
560	 0.145356853682046 
561	 0.144326189433335 
562	 0.143171507995744 
563	 0.14184457151884 
564	 0.140385127286927 
565	 0.139048247138394 
566	 0.13748719300065 
567	 0.135853673626457 
568	 0.13433407541147 
569	 0.132445854500298 
570	 0.130432333458042 
571	 0.128487386674183 
572	 0.126706409109295 
573	 0.124972504964455 
574	 0.123325431750727 
575	 0.12179853454515 
576	 0.120371340904592 
577	 0.119123758493525 
578	 0.118016389510523 
579	 0.116952874251565 
580	 0.115963046311284 
581	 0.114914442867847 
582	 0.113805392848527 
583	 0.112815825853174 
584	 0.11180903924881 
585	 0.110819106605689 
586	 0.10991175580676 
587	 0.109091032511942 
588	 0.108246445924122 
589	 0.107378472727285 
590	 0.106589176048668 
591	 0.105884388421382 
592	 0.105283037376218 
593	 0.104763347971896 
594	 0.104276113471415 
595	 0.103858560476569 
596	 0.103465849401139 
597	 0.103046326453405 
598	 0.10265851882913 
599	 0.102383437226847 
600	 0.102171162207419 
601	 0.101844793806726 
602	 0.101374604630821 
603	 0.100805629160587 
604	 0.100189989043415 
605	 9.95441497041867E-02 
606	 0.098743693488185 
607	 9.78252918679258E-02 
608	 0.096897849167814 
609	 0.095894351988559 
610	 9.48334782818854E-02 
611	 9.37497998613449E-02 
612	 9.26805700505643E-02 
613	 9.16168908029486E-02 
614	 9.05539703194905E-02 
615	 8.95058026242654E-02 
616	 0.088530818642302 
617	 8.75977208099816E-02 
618	 8.67400424468977E-02 
619	 8.60091168016209E-02 
620	 0.08530558052491 
621	 8.47351173492983E-02 
622	 8.43140974981218E-02 
623	 8.38276054194165E-02 
624	 8.34582290860014E-02 
625	 8.32066362620118E-02 
626	 8.30105314209877E-02 
627	 0.082837549525733 
628	 0.082778276965288 
629	 8.27653834242293E-02 
630	 8.25884026999137E-02 
631	 8.24302872014575E-02 
632	 8.22629041417534E-02 
633	 8.20195308408957E-02 
634	 8.16410222342776E-02 
635	 8.11622052542892E-02 
636	 8.05371462382596E-02 
637	 7.97166056998971E-02 
638	 7.88562914150701E-02 
639	 7.78363745276231E-02 
640	 7.66643876727201E-02 
641	 7.55642989262579E-02 
642	 7.42764532119406E-02 
643	 7.29283984564106E-02 
644	 7.16549989559638E-02 
645	 7.03259358521596E-02 
646	 6.90819945958078E-02 
647	 6.79023093199976E-02 
648	 6.67052034512446E-02 
649	 6.58560797406789E-02 
650	 6.51190732770536E-02 
651	 6.43889821522909E-02 
652	 6.38486476927297E-02 
653	 6.35116069400464E-02 
654	 6.31061030166647E-02 
655	 6.23942680230038E-02 
656	 6.17868834968738E-02 
657	 6.10009545405811E-02 
658	 6.00788329378457E-02 
659	 5.91718265280445E-02 
660	 5.82072688444685E-02 
661	 5.71597957943247E-02 
662	 5.60785453194055E-02 
663	 0.055072645294864 
664	 5.41113815178287E-02 
665	 5.31604502724908E-02 
666	 5.22320765779637E-02 
667	 5.16439634921992E-02 
668	 5.09181276681971E-02 
669	 5.01755303842044E-02 
670	 0.050043034469837 
671	 4.97906663075153E-02 
672	 4.95545651037769E-02 
673	 4.94857622170561E-02 
674	 4.93758028210694E-02 
675	 4.94422552268622E-02 
676	 4.96416795230213E-02 
677	 4.98716827072377E-02 
678	 5.03363898597487E-02 
679	 5.08489414559391E-02 
680	 5.14147855963694E-02 
681	 5.22556436585921E-02 
682	 5.33358068717606E-02 
683	 5.46766545022068E-02 
684	 5.63109755711772E-02 
685	 5.82527173034501E-02 
686	 0.060767760266721 
687	 6.40063856207695E-02 
688	 6.76760056528524E-02 
689	 7.13035278247477E-02 
690	 7.55141219228761E-02 
691	 8.07057472108828E-02 
692	 8.66092533003171E-02 
693	 9.32836767481406E-02 
694	 0.100760123485711 
695	 0.10888936866297 
696	 0.117280251384861 
697	 0.126036769228396 
698	 0.135270110446159 
699	 0.144979999752456 
700	 0.154776888481755 
701	 0.164673958963092 
702	 0.174607522396856 
703	 0.184360255885232 
704	 0.19380947079245 
705	 0.203081948610433 
706	 0.212316634877252 
707	 0.221195694434796 
708	 0.230168193478188 
709	 0.239133409096021 
710	 0.247742715672108 
711	 0.256401309597486 
712	 0.26502656968948 
713	 0.273597625157886 
714	 0.282215162760809 
715	 0.290818667505308 
716	 0.299600899216015 
717	 0.308846283043321 
718	 0.318085508011698 
719	 0.326779643707531 
720	 0.334545206154072 
721	 0.341547583110238 
722	 0.348337430772605 
723	 0.355552054375724 
724	 0.363416493176462 
725	 0.370771794063216 
726	 0.377355261508689 
727	 0.383481787788209 
728	 0.389584524268736 
729	 0.395478136100939 
730	 0.400932392587668 
731	 0.405918001219646 
732	 0.410507878996737 
733	 0.414474694801992 
734	 0.418458145392639 
735	 0.422597208686444 
736	 0.426448191081678 
737	 0.430058053054097 
738	 0.433404382664097 
739	 0.43650563949001 
740	 0.439305898430511 
741	 0.441994840586583 
742	 0.444516864869627 
743	 0.446747557097368 
744	 0.448777837519723 
745	 0.450688625662808 
746	 0.452472883332782 
747	 0.454062958608306 
748	 0.455535208300472 
749	 0.456886204746174 
750	 0.458111444407626 
751	 0.459221507322145 
752	 0.460235657021511 
753	 0.461104770142073 
754	 0.461838284302138 
755	 0.46270577072521 
756	 0.463462821541145 
757	 0.464339990052896 
758	 0.465701903118778 
759	 0.466203970069193 
760	 0.466550440075967 
761	 0.467419451444074 
762	 0.468373091208356 
763	 0.467994140012985 
764	 0.467391023954957 
765	 0.46730186341718 
766	 0.467058786987097 
767	 0.46720067982506 
768	 0.467426274939706 
769	 0.467364678630268 
770	 0.467401785594918 
771	 0.467503528701616 
772	 0.467605483812607 
773	 0.467647579120804 
774	 0.46780183526086 
775	 0.467936366896843 
776	 0.468009806785586 
777	 0.468217948020009 
778	 0.4682640008434 
779	 0.468316952835622 
780	 0.468555458929992 
781	 0.468735594353775 
782	 0.468792858258604 
783	 0.468833019632552 
784	 0.469017780811056 
785	 0.469163770161029 
786	 0.469418036747241 
787	 0.469791423725503 
788	 0.47012775223845 
789	 0.470518127058493 
790	 0.470801146487095 
791	 0.470898767502831 
792	 0.470996131115303 
793	 0.470978152627835 
794	 0.470996434599408 
795	 0.471224503297716 
796	 0.471606224698589 
797	 0.471848902086639 
798	 0.472025435276759 
799	 0.472367424900396 
800	 0.472471834698723 
801	 0.472616095306105 
802	 0.472875367587549 
803	 0.473030541541943 
804	 0.4731606011362 
805	 0.473375656659829 
806	 0.473652649502711 
807	 0.473676791057592 
808	 0.473825691344601 
809	 0.474113422514213 
810	 0.4745374896447 
811	 0.475572623808336 
812	 0.47625310298421 
813	 0.47679450371046 
814	 0.477932513037029 
815	 0.478481966468323 
816	 0.478807134423729 
817	 0.479085227901991 
818	 0.47914655664628 
819	 0.479072709240423 
820	 0.479125393318083 
821	 0.479281042069968 
822	 0.479001909082403 
823	 0.47901333422908 
824	 0.47946537598591 
825	 0.480053471253308 
826	 0.47978035150431 
827	 0.479471386409764 
828	 0.479486084461752 
829	 0.479847733467795 
830	 0.479930026941885 
831	 0.479941818823389 
832	 0.479904366970347 
833	 0.479726009321165 
834	 0.479878296743333 
835	 0.479979016676363 
836	 0.479924270544387 
837	 0.480039122303861 
838	 0.480034153235055 
839	 0.479992410806137 
840	 0.480010178497989 
841	 0.480062787702348 
842	 0.480222803262936 
843	 0.480357624001604 
844	 0.480379780646941 
845	 0.48053982693877 
846	 0.480806047049588 
847	 0.481086605589695 
848	 0.481243932886423 
849	 0.481030107729451 
850	 0.481260315935597 
851	 0.481818850650161 
852	 0.481893646561897 
853	 0.481518231830095 
854	 0.481219268606825 
855	 0.481569111873682 
856	 0.482912683693748 
857	 0.483486500516224 
858	 0.483349860490804 
859	 0.48302294571398 
860	 0.483156639186239 
861	 0.48364490910581 
862	 0.484032208507618 
863	 0.483976819311084 
864	 0.483652777336437 
865	 0.483466124572217 
866	 0.483494412191545 
867	 0.483777554840279 
868	 0.484826931270628 
869	 0.485432473425868 
870	 0.485396589249286 
871	 0.485160784105516 
872	 0.485376781333705 
873	 0.485549459462646 
874	 0.485595425503527 
875	 0.485746653490941 
876	 0.485907072791472 
877	 0.485960346998242 
878	 0.486041836608507 
879	 0.486441779312672 
880	 0.486229578695796 
881	 0.486297699530494 
882	 0.486931479599065 
883	 0.487248964186784 
884	 0.487234569554904 
885	 0.487192993615524 
886	 0.487302311415004 
887	 0.487350121609014 
888	 0.487932424713445 
889	 0.488389547648416 
890	 0.48831806989912 
891	 0.488763296568586 
892	 0.489447776633756 
893	 0.490032036547304 
894	 0.490315491795812 
895	 0.49078098165046 
896	 0.490797068345738 
897	 0.490820525332209 
898	 0.49153049897017 
899	 0.492308882271158 
900	 0.492298589062432 
901	 0.492179615345609 
902	 0.493119803705316 
903	 0.494352117035239 
904	 0.494615305109334 
905	 0.494019264191677 
906	 0.493493286882536 
907	 0.492817101864329 
908	 0.493072032956431 
909	 0.494010183437972 
910	 0.494349857807166 
911	 0.495001115820972 
912	 0.495656374466377 
913	 0.495866669722107 
914	 0.495344228392098 
915	 0.495210280886521 
916	 0.495275775216053 
917	 0.495386411008997 
918	 0.495608940188797 
919	 0.495688287920939 
920	 0.495311775662624 
921	 0.494818395520493 
922	 0.495236881458569 
923	 0.495677106623539 
924	 0.495749083524536 
925	 0.495825616290158 
926	 0.497197853314674 
927	 0.498137827232452 
928	 0.498388010821437 
929	 0.498290778357762 
930	 0.498651091211633 
931	 0.498486392203743 
932	 0.498264848957345 
933	 0.498645582942664 
934	 0.499630696183825 
935	 0.500115730883029 
936	 0.502522759780996 
937	 0.506621975092913 
938	 0.506063254635983 
939	 0.50572086394684 
940	 0.505216907570021 
941	 0.503700616908275 
942	 0.501682579824135 
943	 0.499307467630974 
944	 0.497552769209953 
945	 0.49720352355886 
946	 0.498167693944175 
947	 0.4983708160864 
948	 0.498039681719236 
949	 0.497508676983592 
950	 0.495869940182549 
951	 0.494786118845514 
952	 0.494244714527157 
953	 0.49367249491252 
954	 0.492378166110816 
955	 0.491019493334166 
956	 0.489614575005037 
957	 0.488455684746734 
958	 0.488635671212106 
959	 0.48686974468059 
960	 0.485051210857315 
961	 0.484831903582104 
962	 0.485029913512453 
963	 0.483518566117702 
964	 0.481919296030177 
965	 0.481574627074006 
966	 0.481781674035191 
967	 0.481156658748626 
968	 0.480204385555302 
969	 0.47955824444701 
970	 0.47930529434961 
971	 0.479305395492544 
972	 0.478796553320013 
973	 0.477497964631321 
974	 0.476066808557158 
975	 0.476335593338241 
976	 0.477111936066218 
977	 0.477470806540742 
978	 0.477679688095393 
979	 0.477312160988547 
980	 0.477581396854044 
981	 0.477842227392669 
982	 0.47589106315505 
983	 0.476494969464298 
984	 0.477268525144256 
985	 0.47674768879119 
986	 0.475535863974859 
987	 0.475480052843665 
988	 0.475620468030221 
989	 0.475569142602435 
990	 0.475695939668977 
991	 0.476420778430684 
992	 0.477706761184857 
993	 0.478076633463635 
994	 0.476420802071953 
995	 0.477363470974351 
996	 0.47918202657079 
997	 0.47993889778418 
998	 0.478835022917844 
999	 0.479087858161194 
1000	 0.477800498086744 
1001	 0.468033523137237 
1002	 0.468725221340986 
1003	 0.469207615475729 
1004	 0.469756362239322 
1005	 0.470105878927808 
1006	 0.470166086602783 
1007	 0.470516483326174 
1008	 0.470929150620917 
1009	 0.471325292096274 
1010	 0.471829693564979 
1011	 0.472364394614873 
1012	 0.472695691215032 
1013	 0.473190623668329 
1014	 0.473794807949827 
1015	 0.474191223536779 
1016	 0.474671233067305 
1017	 0.475118820241596 
1018	 0.475614909020933 
1019	 0.476230550226027 
1020	 0.476671240243436 
1021	 0.477019345404028 
1022	 0.477487017107111 
1023	 0.477938898876414 
1024	 0.478247159316433 
1025	 0.478921127364289 
1026	 0.479500008804722 
1027	 0.479804319119933 
1028	 0.48031389294401 
1029	 0.480813814646212 
1030	 0.48130730702182 
1031	 0.481813167825267 
1032	 0.482299880118175 
1033	 0.482800436548371 
1034	 0.48314871395401 
1035	 0.483615681261472 
1036	 0.484285187514474 
1037	 0.484811640263336 
1038	 0.485270783452637 
1039	 0.485760936395186 
1040	 0.48619340931774 
1041	 0.486531778116239 
1042	 0.487076689771786 
1043	 0.487606718064692 
1044	 0.487993276759395 
1045	 0.488387592864331 
1046	 0.488776810744551 
1047	 0.489083170785674 
1048	 0.489367134536731 
1049	 0.489749147186164 
1050	 0.490045309108796 
1051	 0.490220251445653 
1052	 0.49040294259722 
1053	 0.490646526691506 
1054	 0.490855975400434 
1055	 0.49120187617922 
1056	 0.491496317844033 
1057	 0.491718511615579 
1058	 0.491914261239843 
1059	 0.491994345386217 
1060	 0.492043562837973 
1061	 0.492139266982106 
1062	 0.49238873360961 
1063	 0.492456502357465 
1064	 0.492349525165489 
1065	 0.492361119850758 
1066	 0.492419526845825 
1067	 0.492285879380918 
1068	 0.492273220014996 
1069	 0.492440911378187 
1070	 0.492356743497979 
1071	 0.492204789467265 
1072	 0.492156829495948 
1073	 0.492093990603119 
1074	 0.49202662463069 
1075	 0.492109257239224 
1076	 0.492105600833088 
1077	 0.491913172612369 
1078	 0.491823355593851 
1079	 0.491730353336294 
1080	 0.491558240509359 
1081	 0.491461988228115 
1082	 0.491456466198923 
1083	 0.491401359447938 
1084	 0.491208763271847 
1085	 0.491090361027287 
1086	 0.490962763402707 
1087	 0.490727717787993 
1088	 0.490608635662472 
1089	 0.490457073381967 
1090	 0.490225678781216 
1091	 0.49013005723378 
1092	 0.490085824766699 
1093	 0.490138326899909 
1094	 0.490311871177517 
1095	 0.490437392732642 
1096	 0.490547303009165 
1097	 0.490664987055054 
1098	 0.490793067624373 
1099	 0.490904366891747 
1100	 0.490995460026638 
1101	 0.491118859525813 
1102	 0.491186361687968 
1103	 0.491303435166263 
1104	 0.491462867286021 
1105	 0.491679075118658 
1106	 0.491955988576258 
1107	 0.492253046607637 
1108	 0.492685750556966 
1109	 0.493238336822284 
1110	 0.493746367646763 
1111	 0.494322884395726 
1112	 0.494972119504163 
1113	 0.495676264938472 
1114	 0.496353058987575 
1115	 0.49736869532961 
1116	 0.498696151691362 
1117	 0.50012869768006 
1118	 0.501583535570551 
1119	 0.502960132322116 
1120	 0.504005406576603 
1121	 0.504735895515816 
1122	 0.505345042454075 
1123	 0.505796260604638 
1124	 0.505923260145481 
1125	 0.505805402681622 
1126	 0.505374838985291 
1127	 0.504791104730422 
1128	 0.503691053115095 
1129	 0.502131385700251 
1130	 0.500567460214911 
1131	 0.498658569593707 
1132	 0.496931884006056 
1133	 0.495332126813535 
1134	 0.493542557760881 
1135	 0.491612101998633 
1136	 0.489699406471405 
1137	 0.487645929728408 
1138	 0.485914299387339 
1139	 0.484566875980619 
1140	 0.48300762537659 
1141	 0.481371115472416 
1142	 0.479702258877449 
1143	 0.478033736514574 
1144	 0.476336771661932 
1145	 0.474413564241573 
1146	 0.472455704689338 
1147	 0.470441225414451 
1148	 0.468265195382203 
1149	 0.466116088232472 
1150	 0.464097206087365 
1151	 0.46205899564562 
1152	 0.460082849966225 
1153	 0.457998771700781 
1154	 0.456081392401506 
1155	 0.454345862592172 
1156	 0.45257370965892 
1157	 0.451026315209727 
1158	 0.44966126032845 
1159	 0.448366494139225 
1160	 0.44723168049047 
1161	 0.446219482377649 
1162	 0.445316929674649 
1163	 0.44449741636689 
1164	 0.4437716948109 
1165	 0.443159362780481 
1166	 0.442542103752705 
1167	 0.441904426027083 
1168	 0.441432459547672 
1169	 0.441072106774936 
1170	 0.440669308021778 
1171	 0.440400967827762 
1172	 0.440183355027211 
1173	 0.439884671369033 
1174	 0.439610883660964 
1175	 0.439396893555523 
1176	 0.439133543304713 
1177	 0.438946336235665 
1178	 0.438820595622605 
1179	 0.438679321830849 
1180	 0.438606310064743 
1181	 0.438450337835931 
1182	 0.43827652497097 
1183	 0.438051294868303 
1184	 0.43773680208154 
1185	 0.437462520152212 
1186	 0.437183028021341 
1187	 0.436893890066654 
1188	 0.436579299169716 
1189	 0.436319792514381 
1190	 0.436108392628495 
1191	 0.435925027492393 
1192	 0.435790608417974 
1193	 0.435683576930147 
1194	 0.435548107530717 
1195	 0.435335285408139 
1196	 0.435272965749899 
1197	 0.435315737806326 
1198	 0.435295240879248 
1199	 0.435302187091774 
1200	 0.435325702491156 
1201	 0.435267910549939 
1202	 0.435347451698998 
1203	 0.435578086159389 
1204	 0.435742764993512 
1205	 0.435940715841047 
1206	 0.436118363964748 
1207	 0.436275845829003 
1208	 0.436428071096214 
1209	 0.436590729696665 
1210	 0.436716220708138 
1211	 0.436872992147395 
1212	 0.436998092335962 
1213	 0.437191035542467 
1214	 0.437418376410497 
1215	 0.437678037421556 
1216	 0.437977640351362 
1217	 0.438285209054791 
1218	 0.438664320929109 
1219	 0.438979405769986 
1220	 0.439261293933581 
1221	 0.439559878547491 
1222	 0.43985234799317 
1223	 0.440126682764054 
1224	 0.440406972116651 
1225	 0.440691247256998 
1226	 0.440908823159396 
1227	 0.441204018664095 
1228	 0.441530449086964 
1229	 0.441906905954894 
1230	 0.442348810333373 
1231	 0.442756063652633 
1232	 0.443026412968304 
1233	 0.443204825586495 
1234	 0.443436534005919 
1235	 0.443536441735371 
1236	 0.443819120801795 
1237	 0.444207587529914 
1238	 0.444602188797798 
1239	 0.44512169897673 
1240	 0.445497533423172 
1241	 0.445870461916162 
1242	 0.446189959410216 
1243	 0.446362396941722 
1244	 0.44662678495723 
1245	 0.446917533251516 
1246	 0.447210002734441 
1247	 0.447537824841346 
1248	 0.447848599125883 
1249	 0.448172885270183 
1250	 0.448469611626773 
1251	 0.448726891600422 
1252	 0.449028758786641 
1253	 0.449286344965296 
1254	 0.449490741558094 
1255	 0.449775654112514 
1256	 0.450115503253463 
1257	 0.450370736367622 
1258	 0.450599481238775 
1259	 0.450903634928568 
1260	 0.451194002035162 
1261	 0.45149081678499 
1262	 0.451896405354783 
1263	 0.452215616449643 
1264	 0.452418191181441 
1265	 0.452698674627514 
1266	 0.453082264203528 
1267	 0.453329515226401 
1268	 0.453501117553268 
1269	 0.4536859325744 
1270	 0.453805407674967 
1271	 0.453894067292497 
1272	 0.454045252249947 
1273	 0.454086546212574 
1274	 0.454037611893539 
1275	 0.453864876133061 
1276	 0.453744401455403 
1277	 0.453563071107736 
1278	 0.453409013764659 
1279	 0.453293404173 
1280	 0.453099767884432 
1281	 0.452900506941959 
1282	 0.45259925819732 
1283	 0.452230170250427 
1284	 0.451826077102601 
1285	 0.45129905982373 
1286	 0.450843819527476 
1287	 0.450451814449922 
1288	 0.449941019706785 
1289	 0.449388955028529 
1290	 0.448817519055068 
1291	 0.448132511593455 
1292	 0.447478441484611 
1293	 0.446824472641933 
1294	 0.446183369317237 
1295	 0.445536793109184 
1296	 0.444905784345804 
1297	 0.444182243440863 
1298	 0.443449055673987 
1299	 0.442653213983299 
1300	 0.441742617094379 
1301	 0.440894813171651 
1302	 0.440080785353061 
1303	 0.43916748364236 
1304	 0.438163042855902 
1305	 0.437242844907931 
1306	 0.436320483625659 
1307	 0.435362657771816 
1308	 0.434503811644444 
1309	 0.433486895751375 
1310	 0.432301456077753 
1311	 0.431175601790777 
1312	 0.429986095107744 
1313	 0.428841723443291 
1314	 0.427785586163667 
1315	 0.426636378064364 
1316	 0.425507353194681 
1317	 0.424277245012345 
1318	 0.422801328309713 
1319	 0.421511867304406 
1320	 0.420235491414247 
1321	 0.419031825037854 
1322	 0.417813567656507 
1323	 0.416710321591275 
1324	 0.415522276886581 
1325	 0.414201845936845 
1326	 0.413010012599366 
1327	 0.411918116022428 
1328	 0.410707428597301 
1329	 0.409517262455044 
1330	 0.408199954025387 
1331	 0.406768410391682 
1332	 0.405345517118776 
1333	 0.403835296146241 
1334	 0.402403739273874 
1335	 0.401009608751948 
1336	 0.399603069973205 
1337	 0.398017905514528 
1338	 0.396770303416831 
1339	 0.39550205212255 
1340	 0.394522085379815 
1341	 0.393932180349501 
1342	 0.393363628479368 
1343	 0.392930823652867 
1344	 0.392670680393673 
1345	 0.392689757991343 
1346	 0.392820158751306 
1347	 0.393508128445168 
1348	 0.394267432463101 
1349	 0.395074171264074 
1350	 0.396230733559974 
1351	 0.397623835536532 
1352	 0.399265711580803 
1353	 0.401515356154259 
1354	 0.405091951459233 
1355	 0.408609970906112 
1356	 0.411512283204082 
1357	 0.415347530789225 
1358	 0.414093298167722 
1359	 0.416930222402376 
1360	 0.41640724161872 
1361	 0.420909580293341 
1362	 0.434057140608366 
1363	 0.447015932560754 
1364	 0.460532207042344 
1365	 0.465024168751872 
1366	 0.447076109304503 
1367	 0.443737651384131 
1368	 0.447033582262113 
1369	 0.440075872013557 
1370	 0.432300691102378 
1371	 0.428633022998444 
1372	 0.416443544145381 
1373	 0.4138383269486 
1374	 0.417759384328553 
1375	 0.425814670495875 
1376	 0.422833672406671 
1377	 0.420153639135078 
1378	 0.414314325596969 
1379	 0.400344428139203 
1380	 0.391409172580191 
1381	 0.384718353314558 
1382	 0.376602742904741 
1383	 0.36958445712257 
1384	 0.359885761926182 
1385	 0.351278732998569 
1386	 0.340294016974933 
1387	 0.326239177979649 
1388	 0.318560809751336 
1389	 0.313529319138624 
1390	 0.307567178878717 
1391	 0.305831793382119 
1392	 0.298720656741812 
1393	 0.288064928582818 
1394	 0.279330550393485 
1395	 0.269297512614626 
1396	 0.260710493895298 
1397	 0.25335088767569 
1398	 0.245832113390322 
1399	 0.237575824271084 
1400	 0.231047113673015 
1401	 0.226132220951746 
1402	 0.220512830025912 
1403	 0.216709579325164 
1404	 0.211145064623387 
1405	 0.204695773297073 
1406	 0.19877010651598 
1407	 0.192211269026394 
1408	 0.18692697465319 
1409	 0.182359281257836 
1410	 0.177955455187562 
1411	 0.174298661625854 
1412	 0.171343007431356 
1413	 0.168343649409469 
1414	 0.165436259766764 
1415	 0.163209189846501 
1416	 0.161438995730017 
1417	 0.159304371052293 
1418	 0.157562143081119 
1419	 0.155338509750787 
1420	 0.152496423456913 
1421	 0.1505746172012 
1422	 0.148737955635899 
1423	 0.147359821241672 
1424	 0.146544836804281 
1425	 0.145418125958292 
1426	 0.144354970702756 
1427	 0.143173778096716 
1428	 0.141571300862146 
1429	 0.140549251436801 
1430	 0.139760564764479 
1431	 0.138918686160187 
1432	 0.138223187886548 
1433	 0.137647406122964 
1434	 0.13715281424536 
1435	 0.136552068334959 
1436	 0.136052249174942 
1437	 0.135592845393252 
1438	 0.135106178254223 
1439	 0.134529436571233 
1440	 0.134056410952647 
1441	 0.133535701429554 
1442	 0.132885826466226 
1443	 0.132195676602932 
1444	 0.131749830811682 
1445	 0.131246932002505 
1446	 0.130760853994458 
1447	 0.130352907654099 
1448	 0.129945853925784 
1449	 0.129530298510618 
1450	 0.129214304976096 
1451	 0.128947403776383 
1452	 0.128706442544172 
1453	 0.128465209682783 
1454	 0.128396786474792 
1455	 0.128443639156222 
1456	 0.128375025856857 
1457	 0.128306953404609 
1458	 0.128343281047965 
1459	 0.128235337099976 
1460	 0.128455441942594 
1461	 0.12907337578642 
1462	 0.129426933420768 
1463	 0.129795317781751 
1464	 0.13021511302349 
1465	 0.130464394010149 
1466	 0.130987518011503 
1467	 0.131775586383897 
1468	 0.132506798026101 
1469	 0.13337641352711 
1470	 0.134114617569132 
1471	 0.134740147572594 
1472	 0.135405459823571 
1473	 0.135885160293908 
1474	 0.136556630478403 
1475	 0.137356344002833 
1476	 0.138064728303057 
1477	 0.138795205256274 
1478	 0.139514927550289 
1479	 0.14013529036575 
1480	 0.140820216044803 
1481	 0.141557799838109 
1482	 0.142278050437949 
1483	 0.142935758635508 
1484	 0.143679110079763 
1485	 0.144453172428266 
1486	 0.14523654369887 
1487	 0.146061880582069 
1488	 0.14689096737082 
1489	 0.147562451920007 
1490	 0.148384638422842 
1491	 0.149259052383863 
1492	 0.150104152459602 
1493	 0.151149222311359 
1494	 0.152014514323864 
1495	 0.152868215142783 
1496	 0.153664597820493 
1497	 0.15456764926213 
1498	 0.155434516026776 
1499	 0.156468696775144 
1500	 0.157709015586531 
1501	 0.158718396387209 
1502	 0.159699593114588 
1503	 0.160750246307632 
1504	 0.161709138583834 
1505	 0.162771336661862 
1506	 0.163952916316163 
1507	 0.16507509040274 
1508	 0.166185213277161 
1509	 0.167256241952901 
1510	 0.168289860917406 
1511	 0.16942892222251 
1512	 0.170613800880722 
1513	 0.171717231750432 
1514	 0.172858688960885 
1515	 0.174008727942586 
1516	 0.175086425373191 
1517	 0.1762061548015 
1518	 0.177424483783931 
1519	 0.17860169024409 
1520	 0.179736373780554 
1521	 0.180881413892442 
1522	 0.182074004098257 
1523	 0.183214964826553 
1524	 0.184306486471842 
1525	 0.185415937818255 
1526	 0.1865271121491 
1527	 0.187641217200041 
1528	 0.1887215232889 
1529	 0.189871060197025 
1530	 0.191078752629243 
1531	 0.192263150268597 
1532	 0.193518812773474 
1533	 0.194697297545614 
1534	 0.195819112884962 
1535	 0.196944548598943 
1536	 0.198008384824908 
1537	 0.199134243031037 
1538	 0.200303392138118 
1539	 0.2014478403303 
1540	 0.202648195620744 
1541	 0.203778800892649 
1542	 0.204810044474767 
1543	 0.205911478069613 
1544	 0.207017436819907 
1545	 0.208135943911259 
1546	 0.209320058565398 
1547	 0.210470430358811 
1548	 0.211618945696099 
1549	 0.212740961169135 
1550	 0.213887417552705 
1551	 0.214957403663702 
1552	 0.215916693045482 
1553	 0.216932679140009 
1554	 0.217894257239224 
1555	 0.218926367628571 
1556	 0.220128226725557 
1557	 0.221187467695833 
1558	 0.222156435931377 
1559	 0.223165808322809 
1560	 0.22408932876362 
1561	 0.22505487669316 
1562	 0.226173867427983 
1563	 0.227169852821372 
1564	 0.228068300992297 
1565	 0.228984608408425 
1566	 0.229909986268527 
1567	 0.230755641871784 
1568	 0.231684419314829 
1569	 0.232667465474919 
1570	 0.233653640622148 
1571	 0.234666115194671 
1572	 0.23561414058278 
1573	 0.236563849086361 
1574	 0.237487106138049 
1575	 0.238324619918317 
1576	 0.239239833116991 
1577	 0.240206003692485 
1578	 0.241066607545828 
1579	 0.241860749464679 
1580	 0.242740916243559 
1581	 0.243586395330194 
1582	 0.244489485159157 
1583	 0.2455334866338 
1584	 0.24634054788056 
1585	 0.246984726730375 
1586	 0.247862700510474 
1587	 0.248752676240268 
1588	 0.2496193506704 
1589	 0.250679968756782 
1590	 0.251489447652298 
1591	 0.252068612262913 
1592	 0.252843198111382 
1593	 0.253660051317261 
1594	 0.25443989772357 
1595	 0.2552728118302 
1596	 0.256043588558913 
1597	 0.256782459369867 
1598	 0.25746831770625 
1599	 0.258091637174494 
1600	 0.25881677163298 
1601	 0.259488437622196 
1602	 0.260300654869547 
1603	 0.261303674363641 
1604	 0.262110679506216 
1605	 0.262919337257042 
1606	 0.263602764429597 
1607	 0.264077065155033 
1608	 0.264794132192608 
1609	 0.265583462827665 
1610	 0.266274490314477 
1611	 0.267034559476636 
1612	 0.267737902548627 
1613	 0.268340883234673 
1614	 0.268943956729941 
1615	 0.26958572359107 
1616	 0.270185110065804 
1617	 0.270650610171817 
1618	 0.271268296358532 
1619	 0.271998909381176 
1620	 0.272645068043387 
1621	 0.273335932378238 
1622	 0.273888463030211 
1623	 0.274320345850768 
1624	 0.274860811494652 
1625	 0.275400507973631 
1626	 0.275908275033169 
1627	 0.27644981651709 
1628	 0.276997235980978 
1629	 0.277480650401985 
1630	 0.278016893821885 
1631	 0.278671450609028 
1632	 0.279188332878666 
1633	 0.279634380381865 
1634	 0.280089257660347 
1635	 0.280475377159516 
1636	 0.28094363169962 
1637	 0.281472760844836 
1638	 0.281894316024784 
1639	 0.282323323540937 
1640	 0.282701751480376 
1641	 0.282941959553651 
1642	 0.283303795977461 
1643	 0.283700897986249 
1644	 0.284123657660355 
1645	 0.284602375473416 
1646	 0.285037671335517 
1647	 0.285514859893051 
1648	 0.28585701059985 
1649	 0.286120221030603 
1650	 0.286381561569579 
1651	 0.286548220373791 
1652	 0.286839559749653 
1653	 0.287167175402571 
1654	 0.287479856187739 
1655	 0.287852586154531 
1656	 0.2881371397655 
1657	 0.288429138775275 
1658	 0.288473986520811 
1659	 0.288558581918561 
1660	 0.288621551424044 
1661	 0.288643753871759 
1662	 0.288775533493212 
1663	 0.288911019604924 
1664	 0.289087226646084 
1665	 0.289208248161208 
1666	 0.289348399633757 
1667	 0.28938831895585 
1668	 0.289313280884393 
1669	 0.289372631782531 
1670	 0.289442830381344 
1671	 0.289460577585375 
1672	 0.289377214898868 
1673	 0.289265815157972 
1674	 0.289370559677499 
1675	 0.289486926441495 
1676	 0.289570960079394 
1677	 0.289488008447171 
1678	 0.289105541001809 
1679	 0.288853622706361 
1680	 0.288701535500746 
1681	 0.288564011581297 
1682	 0.288377633805044 
1683	 0.288059947705445 
1684	 0.287730567009732 
1685	 0.287522331688657 
1686	 0.28741706727902 
1687	 0.287281970880838 
1688	 0.287134448811223 
1689	 0.286782655919797 
1690	 0.286315497608511 
1691	 0.285955109215018 
1692	 0.285615371905383 
1693	 0.285258945835977 
1694	 0.284938250369121 
1695	 0.284610461558131 
1696	 0.284238918944129 
1697	 0.283897818993653 
1698	 0.283599332467546 
1699	 0.283294128942228 
1700	 0.283000605918254 
1701	 0.282685904379377 
1702	 0.282391764663852 
1703	 0.282027395452027 
1704	 0.281591500008553 
1705	 0.281172612734999 
1706	 0.280757279068885 
1707	 0.28029935595008 
1708	 0.279786559595961 
1709	 0.27928810491211 
1710	 0.278732827900672 
1711	 0.278219160841679 
1712	 0.277715261623733 
1713	 0.277344791135373 
1714	 0.277083369266142 
1715	 0.276775532037092 
1716	 0.276585758872838 
1717	 0.276273290754269 
1718	 0.275838473147812 
1719	 0.275438144549395 
1720	 0.274982193073881 
1721	 0.27456797393051 
1722	 0.274242106812027 
1723	 0.273795372868908 
1724	 0.273287238184235 
1725	 0.272863505344291 
1726	 0.272363394498232 
1727	 0.271878685902363 
1728	 0.2715463962185 
1729	 0.271092996971921 
1730	 0.270466129551862 
1731	 0.270081940413344 
1732	 0.269562277589308 
1733	 0.269141645637231 
1734	 0.268997526268742 
1735	 0.26876203651591 
1736	 0.268486156809088 
1737	 0.268128563209132 
1738	 0.267573196708471 
1739	 0.266950736802864 
1740	 0.266342381881146 
1741	 0.265838042726614 
1742	 0.26527325761586 
1743	 0.26452786609624 
1744	 0.26386254670737 
1745	 0.263164715295145 
1746	 0.262612676146966 
1747	 0.262235420463303 
1748	 0.261561257482044 
1749	 0.260756094791947 
1750	 0.260034143218215 
1751	 0.259358314406206 
1752	 0.258856848625716 
1753	 0.258414581373078 
1754	 0.2576843402582 
1755	 0.256941662396071 
1756	 0.256379269175669 
1757	 0.255956019933476 
1758	 0.255496494976231 
1759	 0.255071131194297 
1760	 0.254592848633899 
1761	 0.253942190303709 
1762	 0.253558103971223 
1763	 0.253350839746628 
1764	 0.253055271703888 
1765	 0.252929853590832 
1766	 0.25272332891615 
1767	 0.252390075280763 
1768	 0.252064437817448 
1769	 0.251792543367791 
1770	 0.251563753450336 
1771	 0.251269238970713 
1772	 0.250980872622584 
1773	 0.250717040952017 
1774	 0.250404981248699 
1775	 0.250275620716439 
1776	 0.250043915198892 
1777	 0.249806268181247 
1778	 0.249673920395771 
1779	 0.249595970332052 
1780	 0.249760611883675 
1781	 0.2503349415123 
1782	 0.250633240807499 
1783	 0.250681350001609 
1784	 0.251192526930284 
1785	 0.251249045371233 
1786	 0.251210096915239 
1787	 0.251905031444702 
1788	 0.252284332309329 
1789	 0.252719003673916 
1790	 0.253837782934932 
1791	 0.254620043496112 
1792	 0.255359396816899 
1793	 0.256201484624844 
1794	 0.256516426422056 
1795	 0.257124589895052 
1796	 0.257885375792542 
1797	 0.258348763500269 
1798	 0.25950939948786 
1799	 0.260806079528918 
1800	 0.261942458604253 
1801	 0.251735094814866 
1802	 0.252261413458211 
1803	 0.253350071251271 
1804	 0.255439079113503 
1805	 0.257205653039718 
1806	 0.258895964525837 
1807	 0.260856310264976 
1808	 0.26439553264132 
1809	 0.265552370863233 
1810	 0.266805710594484 
1811	 0.267704805945231 
1812	 0.268375618830114 
1813	 0.266405112464625 
1814	 0.267107775290869 
1815	 0.269953958569292 
1816	 0.27164934923137 
1817	 0.273985730922793 
1818	 0.276748205918213 
1819	 0.27954614064412 
1820	 0.281959554030526 
1821	 0.283078271678482 
1822	 0.283944067426172 
1823	 0.284582347697196 
1824	 0.281056139648478 
1825	 0.280246716602721 
1826	 0.281848419359239 
1827	 0.283594694508389 
1828	 0.286322404593973 
1829	 0.292275978315311 
1830	 0.293963241382691 
1831	 0.292689111435465 
1832	 0.293950699871853 
1833	 0.287883328834854 
1834	 0.285012091815335 
1835	 0.291728816666707 
1836	 0.29657380044726 
1837	 0.286033714701261 
1838	 0.292539446720677 
1839	 0.309017607166199 
1840	 0.356055815391942 
1841	 0.35272435188138 
1842	 0.325459327330598 
1843	 0.325386575292176 
1844	 0.318553512532106 
1845	 0.304523710086505 
1846	 0.297370784144057 
1847	 0.296114988456498 
1848	 0.292572862549336 
1849	 0.265344035169393 
1850	 0.263766567734588 
1851	 0.281942634249028 
1852	 0.302987744740165 
1853	 0.356162390796113 
1854	 0.359364407191255 
1855	 0.350045652519635 
1856	 0.340739731879722 
1857	 0.284186937318978 
1858	 0.266101186119206 
1859	 0.256883585036618 
1860	 0.272843051590496 
1861	 0.262287472129991 
1862	 0.227849726543482 
1863	 0.231406626765459 
1864	 0.26378554460214 
1865	 0.265914671036649 
1866	 0.267374698306297 
1867	 0.293945177347917 
1868	 0.275831457654918 
1869	 0.231239177290214 
1870	 0.204520760364999 
1871	 0.174687211160571 
1872	 0.181853594484938 
1873	 0.21660597782146 
1874	 0.220732140911821 
1875	 0.259915831527782 
1876	 0.250566322289519 
1877	 0.207264032878069 
1878	 0.1728994171472 
1879	 0.168958788349887 
1880	 0.156371108891088 
1881	 0.146591248684877 
1882	 0.141922655309696 
1883	 0.13914335887171 
1884	 0.130977104848241 
1885	 0.128840408173038 
1886	 0.133876214805436 
1887	 0.140592551857004 
1888	 0.133736693047558 
1889	 0.123386843733741 
1890	 0.119070393810754 
1891	 0.109257045700399 
1892	 0.105935646377754 
1893	 0.113016490297514 
1894	 0.113539317049422 
1895	 0.111826116584017 
1896	 0.114357600641382 
1897	 0.120402546967099 
1898	 0.119250508619867 
1899	 0.133377754029089 
1900	 0.135083513817074 
1901	 0.134598274880628 
1902	 0.129730120867394 
1903	 0.124804249202688 
1904	 0.10885670132433 
1905	 0.094807572296472 
1906	 8.39868640283388E-02 
1907	 6.57524885113138E-02 
1908	 5.15385907229873E-02 
1909	 5.55873957391949E-02 
1910	 7.52169673962309E-02 
1911	 7.58303108966355E-02 
1912	 7.45619946160456E-02 
1913	 7.45508513391239E-02 
1914	 7.38996924558849E-02 
1915	 6.82537870224231E-02 
1916	 6.76942804027361E-02 
1917	 7.42692659884064E-02 
1918	 6.94246761680219E-02 
1919	 0.061120670383886 
1920	 5.97181313924038E-02 
1921	 5.42851979166318E-02 
1922	 5.00227165213412E-02 
1923	 4.84887906665854E-02 
1924	 4.74284341559315E-02 
1925	 4.82285571912749E-02 
1926	 0.051862044295603 
1927	 5.53480220609108E-02 
1928	 0.062199831958794 
1929	 0.064887683988666 
1930	 6.32719418416501E-02 
1931	 5.89742475662935E-02 
1932	 5.40459354287702E-02 
1933	 5.23088592810587E-02 
1934	 5.05917452083275E-02 
1935	 5.06872508961439E-02 
1936	 5.00684845067337E-02 
1937	 4.80835304400391E-02 
1938	 4.81281367206966E-02 
1939	 4.98074425717099E-02 
1940	 5.08548823927834E-02 
1941	 5.09153655482769E-02 
1942	 5.05979549105286E-02 
1943	 4.90252691001588E-02 
1944	 4.80962598354153E-02 
1945	 4.92206613168062E-02 
1946	 5.01408713594228E-02 
1947	 5.07938170733254E-02 
1948	 5.25702307497728E-02 
1949	 5.26910291960547E-02 
1950	 5.13943550469257E-02 
1951	 5.10830335653692E-02 
1952	 5.05343693595448E-02 
1953	 4.96292886319689E-02 
1954	 4.98768180286917E-02 
1955	 5.01891735002309E-02 
1956	 5.02339622275695E-02 
1957	 5.15462045010761E-02 
1958	 5.21632509021862E-02 
1959	 5.24999851954322E-02 
1960	 5.27988542908225E-02 
1961	 0.05317775975817 
1962	 5.27892106157578E-02 
1963	 5.31739834639853E-02 
1964	 5.40518144558356E-02 
1965	 0.054064530168715 
1966	 5.43230624013493E-02 
1967	 5.44625584638471E-02 
1968	 5.41947143975485E-02 
1969	 5.40686116109092E-02 
1970	 5.40047941798447E-02 
1971	 5.40711112602366E-02 
1972	 5.40765202718243E-02 
1973	 5.40701884102057E-02 
1974	 5.46842769910909E-02 
1975	 5.53969521816408E-02 
1976	 5.55676716374823E-02 
1977	 5.62764159299429E-02 
1978	 5.66263631940428E-02 
1979	 5.65236860631855E-02 
1980	 0.057005130834446 
1981	 5.71960802721047E-02 
1982	 5.74562835012233E-02 
1983	 0.057706305252717 
1984	 0.058107500238902 
1985	 5.84591562612601E-02 
1986	 0.059221704016006 
1987	 5.99892132268786E-02 
1988	 6.07832293024288E-02 
1989	 6.13923075463419E-02 
1990	 6.16252393788255E-02 
1991	 6.16355550122258E-02 
1992	 6.16628164376195E-02 
1993	 6.18110350709121E-02 
1994	 6.17726409959219E-02 
1995	 6.19454983299161E-02 
1996	 6.22225478090141E-02 
1997	 6.28065751702475E-02 
1998	 6.32272556759746E-02 
1999	 6.39335456117162E-02 
2000	 6.45787206131802E-02 
2001	 6.40291037622167E-02 
2002	 6.40120955075767E-02 
2003	 6.45806263171881E-02 
2004	 6.48099453088132E-02 
2005	 6.63033153820756E-02 
2006	 6.76470123692365E-02 
2007	 6.92018043201639E-02 
2008	 7.04436778083018E-02 
2009	 7.15614154952424E-02 
2010	 7.19550907532072E-02 
2011	 7.24165443033536E-02 
2012	 7.24428346305812E-02 
2013	 7.26652458378472E-02 
2014	 7.33366907001718E-02 
2015	 0.074438641621936 
2016	 0.075338259214845 
2017	 7.58247226687122E-02 
2018	 7.65247465738575E-02 
2019	 7.70641338665411E-02 
2020	 7.72623473457949E-02 
2021	 7.76541534954709E-02 
2022	 0.078198071093118 
2023	 7.85356670219983E-02 
2024	 7.88748252120383E-02 
2025	 7.90422415041353E-02 
2026	 7.93014310560798E-02 
2027	 7.96997317193695E-02 
2028	 7.97662821823635E-02 
2029	 7.99363593078591E-02 
2030	 8.04538071663126E-02 
2031	 8.07575353062894E-02 
2032	 8.11282677606827E-02 
2033	 8.17104347177668E-02 
2034	 8.22085127666973E-02 
2035	 8.23712628152679E-02 
2036	 0.08292000820254 
2037	 8.35293858452181E-02 
2038	 8.42046670997049E-02 
2039	 8.51486162084538E-02 
2040	 8.57236017076625E-02 
2041	 8.58128271196472E-02 
2042	 8.57799815729896E-02 
2043	 8.58089736160591E-02 
2044	 8.59548281908815E-02 
2045	 8.62340229088558E-02 
2046	 8.68418316286988E-02 
2047	 8.74810259498631E-02 
2048	 0.087984112369471 
2049	 8.85387241477679E-02 
2050	 8.90656255237061E-02 
2051	 0.089924680562205 
2052	 9.08352188932125E-02 
2053	 9.14402286433443E-02 
2054	 9.21764937829636E-02 
2055	 9.28339566379883E-02 
2056	 9.29910678782254E-02 
2057	 9.30955754968529E-02 
2058	 0.093250883743416 
2059	 9.35728151895511E-02 
2060	 9.37571863646028E-02 
2061	 9.45830163657178E-02 
2062	 0.095802165409404 
2063	 9.68377388106919E-02 
2064	 9.78430553505362E-02 
2065	 9.86542814385027E-02 
2066	 9.88697427671587E-02 
2067	 9.90836793385481E-02 
2068	 9.94995743247895E-02 
2069	 9.96122927082464E-02 
2070	 9.98730718805586E-02 
2071	 0.100017729884066 
2072	 0.100409080792627 
2073	 0.100751314135283 
2074	 0.101640359954171 
2075	 0.102602905828768 
2076	 0.103388329921947 
2077	 0.103970149602976 
2078	 0.104238553922293 
2079	 0.10413375327161 
2080	 0.104389360700614 
2081	 0.104908487185854 
2082	 0.105366316227052 
2083	 0.106033525868996 
2084	 0.106535871273518 
2085	 0.107028429198819 
2086	 0.107788241549658 
2087	 0.108515466796406 
2088	 0.109302974112955 
2089	 0.110141193523871 
2090	 0.11091715025279 
2091	 0.111319274721344 
2092	 0.111487559735337 
2093	 0.111740596898959 
2094	 0.112201918285388 
2095	 0.112802932623585 
2096	 0.113459496249982 
2097	 0.1141781935963 
2098	 0.114318794995998 
2099	 0.11432562135857 
2100	 0.114741323095584 
2101	 0.115026708850914 
2102	 0.115533481133717 
2103	 0.116432103464342 
2104	 0.117293284286634 
2105	 0.117760455706996 
2106	 0.118632204740652 
2107	 0.119430499712809 
2108	 0.119863059510208 
2109	 0.120369187580853 
2110	 0.120558059445383 
2111	 0.120829029402094 
2112	 0.121653519115244 
2113	 0.122522831105492 
2114	 0.123307054908907 
2115	 0.123782827448776 
2116	 0.124349335966243 
2117	 0.124696053650998 
2118	 0.124670313811691 
2119	 0.124776718639611 
2120	 0.1248006235781 
2121	 0.124936724346758 
2122	 0.125482412505066 
2123	 0.126517654987402 
2124	 0.12767361246732 
2125	 0.128102423667517 
2126	 0.128405825493537 
2127	 0.128865704809622 
2128	 0.129330429557314 
2129	 0.130527997415087 
2130	 0.131347924528336 
2131	 0.13157890832124 
2132	 0.131991679158777 
2133	 0.131560991934171 
2134	 0.131392553094451 
2135	 0.130923554535356 
2136	 0.131477932484029 
2137	 0.131995965887101 
2138	 0.132814218972192 
2139	 0.134012104702797 
2140	 0.13443144622436 
2141	 0.134339577907124 
2142	 0.134626286736581 
2143	 0.135388750684343 
2144	 0.135895223241098 
2145	 0.136097584927091 
2146	 0.136474555894358 
2147	 0.13657264510837 
2148	 0.136299077388045 
2149	 0.136691141766991 
2150	 0.137520707995311 
2151	 0.13818442508381 
2152	 0.139054537631771 
2153	 0.139632099139802 
2154	 0.14021161408104 
2155	 0.140461088242461 
2156	 0.140222728596888 
2157	 0.139767348379969 
2158	 0.139678139375433 
2159	 0.139404729527831 
2160	 0.139406986942214 
2161	 0.140355594383853 
2162	 0.141295286771943 
2163	 0.142283596101128 
2164	 0.142765263376967 
2165	 0.14288517148436 
2166	 0.143100249888281 
2167	 0.142714223905231 
2168	 0.143105297665182 
2169	 0.144644087805356 
2170	 0.145115325538916 
2171	 0.145313361379302 
2172	 0.145685307766813 
2173	 0.14545867622378 
2174	 0.144770399702286 
2175	 0.144734808389181 
2176	 0.144947562504155 
2177	 0.144922022569029 
2178	 0.145023646102948 
2179	 0.14480344573778 
2180	 0.144792754524783 
2181	 0.145239397995714 
2182	 0.145829775040105 
2183	 0.147041113304985 
2184	 0.147966864443761 
2185	 0.148446702606637 
2186	 0.148488919519114 
2187	 0.148586638494283 
2188	 0.148473053647419 
2189	 0.148258007274992 
2190	 0.147869835003999 
2191	 0.147713057549877 
2192	 0.147703234479304 
2193	 0.148243722234118 
2194	 0.149279820821304 
2195	 0.150238930355065 
2196	 0.150882023866657 
2197	 0.150587292022697 
2198	 0.150362016081959 
2199	 0.150461065752103 
2200	 0.150513768653106 
2201	 0.150887664143529 
2202	 0.151011569532153 
2203	 0.151409101561384 
2204	 0.152010661656468 
2205	 0.152006813710648 
2206	 0.151962831491363 
2207	 0.152195849764295 
2208	 0.152168942767369 
2209	 0.151775705929016 
2210	 0.151670456562047 
2211	 0.151732153412365 
2212	 0.151428627114577 
2213	 0.151624487767634 
2214	 0.152053369364941 
2215	 0.152331932648998 
2216	 0.152561411096586 
2217	 0.152420445136761 
2218	 0.152300711690296 
2219	 0.152243222645348 
2220	 0.152004216305701 
2221	 0.151498576396397 
2222	 0.150892649084125 
2223	 0.150567283619664 
2224	 0.151054649460954 
2225	 0.151701780574531 
2226	 0.152193708328443 
2227	 0.152847140486015 
2228	 0.15229783568553 
2229	 0.15118856894521 
2230	 0.15065222223353 
2231	 0.149867734414363 
2232	 0.148441477827438 
2233	 0.147927611951455 
2234	 0.147958537493301 
2235	 0.147739263971505 
2236	 0.147701758324244 
2237	 0.147431753917952 
2238	 0.146710529581238 
2239	 0.146041636002878 
2240	 0.145494245182508 
2241	 0.14524335832616 
2242	 0.145445689635077 
2243	 0.144764894098417 
2244	 0.144118303531639 
2245	 0.144681049743151 
2246	 0.143959234580061 
2247	 0.14327450790264 
2248	 0.14333807953932 
2249	 0.142292339608154 
2250	 0.141497888463007 
2251	 0.141836367689427 
2252	 0.142121748852221 
2253	 0.141603966003813 
2254	 0.141018116379354 
2255	 0.140306445911673 
2256	 0.139873412994803 
2257	 0.139226434497474 
2258	 0.138992700130715 
2259	 0.138416170758374 
2260	 0.137984531995728 
2261	 0.13718875139343 
2262	 0.136273216952422 
2263	 0.136529207336577 
2264	 0.136923734036561 
2265	 0.136814126893765 
2266	 0.136431207985178 
2267	 0.135686659525115 
2268	 0.134737727430321 
2269	 0.133672387577717 
2270	 0.13266768753873 
2271	 0.132432586328275 
2272	 0.132457742421458 
2273	 0.132638005126568 
2274	 0.1333824062484 
2275	 0.133029336974106 
2276	 0.13195281773505 
2277	 0.131125973129564 
2278	 0.129931134072095 
2279	 0.128926043474466 
2280	 0.127987447866197 
2281	 0.127050056359834 
2282	 0.126719096866098 
2283	 0.126956939946586 
2284	 0.127991621108746 
2285	 0.128084410348578 
2286	 0.127598277933927 
2287	 0.126268017470509 
2288	 0.125124011158347 
2289	 0.123545385041677 
2290	 0.1229364411375 
2291	 0.123156686214425 
2292	 0.123004444288118 
2293	 0.122691024555464 
2294	 0.122648631607686 
2295	 0.122454275025581 
2296	 0.121474048585323 
2297	 0.12092695299222 
2298	 0.120642069019683 
2299	 0.120091198344982 
2300	 0.119593029375885 
2301	 0.118527258201739 
2302	 0.117524227531347 
2303	 0.116382206411099 
2304	 0.115363198118267 
2305	 0.115517449172748 
2306	 0.115750867690914 
2307	 0.115830473224386 
2308	 0.115925326485925 
2309	 0.116211972555037 
2310	 0.115216286431571 
2311	 0.11364766574279 
2312	 0.113520353314536 
2313	 0.113007771035541 
2314	 0.11410059077906 
2315	 0.115804320142526 
2316	 0.115383200384622 
2317	 0.115561739031942 
2318	 0.115184216606978 
2319	 0.114598651653877 
2320	 0.115026894579374 
2321	 0.114705337813919 
2322	 0.113929228420008 
2323	 0.112890732684479 
2324	 0.111170077796753 
2325	 0.110067285866184 
2326	 0.109653870788525 
2327	 0.109585821926585 
2328	 0.109768503517652 
2329	 0.109613506278016 
2330	 0.109931942158552 
2331	 0.108872557762552 
2332	 0.107654793042423 
2333	 0.108258476522905 
2334	 0.107765445433053 
2335	 0.107219482341038 
2336	 0.107263384185468 
2337	 0.105040685701132 
2338	 0.103732072811153 
2339	 0.103549482851161 
2340	 0.102248110573377 
2341	 0.103000425612374 
2342	 0.101661084315444 
2343	 0.098580268674485 
2344	 9.82701903190636E-02 
2345	 9.71246838883848E-02 
2346	 9.68468128105843E-02 
2347	 9.84950417252481E-02 
2348	 9.95775559961596E-02 
2349	 0.102026594772169 
2350	 0.103474452135901 
2351	 0.101788348132701 
2352	 0.100138862430518 
2353	 9.68919469891344E-02 
2354	 9.40811088239916E-02 
2355	 9.46814926838699E-02 
2356	 9.58820273386729E-02 
2357	 9.60761987237669E-02 
2358	 9.59118797906372E-02 
2359	 9.64877999882626E-02 
2360	 0.095033011807487 
2361	 9.33517963005011E-02 
2362	 9.28437125498742E-02 
2363	 9.09788129233018E-02 
2364	 9.00687185406985E-02 
2365	 9.16586916427359E-02 
2366	 9.33655744693756E-02 
2367	 9.43958032967209E-02 
2368	 9.70497430838889E-02 
2369	 9.81270565636327E-02 
2370	 9.67569602320234E-02 
2371	 9.66348927864499E-02 
2372	 9.62450187254264E-02 
2373	 9.43471099894561E-02 
2374	 0.093991196344217 
2375	 9.49232900004868E-02 
2376	 9.46170783271323E-02 
2377	 9.41596958717677E-02 
2378	 9.21377950248575E-02 
2379	 8.97786306653952E-02 
2380	 8.88372512374403E-02 
2381	 8.70739267297455E-02 
2382	 8.65677569446964E-02 
2383	 8.61462769716428E-02 
2384	 8.56486215505412E-02 
2385	 8.63760469173026E-02 
2386	 8.62906298111651E-02 
2387	 8.66061287850136E-02 
2388	 8.71001557834169E-02 
2389	 8.67442447825724E-02 
2390	 0.086827516496023 
2391	 8.80391498035502E-02 
2392	 8.87045406464185E-02 
2393	 8.95461022029956E-02 
2394	 8.82141663672028E-02 
2395	 8.44458042038077E-02 
2396	 8.27576814238639E-02 
2397	 8.04057612136556E-02 
2398	 7.98185418384435E-02 
2399	 8.35627955260281E-02 
2400	 8.37691199642813E-02 
2401	 8.20729874290504E-02 
2402	 8.00530733761712E-02 
2403	 8.17941249013774E-02 
2404	 8.03262463714346E-02 
2405	 7.97244700600308E-02 
2406	 8.15460692554837E-02 
2407	 7.94339572209912E-02 
2408	 7.84578058515055E-02 
2409	 8.11754236158633E-02 
2410	 8.27930692775363E-02 
2411	 8.13933181800445E-02 
2412	 7.90644820801159E-02 
2413	 7.90431626596143E-02 
2414	 7.80063558471315E-02 
2415	 7.71398941622374E-02 
2416	 7.80580433359228E-02 
2417	 7.47870321928577E-02 
2418	 7.18212774726853E-02 
2419	 7.11130524189875E-02 
2420	 6.80485126512935E-02 
2421	 6.70926092546867E-02 
2422	 6.94299651348479E-02 
2423	 6.95173957587314E-02 
2424	 7.00186469756725E-02 
2425	 0.073205916038295 
2426	 7.53882300857888E-02 
2427	 7.77227368032872E-02 
2428	 8.04960922445501E-02 
2429	 8.04382140735191E-02 
2430	 0.07546476760896 
2431	 0.067155001977228 
2432	 6.06073325513001E-02 
2433	 0.058604930967408 
2434	 5.75337583207284E-02 
2435	 0.061293127494857 
2436	 6.31054891352249E-02 
2437	 6.41256995687493E-02 
2438	 6.48201436929523E-02 
2439	 6.55569512459284E-02 
2440	 6.72252296647177E-02 
2441	 7.04366167099726E-02 
2442	 7.18969479142286E-02 
2443	 7.25925349658233E-02 
2444	 7.13702651020586E-02 
2445	 6.66604775179796E-02 
2446	 6.33505788408976E-02 
2447	 0.059948189115965 
2448	 5.75617057447572E-02 
2449	 5.31836258588979E-02 
2450	 5.28192724583928E-02 
2451	 5.99858488403004E-02 
2452	 6.06764748432422E-02 
2453	 0.0592290417116 
2454	 0.061842086257552 
2455	 5.95773063391718E-02 
2456	 5.93651379979881E-02 
2457	 6.78775759157521E-02 
2458	 7.12465607758458E-02 
2459	 7.09601913689484E-02 
2460	 6.93074054356709E-02 
2461	 0.064298613653654 
2462	 6.20169127620862E-02 
2463	 6.06892727216584E-02 
2464	 5.86073807947203E-02 
2465	 0.057348985019117 
2466	 5.65954542734485E-02 
2467	 4.79379316046158E-02 
2468	 4.89691646990322E-02 
2469	 6.63306432073463E-02 
2470	 7.20163753641948E-02 
2471	 7.77446858591057E-02 
2472	 8.15324101440887E-02 
2473	 7.31340557262666E-02 
2474	 6.64897397935296E-02 
2475	 6.03465043142558E-02 
2476	 5.67021056427122E-02 
2477	 5.05613128954647E-02 
2478	 5.10251832701078E-02 
2479	 6.20627556946312E-02 
2480	 6.35841342238357E-02 
2481	 6.13763752370431E-02 
2482	 6.50742600825221E-02 
2483	 0.068253537437473 
2484	 7.69891731416245E-02 
2485	 8.64452818681747E-02 
2486	 0.134186197536988 
2487	 0.176588845552559 
2488	 0.201219993919971 
2489	 0.236877120966137 
2490	 0.237782702880969 
2491	 0.242625127068642 
2492	 0.215420994533317 
2493	 0.192801181834443 
2494	 0.160754026253035 
2495	 6.38231596817308E-02 
2496	 6.25854338820432E-02 
2497	 8.17633853513429E-02 
2498	 0.052654275002784 
2499	 5.47030356717949E-02 
2500	-9.12987816283091E-03 
