Wavelength	ref00051.asd
350	 7.02565223522488E-02 
351	 7.04061377160489E-02 
352	 6.94147374865928E-02 
353	 0.068824107589851 
354	 6.86999509135552E-02 
355	 6.85015476433382E-02 
356	 6.79830238772016E-02 
357	 6.78130176035009E-02 
358	 6.71309068694054E-02 
359	 6.64602905787635E-02 
360	 6.64668090393203E-02 
361	 6.66532863551721E-02 
362	 6.59277113070245E-02 
363	 6.48362204365561E-02 
364	 6.47734408535812E-02 
365	 6.41699969762359E-02 
366	 6.38351556716664E-02 
367	 6.39261046756247E-02 
368	 6.33128572440079E-02 
369	 6.31700520149666E-02 
370	 6.29430741537493E-02 
371	 6.22036219055185E-02 
372	 6.22305879641366E-02 
373	 6.19356575529707E-02 
374	 6.14003757299647E-02 
375	 6.12487976629742E-02 
376	 6.12214516694783E-02 
377	 6.09306201859218E-02 
378	 6.05096602836595E-02 
379	 6.06868594022042E-02 
380	 6.03351461513155E-02 
381	 5.99774611431852E-02 
382	 6.01107261290986E-02 
383	 6.02386446899746E-02 
384	 5.98851462968279E-02 
385	 5.94023573961747E-02 
386	 5.94020417781556E-02 
387	 5.94033188296746E-02 
388	 5.93287247037631E-02 
389	 5.91686325129462E-02 
390	 5.89611265078815E-02 
391	 5.87726313630229E-02 
392	 5.85334974491151E-02 
393	 5.82299048698409E-02 
394	 5.79914834303704E-02 
395	 5.81748357490672E-02 
396	 5.83834509977894E-02 
397	 5.81266260388034E-02 
398	 5.79466610120732E-02 
399	 0.057546718746635 
400	 5.70476805516369E-02 
401	 5.69049393345222E-02 
402	 5.69356652792546E-02 
403	 5.68819379990702E-02 
404	 5.67233735006834E-02 
405	 5.69659202346254E-02 
406	 5.69382604694189E-02 
407	 5.67575848548555E-02 
408	 5.67479192250504E-02 
409	 5.67631643146998E-02 
410	 5.68349374425957E-02 
411	 5.69098925480717E-02 
412	 5.68676307885581E-02 
413	 5.67731356468141E-02 
414	 0.056679705321609 
415	 0.056682229698615 
416	 5.70005399967259E-02 
417	 5.71407204694956E-02 
418	 5.71053642768948E-02 
419	 5.70480992375203E-02 
420	 5.68325567802275E-02 
421	 5.69932551745611E-02 
422	 5.74429167565834E-02 
423	 5.75628147808509E-02 
424	 5.76967102060675E-02 
425	 0.057818456785856 
426	 0.057886962897553 
427	 5.79327457471709E-02 
428	 5.81505206969228E-02 
429	 5.84246676462074E-02 
430	 5.85668591722209E-02 
431	 5.86731078477131E-02 
432	 5.87595534460561E-02 
433	 5.88732785059094E-02 
434	 5.90686790105863E-02 
435	 5.90195600481659E-02 
436	 5.90258992511481E-02 
437	 5.92676092108302E-02 
438	 5.95068716482509E-02 
439	 5.95344575608486E-02 
440	 5.95680441267851E-02 
441	 5.98467960653399E-02 
442	 5.97887626085417E-02 
443	 5.98066150387776E-02 
444	 5.99837647830666E-02 
445	 6.00486525504354E-02 
446	 0.060111967078803 
447	 0.060149564840802 
448	 0.060181669657555 
449	 6.04094266827052E-02 
450	 6.05397890148301E-02 
451	 6.05359542846579E-02 
452	 6.05048628211389E-02 
453	 6.06778674921497E-02 
454	 6.08085201790231E-02 
455	 6.08305996935661E-02 
456	 6.09301935593508E-02 
457	 0.060978267237185 
458	 6.10185985256369E-02 
459	 6.11003490437316E-02 
460	 6.11812702363861E-02 
461	 6.12116443905691E-02 
462	 6.12013958075737E-02 
463	 0.061200527238295 
464	 6.12604656068276E-02 
465	 0.061392319137096 
466	 6.15526033858837E-02 
467	 6.16288082754656E-02 
468	 6.16614432890449E-02 
469	 6.16551307336141E-02 
470	 6.16480387869609E-02 
471	 6.18417838923532E-02 
472	 6.19450330045073E-02 
473	 6.19376072390169E-02 
474	 6.19929619735259E-02 
475	 6.20586376668777E-02 
476	 6.20780708044351E-02 
477	 6.20598645517268E-02 
478	 6.21379437084123E-02 
479	 6.22210580645107E-02 
480	 0.06231938766945 
481	 6.24490778122177E-02 
482	 6.24807838265996E-02 
483	 0.062552523449476 
484	 6.27020883633069E-02 
485	 6.28569098063088E-02 
486	 6.30622639328449E-02 
487	 6.32463183576084E-02 
488	 6.33627560744045E-02 
489	 6.34755172532546E-02 
490	 6.36705584004157E-02 
491	 6.39268186089526E-02 
492	 6.41730702723874E-02 
493	 6.43433859784511E-02 
494	 6.46886079731614E-02 
495	 6.52258701773937E-02 
496	 6.56608919727877E-02 
497	 6.60510722113274E-02 
498	 6.65716445773731E-02 
499	 6.73203334292619E-02 
500	 6.80205051833009E-02 
501	 6.88782270446348E-02 
502	 6.98618176148665E-02 
503	 7.08114694601892E-02 
504	 0.071860422484319 
505	 7.30181108433289E-02 
506	 7.43407453369067E-02 
507	 7.59861792930463E-02 
508	 7.78147487634179E-02 
509	 7.97433374807534E-02 
510	 8.17726987637401E-02 
511	 8.41678880143315E-02 
512	 8.69055959715645E-02 
513	 8.99249330657573E-02 
514	 9.31601053245265E-02 
515	 9.67904314174687E-02 
516	 0.100727537614376 
517	 0.104935758117691 
518	 0.109713015775517 
519	 0.11454184408801 
520	 0.11939334026146 
521	 0.1244374590162 
522	 0.129672422656711 
523	 0.134861191194885 
524	 0.140046592712528 
525	 0.145534600326412 
526	 0.151028556451198 
527	 0.156513446957953 
528	 0.16194821356423 
529	 0.166987068096174 
530	 0.171732310552502 
531	 0.1762533227746 
532	 0.180623125138231 
533	 0.18490442969933 
534	 0.189047986290914 
535	 0.192926964801797 
536	 0.196337787149681 
537	 0.199665670841629 
538	 0.202837770770216 
539	 0.205709803905611 
540	 0.208526721981024 
541	 0.211336404462652 
542	 0.214009706824761 
543	 0.216303480070128 
544	 0.218663239904353 
545	 0.220967050067137 
546	 0.223105600870999 
547	 0.225214378597842 
548	 0.227223637491979 
549	 0.22909504664489 
550	 0.230776495084731 
551	 0.232066023536408 
552	 0.233171925589571 
553	 0.234100693076986 
554	 0.234581060793834 
555	 0.234756876895461 
556	 0.234639732041673 
557	 0.234224246258401 
558	 0.233557706799313 
559	 0.232613332605019 
560	 0.23139519226595 
561	 0.229937121406975 
562	 0.228395338942738 
563	 0.22655929100484 
564	 0.224386674764367 
565	 0.222238258402888 
566	 0.219891897485843 
567	 0.21731195874286 
568	 0.214546981084755 
569	 0.21174172988835 
570	 0.208769312021955 
571	 0.205683900295218 
572	 0.202702333526387 
573	 0.199765635387496 
574	 0.196953524855481 
575	 0.194283966667961 
576	 0.191629352026102 
577	 0.189125512173297 
578	 0.186826481730979 
579	 0.184718696175273 
580	 0.182710142814704 
581	 0.180810041417717 
582	 0.179021895299739 
583	 0.177325472793707 
584	 0.17578017286385 
585	 0.174360548931949 
586	 0.173020634143734 
587	 0.17170393820647 
588	 0.170472051882766 
589	 0.169328811053334 
590	 0.168248810169272 
591	 0.167124703204623 
592	 0.166143223376009 
593	 0.165367793773018 
594	 0.164633584856998 
595	 0.164077680375719 
596	 0.163588461534649 
597	 0.163010354956577 
598	 0.162439800616108 
599	 0.161863270400063 
600	 0.161263944043288 
601	 0.16062512054879 
602	 0.159882359018573 
603	 0.158965908105582 
604	 0.15786381035105 
605	 0.156691548586462 
606	 0.155365174275829 
607	 0.153861799734682 
608	 0.15220869642037 
609	 0.150491207110898 
610	 0.148763813342611 
611	 0.147035548282566 
612	 0.145245879240263 
613	 0.143447594656961 
614	 0.141674241583063 
615	 0.139950573487168 
616	 0.138266050008261 
617	 0.136602654484105 
618	 0.135063877529742 
619	 0.133783997910066 
620	 0.132585271192827 
621	 0.131568038432796 
622	 0.130762942023143 
623	 0.129986333838213 
624	 0.129418030656534 
625	 0.129008362992292 
626	 0.128655102205679 
627	 0.128446027654504 
628	 0.12833765551116 
629	 0.128262858685769 
630	 0.128143247509314 
631	 0.128018173285964 
632	 0.127807342345135 
633	 0.12745402947339 
634	 0.127029509264046 
635	 0.126344243497863 
636	 0.125377580500543 
637	 0.124196427014315 
638	 0.122814181562437 
639	 0.121217531595838 
640	 0.119426630247627 
641	 0.117555839729 
642	 0.11545850181936 
643	 0.113326014080952 
644	 0.111318809148426 
645	 0.109311760355933 
646	 0.107226731548086 
647	 0.105223501858872 
648	 0.103583762119313 
649	 0.102220806701023 
650	 0.100968699831427 
651	 0.099797155527586 
652	 9.88446012792901E-02 
653	 9.80277414849624E-02 
654	 9.72639931313806E-02 
655	 9.64567799131116E-02 
656	 0.095601123673697 
657	 0.094418984967941 
658	 9.30050691041228E-02 
659	 0.091527696139394 
660	 0.089982038240011 
661	 8.84358097418405E-02 
662	 8.69866002445462E-02 
663	 8.56805624563396E-02 
664	 8.43028976143496E-02 
665	 8.30261669313418E-02 
666	 8.20689229665532E-02 
667	 8.12234587153372E-02 
668	 8.04002281717547E-02 
669	 7.97064161923381E-02 
670	 7.93847263902678E-02 
671	 7.91116543902936E-02 
672	 0.078956878468067 
673	 7.89537451023248E-02 
674	 0.07884463127471 
675	 7.90698847869565E-02 
676	 7.95295660573878E-02 
677	 7.99383667514996E-02 
678	 0.080322284461026 
679	 8.08697436480941E-02 
680	 8.16384566002113E-02 
681	 8.25426720488563E-02 
682	 8.37953850948987E-02 
683	 8.53972674591865E-02 
684	 8.73885466810597E-02 
685	 8.99929065277263E-02 
686	 9.34355511970537E-02 
687	 9.81708602557396E-02 
688	 0.104199817513054 
689	 0.110796594548415 
690	 0.118430725207574 
691	 0.127658405592699 
692	 0.138432981755285 
693	 0.151129453058202 
694	 0.165583902023525 
695	 0.181376213777714 
696	 0.198218618262323 
697	 0.215596335663007 
698	 0.233521255893942 
699	 0.252064820091335 
700	 0.270658427946523 
701	 0.289271828565504 
702	 0.307729828377666 
703	 0.325579981846042 
704	 0.342719296913708 
705	 0.359172717336497 
706	 0.375140878374506 
707	 0.390650776224293 
708	 0.405681642245929 
709	 0.420160553239684 
710	 0.433951539297044 
711	 0.447363924837893 
712	 0.460433896227569 
713	 0.473063798265102 
714	 0.485056776103768 
715	 0.496365015920308 
716	 0.506901304836743 
717	 0.51699515013006 
718	 0.527090518589077 
719	 0.537652929031678 
720	 0.548301504527403 
721	 0.558328645442099 
722	 0.56714894974405 
723	 0.575021459355248 
724	 0.582625087336283 
725	 0.590086033674564 
726	 0.597308798849942 
727	 0.604194204602363 
728	 0.610799482736193 
729	 0.616941531207223 
730	 0.622594150745015 
731	 0.628042352883733 
732	 0.633552980580818 
733	 0.638456777718339 
734	 0.642804265414207 
735	 0.646761619334868 
736	 0.650447738080738 
737	 0.654048381966034 
738	 0.657445728095296 
739	 0.660568024170871 
740	 0.663410565154921 
741	 0.665953138564327 
742	 0.668259804190011 
743	 0.670393891959297 
744	 0.67236809426608 
745	 0.674124340210117 
746	 0.675656621707306 
747	 0.677004371522672 
748	 0.678210868238034 
749	 0.679485275912872 
750	 0.680803736816677 
751	 0.681725043346064 
752	 0.682648024446658 
753	 0.683446374703799 
754	 0.683988048307019 
755	 0.684633959663875 
756	 0.685272670223385 
757	 0.685733086726852 
758	 0.685939446045997 
759	 0.686843146235354 
760	 0.688961284514076 
761	 0.691889924419569 
762	 0.692375763683586 
763	 0.69206085608758 
764	 0.691693171576324 
765	 0.691369497537386 
766	 0.69067638849174 
767	 0.690091848213625 
768	 0.689798334157714 
769	 0.689801057855986 
770	 0.689623847211688 
771	 0.689771830240087 
772	 0.690184444637982 
773	 0.690317649734083 
774	 0.690302600790393 
775	 0.690382837018561 
776	 0.690657407592325 
777	 0.690954616540599 
778	 0.691024962785933 
779	 0.691059923532452 
780	 0.691266569300937 
781	 0.691415514893178 
782	 0.691603729558996 
783	 0.691821910782029 
784	 0.692015401550239 
785	 0.692262795363059 
786	 0.692342419601034 
787	 0.692300782794384 
788	 0.692469975996813 
789	 0.692573912572744 
790	 0.692699710514516 
791	 0.692904260260088 
792	 0.693022626934905 
793	 0.693506983504673 
794	 0.693984583534613 
795	 0.694044728003549 
796	 0.694270316635523 
797	 0.694402807636775 
798	 0.694524695456038 
799	 0.694856973360733 
800	 0.695017951449934 
801	 0.695092007085423 
802	 0.695209534292498 
803	 0.695491973055847 
804	 0.695982176967304 
805	 0.696379296777295 
806	 0.69654385615247 
807	 0.696812064542722 
808	 0.696930580297138 
809	 0.696906424993118 
810	 0.696788295062365 
811	 0.696469508944899 
812	 0.695905702864626 
813	 0.695273826594826 
814	 0.694833342919418 
815	 0.6942992192249 
816	 0.694219543228892 
817	 0.694702441001587 
818	 0.695288607528925 
819	 0.695991581452305 
820	 0.696533490288171 
821	 0.696809863714326 
822	 0.697041739079111 
823	 0.697148877940413 
824	 0.697425482305576 
825	 0.698041277272552 
826	 0.698618728149574 
827	 0.698945884674614 
828	 0.698966241915013 
829	 0.698819002059875 
830	 0.699158134187698 
831	 0.699690515923865 
832	 0.700175056268518 
833	 0.700501947722024 
834	 0.700923457465676 
835	 0.701339063677239 
836	 0.701766287591671 
837	 0.70239141922522 
838	 0.702927087063157 
839	 0.703345010523569 
840	 0.703653759137818 
841	 0.703822089479021 
842	 0.704032744934886 
843	 0.704309291344278 
844	 0.704586714332926 
845	 0.704679382811141 
846	 0.705017958704327 
847	 0.70535497536679 
848	 0.705314561825285 
849	 0.705592556734359 
850	 0.705826685547526 
851	 0.705978155908388 
852	 0.706247952979777 
853	 0.706338807166574 
854	 0.706552864252924 
855	 0.706995346309158 
856	 0.707448476632266 
857	 0.70753349634054 
858	 0.707644257235151 
859	 0.707944324585422 
860	 0.708034041947181 
861	 0.708191530095044 
862	 0.708458071988807 
863	 0.708769580923695 
864	 0.708949458216889 
865	 0.709105156937573 
866	 0.709362902637372 
867	 0.709767600046196 
868	 0.710083262344557 
869	 0.710071913989221 
870	 0.709948061678244 
871	 0.710103105325453 
872	 0.710660108826353 
873	 0.710935385837499 
874	 0.71092109999616 
875	 0.711111703560717 
876	 0.711584292027628 
877	 0.71185396994378 
878	 0.711873193174356 
879	 0.712059621934351 
880	 0.712202614055842 
881	 0.712503601425738 
882	 0.712920085360382 
883	 0.713040100310282 
884	 0.713164479065903 
885	 0.713401927320826 
886	 0.71367661146463 
887	 0.713665622413049 
888	 0.71351349725641 
889	 0.713522689991785 
890	 0.713728672732444 
891	 0.713414839998268 
892	 0.713050616704554 
893	 0.712935986852135 
894	 0.713055276988547 
895	 0.712509548559294 
896	 0.711949384506276 
897	 0.711494304196166 
898	 0.711147392398759 
899	 0.711481774714875 
900	 0.711973223967073 
901	 0.712264996458152 
902	 0.712311280808019 
903	 0.712852111902695 
904	 0.713247865514841 
905	 0.713392047735199 
906	 0.713509954156992 
907	 0.713298289409189 
908	 0.713157728142251 
909	 0.713115533092377 
910	 0.712905483821083 
911	 0.712981686413898 
912	 0.713140940255901 
913	 0.713387867925331 
914	 0.713930720609157 
915	 0.714291821146761 
916	 0.714298204502372 
917	 0.714237405543487 
918	 0.714753551541289 
919	 0.715331194812318 
920	 0.715900439627319 
921	 0.716504728957216 
922	 0.717186073614436 
923	 0.716780534607087 
924	 0.716114051740663 
925	 0.715604507841077 
926	 0.714483522797224 
927	 0.713475761554281 
928	 0.712401347689179 
929	 0.710808087434571 
930	 0.708198085000293 
931	 0.706742498949308 
932	 0.705284148843233 
933	 0.702748432063162 
934	 0.700586965314848 
935	 0.699723982031203 
936	 0.700632289992335 
937	 0.702130513191449 
938	 0.700927994528734 
939	 0.7009674040024 
940	 0.70080188404617 
941	 0.700174518969715 
942	 0.703227414185615 
943	 0.704107010272241 
944	 0.703290984852431 
945	 0.702268562363683 
946	 0.701002544238223 
947	 0.700341499620697 
948	 0.699846076636173 
949	 0.699279840602689 
950	 0.699559586353334 
951	 0.700351622197778 
952	 0.700216519996322 
953	 0.6989862181322 
954	 0.699439091830758 
955	 0.699811010705806 
956	 0.700620935639674 
957	 0.701728808696046 
958	 0.700823424613604 
959	 0.699167016307522 
960	 0.699249941907752 
961	 0.701301102399033 
962	 0.701300815610645 
963	 0.700627944199878 
964	 0.7002066181298 
965	 0.700768769816627 
966	 0.702707491359172 
967	 0.704295447364912 
968	 0.704466660039162 
969	 0.703856895824269 
970	 0.705082642512439 
971	 0.704741872341333 
972	 0.704778460716589 
973	 0.706129279828521 
974	 0.706780609728113 
975	 0.70554026479727 
976	 0.705043599115861 
977	 0.706488780287641 
978	 0.708103580399332 
979	 0.707905552710935 
980	 0.707527555354333 
981	 0.707617969714343 
982	 0.707334290870763 
983	 0.709423466521787 
984	 0.710848751900898 
985	 0.710289584443843 
986	 0.709222484995176 
987	 0.711451539905183 
988	 0.713670448628485 
989	 0.714252690922338 
990	 0.714033727793817 
991	 0.715521663046082 
992	 0.716137286267852 
993	 0.716004480689706 
994	 0.716606228193554 
995	 0.715488858550209 
996	 0.71552937163743 
997	 0.716227086320794 
998	 0.715820589076894 
999	 0.715387256949153 
1000	 0.71646712540548 
1001	 0.720173012460131 
1002	 0.720820478753867 
1003	 0.721263733850886 
1004	 0.72164912662903 
1005	 0.722081794983667 
1006	 0.722344199056051 
1007	 0.72270850869854 
1008	 0.723182829739878 
1009	 0.723663842295062 
1010	 0.724206861668428 
1011	 0.7245988042494 
1012	 0.724792280709962 
1013	 0.725342172771582 
1014	 0.72576724972901 
1015	 0.726148019027758 
1016	 0.726914560309181 
1017	 0.727370608325584 
1018	 0.727716518009934 
1019	 0.727874754400589 
1020	 0.728217274642616 
1021	 0.728426807414809 
1022	 0.728814638772476 
1023	 0.729446406975775 
1024	 0.729930347816637 
1025	 0.730197049829829 
1026	 0.730375415190872 
1027	 0.730595648733815 
1028	 0.73090923482512 
1029	 0.731361066815575 
1030	 0.732033879198343 
1031	 0.732626881998197 
1032	 0.733006095992677 
1033	 0.733310361331024 
1034	 0.73336870633649 
1035	 0.733634108818011 
1036	 0.73394266584062 
1037	 0.734193251313517 
1038	 0.734430502723045 
1039	 0.734810659567927 
1040	 0.735207817773567 
1041	 0.735560171252621 
1042	 0.736037285790355 
1043	 0.736340708714438 
1044	 0.73632159834684 
1045	 0.736340337170612 
1046	 0.736416320609281 
1047	 0.736557253431558 
1048	 0.736778115881056 
1049	 0.737117655474657 
1050	 0.737432373571507 
1051	 0.737792466997767 
1052	 0.737969779002799 
1053	 0.738165762246848 
1054	 0.738308105524001 
1055	 0.73830801554558 
1056	 0.738521007700853 
1057	 0.738954144566918 
1058	 0.739231084635075 
1059	 0.739316669283545 
1060	 0.739477870693426 
1061	 0.739531446344508 
1062	 0.739452708685659 
1063	 0.739601242584723 
1064	 0.739737508551388 
1065	 0.739777341824929 
1066	 0.739701256701376 
1067	 0.739798068493293 
1068	 0.739905642732004 
1069	 0.739975875021749 
1070	 0.740089603926968 
1071	 0.740197737700089 
1072	 0.740227544269367 
1073	 0.740256889284228 
1074	 0.740316407836222 
1075	 0.740324057640585 
1076	 0.740493811274033 
1077	 0.740549650099459 
1078	 0.74046290639883 
1079	 0.740490401724805 
1080	 0.740343282286624 
1081	 0.740199426811055 
1082	 0.739981787998641 
1083	 0.73993165049242 
1084	 0.739870581612651 
1085	 0.739720512004179 
1086	 0.739537818386434 
1087	 0.739323064779007 
1088	 0.739008020327135 
1089	 0.738739989318816 
1090	 0.738653798056999 
1091	 0.738506550784016 
1092	 0.738328128705919 
1093	 0.738283915559058 
1094	 0.737953109244095 
1095	 0.737488342047195 
1096	 0.73705191941517 
1097	 0.736447933121927 
1098	 0.735904084814749 
1099	 0.735382828503624 
1100	 0.734951107686408 
1101	 0.734425281781321 
1102	 0.733912574185778 
1103	 0.733371420997902 
1104	 0.732799149441199 
1105	 0.732227606998791 
1106	 0.731661584378687 
1107	 0.731016754741304 
1108	 0.730182208631795 
1109	 0.729100114788297 
1110	 0.727966744299086 
1111	 0.726829607483267 
1112	 0.725619102365489 
1113	 0.724192394773453 
1114	 0.72258733838153 
1115	 0.720819431410693 
1116	 0.718624095375395 
1117	 0.716532786849715 
1118	 0.714403278996016 
1119	 0.712457698963877 
1120	 0.710551618863092 
1121	 0.708841760746683 
1122	 0.707953629430616 
1123	 0.7070127475978 
1124	 0.705826886447752 
1125	 0.704912966438338 
1126	 0.704199353218659 
1127	 0.703257071224185 
1128	 0.702817975887376 
1129	 0.703242246536138 
1130	 0.703122065261747 
1131	 0.702972543694113 
1132	 0.702674507787622 
1133	 0.702368024916578 
1134	 0.701737226259047 
1135	 0.701074585247649 
1136	 0.700192882322502 
1137	 0.699182335591077 
1138	 0.698220886790526 
1139	 0.696893117216906 
1140	 0.695433531495591 
1141	 0.693999194065861 
1142	 0.692346402312336 
1143	 0.690778353320019 
1144	 0.689206203205606 
1145	 0.687634315290837 
1146	 0.685914778224851 
1147	 0.684495515807987 
1148	 0.683183637477416 
1149	 0.682101565005778 
1150	 0.681196195015695 
1151	 0.6805380707024 
1152	 0.680126682906258 
1153	 0.679798555926005 
1154	 0.67957504622854 
1155	 0.679719221958513 
1156	 0.679932606725773 
1157	 0.680101195136294 
1158	 0.680390123237853 
1159	 0.680635991364019 
1160	 0.680837320802607 
1161	 0.681034555541284 
1162	 0.681147661140621 
1163	 0.68127243729003 
1164	 0.681249698505384 
1165	 0.68100360242705 
1166	 0.680926140401132 
1167	 0.680816146515279 
1168	 0.680796740533441 
1169	 0.680903133206416 
1170	 0.681004875145408 
1171	 0.681071373693356 
1172	 0.681096721708257 
1173	 0.681000414818516 
1174	 0.680910040386085 
1175	 0.680794857693885 
1176	 0.680634034858161 
1177	 0.680517577241783 
1178	 0.680438628203172 
1179	 0.680325057179193 
1180	 0.680217175036326 
1181	 0.68008597046686 
1182	 0.679907960821441 
1183	 0.679777476615358 
1184	 0.679592981466284 
1185	 0.679528525185635 
1186	 0.679599979287961 
1187	 0.679601404552361 
1188	 0.679627861474537 
1189	 0.679650099152599 
1190	 0.679715307168224 
1191	 0.679731133945716 
1192	 0.679684180733617 
1193	 0.679679322226083 
1194	 0.679710885943933 
1195	 0.679697360968741 
1196	 0.679710555821373 
1197	 0.679784288940245 
1198	 0.679872365439746 
1199	 0.679920804530947 
1200	 0.680027405037413 
1201	 0.680204293612202 
1202	 0.680436553723077 
1203	 0.680666622017117 
1204	 0.68094319032147 
1205	 0.681391058353013 
1206	 0.681704613910298 
1207	 0.681881088617331 
1208	 0.682189335844152 
1209	 0.682513796185235 
1210	 0.682852917675122 
1211	 0.683291340778962 
1212	 0.683737278428341 
1213	 0.684147648222727 
1214	 0.684527988839273 
1215	 0.684898286673524 
1216	 0.685262583741652 
1217	 0.685642188383867 
1218	 0.685990963634216 
1219	 0.686376564704636 
1220	 0.686800147838631 
1221	 0.687205180120376 
1222	 0.687643351773114 
1223	 0.688038768876674 
1224	 0.688374360055357 
1225	 0.68877624605807 
1226	 0.68922220494706 
1227	 0.689595292103412 
1228	 0.689930847005231 
1229	 0.690331965804191 
1230	 0.690751211685051 
1231	 0.691118958593111 
1232	 0.69154299003357 
1233	 0.692087790823074 
1234	 0.692500200305325 
1235	 0.692858147086487 
1236	 0.69320317821948 
1237	 0.693479921730716 
1238	 0.693827967635396 
1239	 0.694208569134334 
1240	 0.694535418586651 
1241	 0.694899957232354 
1242	 0.695195168488796 
1243	 0.695387150774242 
1244	 0.695627584481994 
1245	 0.695900921913587 
1246	 0.696124056537049 
1247	 0.696279024263546 
1248	 0.696503754283611 
1249	 0.696736982573677 
1250	 0.696970546163497 
1251	 0.697258256899923 
1252	 0.697584682299505 
1253	 0.697793997449201 
1254	 0.697943825888137 
1255	 0.698077435602329 
1256	 0.698122887672031 
1257	 0.698241073113535 
1258	 0.698363631931719 
1259	 0.698496754015096 
1260	 0.698672288729464 
1261	 0.698818508718697 
1262	 0.698931107184507 
1263	 0.699083213719249 
1264	 0.699254891966082 
1265	 0.699420652390326 
1266	 0.699700668455608 
1267	 0.699801564732805 
1268	 0.699752007806903 
1269	 0.699762488774403 
1270	 0.699647918664148 
1271	 0.699609746722812 
1272	 0.699663576973722 
1273	 0.699735847872372 
1274	 0.69971011952603 
1275	 0.699673296962298 
1276	 0.699552924679911 
1277	 0.699313236810888 
1278	 0.699186114667376 
1279	 0.699095861637601 
1280	 0.698910782553807 
1281	 0.698754505050997 
1282	 0.698514125924253 
1283	 0.698128711637725 
1284	 0.697822464611424 
1285	 0.697573226573268 
1286	 0.697237097369343 
1287	 0.696846466657263 
1288	 0.696477690883429 
1289	 0.696132989785771 
1290	 0.695678526278847 
1291	 0.695191788446136 
1292	 0.694665821896076 
1293	 0.693972644936756 
1294	 0.693353594817978 
1295	 0.692882389450203 
1296	 0.692216596204527 
1297	 0.691486721689873 
1298	 0.690695592379388 
1299	 0.689887876407562 
1300	 0.688969408381917 
1301	 0.688031424929156 
1302	 0.687085676495118 
1303	 0.686105417622757 
1304	 0.685002686537881 
1305	 0.683969354338397 
1306	 0.683034149753305 
1307	 0.681942364837363 
1308	 0.680811414871389 
1309	 0.679569840564452 
1310	 0.678175532920745 
1311	 0.676798305427908 
1312	 0.675337062908417 
1313	 0.673889558385051 
1314	 0.672458238283481 
1315	 0.670977975592723 
1316	 0.669576936248634 
1317	 0.667973759925057 
1318	 0.666165706167429 
1319	 0.664410303470801 
1320	 0.66250782105086 
1321	 0.660608522498571 
1322	 0.658759345192915 
1323	 0.657033239842303 
1324	 0.655002513275971 
1325	 0.652814947202795 
1326	 0.65057359727848 
1327	 0.648095684063581 
1328	 0.645626708953371 
1329	 0.643033792278313 
1330	 0.64053521220599 
1331	 0.637967397338692 
1332	 0.635505182934631 
1333	 0.633235154998542 
1334	 0.630921188334849 
1335	 0.628636825001299 
1336	 0.626366138652365 
1337	 0.624036862718242 
1338	 0.621807095227428 
1339	 0.619571694825254 
1340	 0.617257017371455 
1341	 0.614731106036645 
1342	 0.612233892680047 
1343	 0.609192351098622 
1344	 0.606346257465694 
1345	 0.603469902562608 
1346	 0.600314466813755 
1347	 0.59678400600031 
1348	 0.592788905734356 
1349	 0.588754153977582 
1350	 0.584022504124513 
1351	 0.579087726628217 
1352	 0.574750207312273 
1353	 0.569467944598595 
1354	 0.565118858413025 
1355	 0.558574535118346 
1356	 0.555727421492648 
1357	 0.547468843134245 
1358	 0.536115700705608 
1359	 0.521880526284552 
1360	 0.512797314910455 
1361	 0.495900820924959 
1362	 0.502473456749687 
1363	 0.491506416379877 
1364	 0.481705865641141 
1365	 0.470446594499859 
1366	 0.458489287895229 
1367	 0.450700510005863 
1368	 0.448997660386032 
1369	 0.449177156764282 
1370	 0.454093343391125 
1371	 0.453754445473313 
1372	 0.453312065142745 
1373	 0.452476687763452 
1374	 0.448091195357119 
1375	 0.445963940326096 
1376	 0.448482273967682 
1377	 0.445733013299767 
1378	 0.440755143000782 
1379	 0.434799346360752 
1380	 0.423464606123879 
1381	 0.40424544194448 
1382	 0.393690895367999 
1383	 0.386253397730013 
1384	 0.37627767305667 
1385	 0.369900415000158 
1386	 0.361893249444171 
1387	 0.349816462581925 
1388	 0.344891577911947 
1389	 0.346275249547402 
1390	 0.341866470033285 
1391	 0.338112444572583 
1392	 0.332606172026128 
1393	 0.323237350813645 
1394	 0.316213986064162 
1395	 0.309934546871076 
1396	 0.303637321054641 
1397	 0.298228161856219 
1398	 0.292075996702419 
1399	 0.286108369856547 
1400	 0.279551247404532 
1401	 0.27187161672148 
1402	 0.265280235961798 
1403	 0.260592453599205 
1404	 0.253964674072055 
1405	 0.246195499227526 
1406	 0.240710540729348 
1407	 0.235403665305371 
1408	 0.230429920541165 
1409	 0.226990930685672 
1410	 0.224196608235215 
1411	 0.220721367816227 
1412	 0.216394154444784 
1413	 0.214311854314661 
1414	 0.213100207514599 
1415	 0.211296865986614 
1416	 0.210497833385696 
1417	 0.208547621223607 
1418	 0.205748618108083 
1419	 0.203639043639554 
1420	 0.201515783557748 
1421	 0.1997026240156 
1422	 0.197893411186939 
1423	 0.196635401859985 
1424	 0.195813034312305 
1425	 0.194731126764786 
1426	 0.193683233338005 
1427	 0.192757467494637 
1428	 0.191697196881788 
1429	 0.190745771102542 
1430	 0.189985588099169 
1431	 0.18920610944096 
1432	 0.18842936299172 
1433	 0.187545278784753 
1434	 0.186604834510097 
1435	 0.185731914963639 
1436	 0.184610507379504 
1437	 0.183835040880544 
1438	 0.183289442007591 
1439	 0.182889790919673 
1440	 0.18270358582714 
1441	 0.182581663439041 
1442	 0.182565772504501 
1443	 0.182648961609621 
1444	 0.182648804871626 
1445	 0.18261159510112 
1446	 0.182839245187283 
1447	 0.183243312070772 
1448	 0.183643048929382 
1449	 0.184259226150414 
1450	 0.184680657321646 
1451	 0.185029636979229 
1452	 0.185335938142914 
1453	 0.185615016123925 
1454	 0.185920585448973 
1455	 0.186196081682663 
1456	 0.186445430162681 
1457	 0.186681752705019 
1458	 0.187037663920881 
1459	 0.187445065031015 
1460	 0.187807776228584 
1461	 0.188269583114068 
1462	 0.188732985051843 
1463	 0.18907957198714 
1464	 0.189656160528984 
1465	 0.19040276953853 
1466	 0.19129350467393 
1467	 0.192258006559198 
1468	 0.193488098452293 
1469	 0.194937951538849 
1470	 0.196483474265897 
1471	 0.198257168441391 
1472	 0.199917746653183 
1473	 0.20141649738045 
1474	 0.203095981601077 
1475	 0.204650714340132 
1476	 0.206420101544031 
1477	 0.208303784041079 
1478	 0.210314673666845 
1479	 0.212429978298671 
1480	 0.214596713574149 
1481	 0.216795798418274 
1482	 0.219102411402914 
1483	 0.221516240944255 
1484	 0.223855993218942 
1485	 0.226140631722208 
1486	 0.228515207455228 
1487	 0.230923699372007 
1488	 0.233162441953078 
1489	 0.235423724387054 
1490	 0.23781053967694 
1491	 0.240147750058028 
1492	 0.242479301596565 
1493	 0.244874493968408 
1494	 0.247192345756658 
1495	 0.249470529432776 
1496	 0.251738069725491 
1497	 0.253921226617818 
1498	 0.256085990334521 
1499	 0.258295052244259 
1500	 0.260435056489006 
1501	 0.262796912345505 
1502	 0.265342655160071 
1503	 0.267817212004337 
1504	 0.270371817519477 
1505	 0.272893076586822 
1506	 0.275396074860471 
1507	 0.277845069829702 
1508	 0.280349259053092 
1509	 0.282671674189726 
1510	 0.284782582061407 
1511	 0.28711523413343 
1512	 0.289493557840399 
1513	 0.291818502286131 
1514	 0.29426383195709 
1515	 0.29662207402965 
1516	 0.298882383905378 
1517	 0.301204321090507 
1518	 0.30361866296533 
1519	 0.305942252780267 
1520	 0.308182354819312 
1521	 0.310498585787806 
1522	 0.31287608784995 
1523	 0.315166921851401 
1524	 0.317494726462945 
1525	 0.319739988640549 
1526	 0.321852001140692 
1527	 0.324040639714004 
1528	 0.326281275929785 
1529	 0.328449212101379 
1530	 0.330583064731298 
1531	 0.332748410647109 
1532	 0.334941561571171 
1533	 0.337036715473121 
1534	 0.339099520790948 
1535	 0.341175387879984 
1536	 0.34313529923889 
1537	 0.345182073264777 
1538	 0.347402570252654 
1539	 0.349443400432887 
1540	 0.351363543067702 
1541	 0.353335601948556 
1542	 0.35520803132202 
1543	 0.357150959604015 
1544	 0.359299727120877 
1545	 0.361226791016721 
1546	 0.362957148058877 
1547	 0.364812075847877 
1548	 0.366597100694858 
1549	 0.368422959055783 
1550	 0.370454374544813 
1551	 0.372338181585747 
1552	 0.374095286135663 
1553	 0.375882703244694 
1554	 0.377607183952973 
1555	 0.379366353373144 
1556	 0.381216476841438 
1557	 0.382964163317356 
1558	 0.384663909726507 
1559	 0.386344874624293 
1560	 0.387918156920314 
1561	 0.389537206091516 
1562	 0.391230135346448 
1563	 0.392858271338257 
1564	 0.394409683620038 
1565	 0.396062064100386 
1566	 0.397756696398755 
1567	 0.39926597517717 
1568	 0.400870547963061 
1569	 0.402555826197925 
1570	 0.404058639423183 
1571	 0.405436901175603 
1572	 0.406952093808801 
1573	 0.408385198457165 
1574	 0.409986801913394 
1575	 0.411750768819575 
1576	 0.413353894367296 
1577	 0.414939585526997 
1578	 0.416459298219663 
1579	 0.417916256308755 
1580	 0.419277794169975 
1581	 0.420540222252243 
1582	 0.421871609885705 
1583	 0.423099623147999 
1584	 0.424487497330691 
1585	 0.426020955727412 
1586	 0.427416420101252 
1587	 0.428842533667723 
1588	 0.430143019528974 
1589	 0.431328987479216 
1590	 0.432591438300908 
1591	 0.433829773715953 
1592	 0.435075036853779 
1593	 0.436346046433302 
1594	 0.437616629797282 
1595	 0.438898688661505 
1596	 0.44010559269447 
1597	 0.441313530803609 
1598	 0.442494578363815 
1599	 0.443625903606098 
1600	 0.44470189795955 
1601	 0.445717370709242 
1602	 0.446856579219516 
1603	 0.447954704512518 
1604	 0.449129204784162 
1605	 0.450465265627008 
1606	 0.451674197710767 
1607	 0.452834320688893 
1608	 0.453934779560932 
1609	 0.45500189910084 
1610	 0.456045293670848 
1611	 0.457031690500182 
1612	 0.457952998594051 
1613	 0.458802625319152 
1614	 0.459749464424304 
1615	 0.460657654134394 
1616	 0.461579140195878 
1617	 0.462600757636166 
1618	 0.463538600834849 
1619	 0.464391398895138 
1620	 0.465281480224162 
1621	 0.466246740199871 
1622	 0.467052883947247 
1623	 0.46774652451067 
1624	 0.468507016335436 
1625	 0.469232553503784 
1626	 0.46995243616108 
1627	 0.470675944167415 
1628	 0.471453673606017 
1629	 0.472255228397513 
1630	 0.472982878314706 
1631	 0.473771061981802 
1632	 0.474453839694208 
1633	 0.475011068653022 
1634	 0.475603352509632 
1635	 0.476170369578052 
1636	 0.476820153155279 
1637	 0.477464504384506 
1638	 0.478155178982886 
1639	 0.478990628815733 
1640	 0.479600114543672 
1641	 0.480153699346107 
1642	 0.480569365041624 
1643	 0.480776881771216 
1644	 0.481137265256693 
1645	 0.481481004840884 
1646	 0.481801232579925 
1647	 0.48214859411529 
1648	 0.482548176052136 
1649	 0.482895668349585 
1650	 0.483304531078963 
1651	 0.48386985554227 
1652	 0.484191740890475 
1653	 0.484398576731021 
1654	 0.484666568676454 
1655	 0.484910833318582 
1656	 0.485022006184806 
1657	 0.485101610198123 
1658	 0.485034037242216 
1659	 0.484955948883277 
1660	 0.484841996631842 
1661	 0.484805794791128 
1662	 0.484793608590336 
1663	 0.484676474218885 
1664	 0.484527522634262 
1665	 0.484431968435148 
1666	 0.484317662096042 
1667	 0.484070126950021 
1668	 0.483969086415938 
1669	 0.483888901765695 
1670	 0.483671662048719 
1671	 0.483534862627451 
1672	 0.483310080435906 
1673	 0.483051733873768 
1674	 0.483012103077722 
1675	 0.48305350546887 
1676	 0.48305851981002 
1677	 0.483136150860546 
1678	 0.483033312070497 
1679	 0.482721026791704 
1680	 0.482575480040415 
1681	 0.482473374289946 
1682	 0.482219320590082 
1683	 0.481967721235777 
1684	 0.481806965344369 
1685	 0.481462551936812 
1686	 0.481170437777132 
1687	 0.481087349408817 
1688	 0.480838753727732 
1689	 0.480507047258405 
1690	 0.479919176616935 
1691	 0.479465978821115 
1692	 0.478874212760703 
1693	 0.478412722694272 
1694	 0.47820749377841 
1695	 0.477895855671911 
1696	 0.477562771751366 
1697	 0.47721594669992 
1698	 0.476855417031884 
1699	 0.476449855958967 
1700	 0.47610910497873 
1701	 0.475589098608489 
1702	 0.474882058071732 
1703	 0.47423936313495 
1704	 0.473462572395834 
1705	 0.472743005204768 
1706	 0.472134538435471 
1707	 0.471449290127334 
1708	 0.470635625024061 
1709	 0.470012465183489 
1710	 0.46951200094655 
1711	 0.468903852912564 
1712	 0.468423693005204 
1713	 0.467770519629266 
1714	 0.466853592741654 
1715	 0.466182575071629 
1716	 0.465651485222409 
1717	 0.464977376242429 
1718	 0.464359279357189 
1719	 0.463575585347122 
1720	 0.462530646139305 
1721	 0.461709975694933 
1722	 0.460954684302443 
1723	 0.460226916717566 
1724	 0.459611502438903 
1725	 0.458930824785847 
1726	 0.458150835268455 
1727	 0.457588460032982 
1728	 0.457117716086859 
1729	 0.456661932530967 
1730	 0.456423759177749 
1731	 0.455853407243618 
1732	 0.455297744191602 
1733	 0.454318821581372 
1734	 0.45345151702293 
1735	 0.452914469094377 
1736	 0.45206537823968 
1737	 0.451162121930968 
1738	 0.45029172282872 
1739	 0.449210458436847 
1740	 0.448149016677973 
1741	 0.447248480969611 
1742	 0.446255495964553 
1743	 0.445180510743417 
1744	 0.444081795225735 
1745	 0.442890145941526 
1746	 0.441847232344712 
1747	 0.440874862649424 
1748	 0.439731554565583 
1749	 0.438773869398753 
1750	 0.437827301075359 
1751	 0.436413903296668 
1752	 0.435125263593365 
1753	 0.434048903983979 
1754	 0.432661330819324 
1755	 0.431257057434659 
1756	 0.429945282045906 
1757	 0.428175479660902 
1758	 0.426997329325636 
1759	 0.426486420904433 
1760	 0.425552146160438 
1761	 0.424782415513996 
1762	 0.423811314999501 
1763	 0.422314416364466 
1764	 0.421227606294789 
1765	 0.420414916071399 
1766	 0.419264260794214 
1767	 0.417956068021321 
1768	 0.416964259311735 
1769	 0.416051924128037 
1770	 0.414989680835623 
1771	 0.41412502152662 
1772	 0.413176776314196 
1773	 0.411773319559739 
1774	 0.411239459785842 
1775	 0.410725445310244 
1776	 0.409823936495848 
1777	 0.408736891787756 
1778	 0.407593844297371 
1779	 0.406382103760141 
1780	 0.405467040144953 
1781	 0.405293024313927 
1782	 0.404898871944341 
1783	 0.404381035612023 
1784	 0.404220170738438 
1785	 0.403625827547723 
1786	 0.403024365749838 
1787	 0.402670831956432 
1788	 0.402492807962953 
1789	 0.402277286979338 
1790	 0.40192354009379 
1791	 0.401768777115432 
1792	 0.400819624014169 
1793	 0.399756111091567 
1794	 0.399220881755612 
1795	 0.398479432295105 
1796	 0.398622198205682 
1797	 0.398558291218707 
1798	 0.397843785725695 
1799	 0.397583257778965 
1800	 0.395724115898555 
1801	 0.393706691154465 
1802	 0.391921503392085 
1803	 0.390893789149978 
1804	 0.392133941994237 
1805	 0.391413976196665 
1806	 0.388161985063333 
1807	 0.386875724096957 
1808	 0.386330941929433 
1809	 0.38568134716676 
1810	 0.385329028917666 
1811	 0.388090507055198 
1812	 0.386402727504988 
1813	 0.379276352746198 
1814	 0.377450905478614 
1815	 0.376501215778047 
1816	 0.375041757902643 
1817	 0.379336014534709 
1818	 0.380967238846074 
1819	 0.381168885353048 
1820	 0.376944635681281 
1821	 0.374626012184065 
1822	 0.370875521554416 
1823	 0.369759316346296 
1824	 0.371697489115015 
1825	 0.36942507065916 
1826	 0.365117335117827 
1827	 0.363577471963495 
1828	 0.361625245716957 
1829	 0.350816378026218 
1830	 0.348769376368257 
1831	 0.367663734158987 
1832	 0.369943857236595 
1833	 0.352462290542371 
1834	 0.352236943844085 
1835	 0.355276651841322 
1836	 0.359331209082234 
1837	 0.430426487476554 
1838	 0.447042725182908 
1839	 0.425985676232397 
1840	 0.322723172742145 
1841	 0.298648154568401 
1842	 0.2651098421172 
1843	 0.255012805576754 
1844	 0.278703100022039 
1845	 0.311078835519883 
1846	 0.368382707502174 
1847	 0.405093577082944 
1848	 0.444399582630523 
1849	 0.536479497893517 
1850	 0.535727512190821 
1851	 0.457911239518668 
1852	 0.421083440206929 
1853	 0.360150288189718 
1854	 0.326703532733165 
1855	 0.304717106375682 
1856	 0.303271850213711 
1857	 0.328624337952307 
1858	 0.334264753387895 
1859	 0.32171640308904 
1860	 0.292925402938807 
1861	 0.304938721988689 
1862	 0.317630452691661 
1863	 0.326730976613029 
1864	 0.395943556920404 
1865	 0.418810579905598 
1866	 0.39203291350205 
1867	 0.372644861611163 
1868	 0.368561700684979 
1869	 0.333023120340743 
1870	 0.324324401482923 
1871	 0.332438383538869 
1872	 0.324889485375141 
1873	 0.340443854272346 
1874	 0.319264666967341 
1875	 0.288654320670306 
1876	 0.259137090044174 
1877	 0.230185161736704 
1878	 0.204736037746739 
1879	 0.177948828305352 
1880	 0.163501616597516 
1881	 0.154384228841194 
1882	 0.147672783963559 
1883	 0.143351710888362 
1884	 0.143805532433607 
1885	 0.139054818204416 
1886	 0.132388633140999 
1887	 0.129479697789337 
1888	 0.111976376776964 
1889	 0.113173728236458 
1890	 0.107788546994997 
1891	 9.72622642673886E-02 
1892	 8.99742003823642E-02 
1893	 8.02800715385619E-02 
1894	 7.99101795980173E-02 
1895	 8.87449029904905E-02 
1896	 9.74560821661319E-02 
1897	 0.120633068246584 
1898	 0.141652640580645 
1899	 0.158796199152193 
1900	 0.160650693145827 
1901	 0.158094995639278 
1902	 0.127583051691581 
1903	 0.121884211471302 
1904	 0.125538611932227 
1905	 0.11829517051202 
1906	 0.117574743114814 
1907	 0.125587438585491 
1908	 9.95538565305004E-02 
1909	 8.09542728946482E-02 
1910	 8.91743301146757E-02 
1911	 0.070817394144506 
1912	 6.55025658818125E-02 
1913	 6.76776427743675E-02 
1914	 6.53334946002623E-02 
1915	 6.24287115916278E-02 
1916	 6.05897395472045E-02 
1917	 5.96242026946503E-02 
1918	 5.51669207335742E-02 
1919	 5.69479328231385E-02 
1920	 5.53596124160304E-02 
1921	 4.89806899261111E-02 
1922	 4.71350504504354E-02 
1923	 4.66389114650078E-02 
1924	 4.41685463431403E-02 
1925	 4.49705781485402E-02 
1926	 5.16924612399815E-02 
1927	 5.21033914755288E-02 
1928	 4.88471559273176E-02 
1929	 4.76793993145441E-02 
1930	 4.82191056353648E-02 
1931	 0.049939388509217 
1932	 5.35970468009922E-02 
1933	 5.35948736355042E-02 
1934	 5.32795534381676E-02 
1935	 0.051585361964618 
1936	 5.07552262640163E-02 
1937	 4.92341096917322E-02 
1938	 4.91098418988635E-02 
1939	 4.98722633472678E-02 
1940	 4.91435920951846E-02 
1941	 4.89918026202485E-02 
1942	 5.10379305475338E-02 
1943	 5.17267995696214E-02 
1944	 0.051133387114713 
1945	 0.051005843910093 
1946	 4.97453752401731E-02 
1947	 4.91992913558689E-02 
1948	 4.82256450571817E-02 
1949	 4.87287756152895E-02 
1950	 4.99729984030259E-02 
1951	 5.14756699747862E-02 
1952	 5.37166647603093E-02 
1953	 5.53177828873095E-02 
1954	 5.69974084417029E-02 
1955	 5.83473686534631E-02 
1956	 5.80428561485665E-02 
1957	 5.83771619967149E-02 
1958	 5.81275239795708E-02 
1959	 5.64991240329393E-02 
1960	 5.63620505659358E-02 
1961	 5.69591483334549E-02 
1962	 5.67638156095143E-02 
1963	 5.71540604956417E-02 
1964	 5.79688572767206E-02 
1965	 5.85577876827773E-02 
1966	 5.94214746559837E-02 
1967	 6.02051179295895E-02 
1968	 6.05453012763068E-02 
1969	 6.11299546259522E-02 
1970	 6.18665082886867E-02 
1971	 6.23163424480306E-02 
1972	 6.27547159848696E-02 
1973	 6.31157164989803E-02 
1974	 6.33122550082834E-02 
1975	 6.34098931158206E-02 
1976	 6.40751859155941E-02 
1977	 6.49138815378501E-02 
1978	 6.53886657117625E-02 
1979	 6.59721684287952E-02 
1980	 6.66629221209373E-02 
1981	 6.70707338456498E-02 
1982	 6.75885952629018E-02 
1983	 6.83175959930467E-02 
1984	 0.069007639675915 
1985	 0.069257831749135 
1986	 6.96421603506116E-02 
1987	 7.04525342647324E-02 
1988	 7.10424784121265E-02 
1989	 7.16063949272377E-02 
1990	 7.26143603627388E-02 
1991	 7.35571602072329E-02 
1992	 7.43946814835819E-02 
1993	 7.52788604193028E-02 
1994	 7.62398271502103E-02 
1995	 7.71506899281013E-02 
1996	 7.79452276528945E-02 
1997	 7.88348682014197E-02 
1998	 7.99109138349049E-02 
1999	 8.07835150936431E-02 
2000	 8.19611728834252E-02 
2001	 8.33274832742915E-02 
2002	 8.47667776652425E-02 
2003	 8.61099307468644E-02 
2004	 8.69499132853667E-02 
2005	 8.82001386929774E-02 
2006	 8.92546338416181E-02 
2007	 8.99807061166419E-02 
2008	 9.08426350872071E-02 
2009	 9.21283493667457E-02 
2010	 9.31166729259758E-02 
2011	 9.39190556241886E-02 
2012	 9.52693051001535E-02 
2013	 0.096769058102699 
2014	 9.76897846097285E-02 
2015	 9.87871919316605E-02 
2016	 9.90215054424056E-02 
2017	 9.92706675693227E-02 
2018	 0.100128385962977 
2019	 0.10082529683526 
2020	 0.101269081798764 
2021	 0.102753616629692 
2022	 0.104722364840163 
2023	 0.105864406467284 
2024	 0.106963004359261 
2025	 0.107832592254797 
2026	 0.107895944994442 
2027	 0.107766966752202 
2028	 0.108399587452147 
2029	 0.109430220129185 
2030	 0.110338397592918 
2031	 0.111670898251642 
2032	 0.112978839182673 
2033	 0.114451484899754 
2034	 0.115573408919371 
2035	 0.11662066188047 
2036	 0.11755377977504 
2037	 0.118281315201136 
2038	 0.119011567046941 
2039	 0.119465234613257 
2040	 0.119949453829227 
2041	 0.120698684724954 
2042	 0.121323136451889 
2043	 0.122484019767893 
2044	 0.123716437629977 
2045	 0.12471499237145 
2046	 0.125468253440606 
2047	 0.126439760708257 
2048	 0.127463881499054 
2049	 0.128671964320291 
2050	 0.129533940464232 
2051	 0.12996695422531 
2052	 0.130461146414878 
2053	 0.130893953076363 
2054	 0.132033439355921 
2055	 0.13364559335325 
2056	 0.135030570612662 
2057	 0.136192314740076 
2058	 0.136828722417481 
2059	 0.137682063081908 
2060	 0.138415418352636 
2061	 0.139244603440146 
2062	 0.14002171109038 
2063	 0.141312618539524 
2064	 0.142385882973513 
2065	 0.143435963300623 
2066	 0.144440984823572 
2067	 0.14515902641011 
2068	 0.14575958981754 
2069	 0.14593521679858 
2070	 0.146897217570421 
2071	 0.148547131933548 
2072	 0.149703368514311 
2073	 0.150926228786306 
2074	 0.152159159260487 
2075	 0.152907726072586 
2076	 0.153394329530052 
2077	 0.154382036998783 
2078	 0.155773395898635 
2079	 0.157189279342194 
2080	 0.158355954247934 
2081	 0.159372110794603 
2082	 0.160274787359379 
2083	 0.1610869376553 
2084	 0.161729488709801 
2085	 0.162439004285266 
2086	 0.163489100307166 
2087	 0.164325416308038 
2088	 0.165153837738766 
2089	 0.166008870898869 
2090	 0.166796830300932 
2091	 0.167414904297019 
2092	 0.168192819819905 
2093	 0.169506440588676 
2094	 0.170892574837007 
2095	 0.1716844072193 
2096	 0.172588400375843 
2097	 0.173503251961341 
2098	 0.174112529766835 
2099	 0.174861158272471 
2100	 0.17587401944322 
2101	 0.176955823335178 
2102	 0.178047096658911 
2103	 0.179190204512335 
2104	 0.180582828429373 
2105	 0.182002560451832 
2106	 0.182945176975911 
2107	 0.183863964061403 
2108	 0.185205806709813 
2109	 0.186095767866476 
2110	 0.186883962448824 
2111	 0.187872305961061 
2112	 0.188653072954665 
2113	 0.189527374809082 
2114	 0.190320773079701 
2115	 0.191131605246556 
2116	 0.191755320159964 
2117	 0.192354343763599 
2118	 0.192669986579958 
2119	 0.193623236214021 
2120	 0.19482687001979 
2121	 0.196015638989324 
2122	 0.197612349697175 
2123	 0.198843512413519 
2124	 0.199354084922578 
2125	 0.199985506935618 
2126	 0.200293152500841 
2127	 0.200214556290067 
2128	 0.200707452278581 
2129	 0.201333792532798 
2130	 0.202210941985893 
2131	 0.203463658213489 
2132	 0.204465324791232 
2133	 0.205563097891811 
2134	 0.206545399834929 
2135	 0.207402393206273 
2136	 0.208071035767634 
2137	 0.208986250180583 
2138	 0.209750685132122 
2139	 0.21045406047263 
2140	 0.211646087489337 
2141	 0.212815853059936 
2142	 0.213609395945071 
2143	 0.214141039578042 
2144	 0.214404985867244 
2145	 0.214473585696606 
2146	 0.21475211263004 
2147	 0.215326701658768 
2148	 0.215978794749531 
2149	 0.217059325044436 
2150	 0.2180360608036 
2151	 0.218734858120404 
2152	 0.219355179329088 
2153	 0.21972509315351 
2154	 0.219527709945014 
2155	 0.219975761894914 
2156	 0.220537434306119 
2157	 0.220814601150308 
2158	 0.221539824960348 
2159	 0.222148119139111 
2160	 0.222572362397126 
2161	 0.2233236348862 
2162	 0.224227200006926 
2163	 0.224527352266573 
2164	 0.224852305033647 
2165	 0.225610046549748 
2166	 0.226360973280858 
2167	 0.227546829860737 
2168	 0.228433452653728 
2169	 0.229130068706171 
2170	 0.229935370363043 
2171	 0.230840975501355 
2172	 0.231297998600345 
2173	 0.231587919751054 
2174	 0.231975175437767 
2175	 0.23214667481505 
2176	 0.232427837737619 
2177	 0.233053837006776 
2178	 0.233597299522871 
2179	 0.233726573622588 
2180	 0.23374805435331 
2181	 0.234048366011947 
2182	 0.234599469653088 
2183	 0.235344720246828 
2184	 0.235847838033637 
2185	 0.236184959153326 
2186	 0.236739897023274 
2187	 0.237369029403796 
2188	 0.238252976593346 
2189	 0.238873880180572 
2190	 0.239636538210116 
2191	 0.239868052413632 
2192	 0.239664512795212 
2193	 0.239847648414249 
2194	 0.240224486879272 
2195	 0.24068764876026 
2196	 0.241128281610951 
2197	 0.241803566112294 
2198	 0.242511212478326 
2199	 0.242750850233642 
2200	 0.243425021300324 
2201	 0.244067015572859 
2202	 0.24404497917801 
2203	 0.244445050754 
2204	 0.24523015848757 
2205	 0.245468592665289 
2206	 0.245876735988716 
2207	 0.245946626784232 
2208	 0.245877189733309 
2209	 0.245289853889488 
2210	 0.245297772805228 
2211	 0.245466413538728 
2212	 0.245622679489138 
2213	 0.245807027985824 
2214	 0.246109560387936 
2215	 0.246156587146465 
2216	 0.246017812997902 
2217	 0.245830110146004 
2218	 0.245959711406149 
2219	 0.245830330442444 
2220	 0.24565766569963 
2221	 0.246351629656323 
2222	 0.246535360810257 
2223	 0.246473550745959 
2224	 0.246962698814676 
2225	 0.247046558106614 
2226	 0.246354144444167 
2227	 0.24575445357915 
2228	 0.245481690377367 
2229	 0.24444098866241 
2230	 0.243684530370137 
2231	 0.243115502434641 
2232	 0.24216854512633 
2233	 0.241621970694277 
2234	 0.241694257265103 
2235	 0.241432136700851 
2236	 0.24089506675945 
2237	 0.240751772497698 
2238	 0.239249664451261 
2239	 0.237645397060228 
2240	 0.236919044259473 
2241	 0.235322521152656 
2242	 0.234599094040072 
2243	 0.23534713475459 
2244	 0.23506609351755 
2245	 0.23451794479672 
2246	 0.233678798933362 
2247	 0.231551173444432 
2248	 0.22945896019257 
2249	 0.228603041928713 
2250	 0.228152707007813 
2251	 0.22775268336097 
2252	 0.22740534883705 
2253	 0.226256180110682 
2254	 0.224709928850906 
2255	 0.223252187122625 
2256	 0.222165676415041 
2257	 0.221385511083218 
2258	 0.220538922778653 
2259	 0.219491325948547 
2260	 0.219189607878062 
2261	 0.218011836801935 
2262	 0.216717807908222 
2263	 0.216082733080464 
2264	 0.214479071988082 
2265	 0.213519972393165 
2266	 0.212276375273143 
2267	 0.211113542574981 
2268	 0.210934932000403 
2269	 0.210090722842771 
2270	 0.20985214065469 
2271	 0.20981049421685 
2272	 0.208683969188735 
2273	 0.207233136749416 
2274	 0.205981314998243 
2275	 0.204710100916468 
2276	 0.203592188501912 
2277	 0.202990139765963 
2278	 0.202973418820125 
2279	 0.202362359880807 
2280	 0.201488844793439 
2281	 0.200796113160784 
2282	 0.199041307836835 
2283	 0.197522672487947 
2284	 0.196351545994367 
2285	 0.194603544086639 
2286	 0.193583774154098 
2287	 0.193055375983819 
2288	 0.193133874236133 
2289	 0.19305246221431 
2290	 0.192806312597112 
2291	 0.191807915332755 
2292	 0.189979237936869 
2293	 0.188187298181584 
2294	 0.187818449410753 
2295	 0.187567130173833 
2296	 0.186859153524626 
2297	 0.187000307425811 
2298	 0.186322425502696 
2299	 0.185594124829928 
2300	 0.185455406160444 
2301	 0.18453657967191 
2302	 0.182222711298393 
2303	 0.179694168365849 
2304	 0.177986321629733 
2305	 0.176435045209866 
2306	 0.176501401316428 
2307	 0.176838769378768 
2308	 0.176413456142425 
2309	 0.176129627214105 
2310	 0.174488628398894 
2311	 0.173641552365567 
2312	 0.173909707414961 
2313	 0.17241462749114 
2314	 0.171604194660532 
2315	 0.171129502497465 
2316	 0.170171904413001 
2317	 0.170542494534544 
2318	 0.170424646449751 
2319	 0.169942866286725 
2320	 0.169445395850846 
2321	 0.168358879622147 
2322	 0.166212476338009 
2323	 0.165500766512065 
2324	 0.165285709652387 
2325	 0.164405031978843 
2326	 0.1642971435754 
2327	 0.163885134851606 
2328	 0.161807054888955 
2329	 0.160096224316076 
2330	 0.158019641868364 
2331	 0.155967048518249 
2332	 0.1560199213737 
2333	 0.156385513906803 
2334	 0.155911628283407 
2335	 0.156508202330964 
2336	 0.155884038143336 
2337	 0.153482330516532 
2338	 0.153112168709169 
2339	 0.15299807727426 
2340	 0.152145336104797 
2341	 0.151579029143537 
2342	 0.151128583880928 
2343	 0.15121603491174 
2344	 0.151148356628696 
2345	 0.150043573273125 
2346	 0.147416883092758 
2347	 0.14473864825929 
2348	 0.143832747131188 
2349	 0.145574591601346 
2350	 0.147969896744126 
2351	 0.147766164118488 
2352	 0.147064522125182 
2353	 0.146366578153965 
2354	 0.144303618097726 
2355	 0.14523489455612 
2356	 0.145440601252435 
2357	 0.142192932782247 
2358	 0.140271391758149 
2359	 0.138073527769015 
2360	 0.13701514048796 
2361	 0.137778843482886 
2362	 0.139760181058953 
2363	 0.140491087916827 
2364	 0.137718021561913 
2365	 0.135210036637157 
2366	 0.133570473310478 
2367	 0.133863821381459 
2368	 0.13462469284996 
2369	 0.134710834221083 
2370	 0.134152826869707 
2371	 0.13034241667299 
2372	 0.12822307852386 
2373	 0.127621926730493 
2374	 0.126736674278163 
2375	 0.125600411458463 
2376	 0.126000566010256 
2377	 0.12775544519228 
2378	 0.128186473503131 
2379	 0.128422174915475 
2380	 0.127935288289414 
2381	 0.126664301002795 
2382	 0.124306633360539 
2383	 0.120840097173843 
2384	 0.119903624327398 
2385	 0.120734635084849 
2386	 0.119726563536612 
2387	 0.118232134246638 
2388	 0.118240640668106 
2389	 0.116193500165764 
2390	 0.114600381882105 
2391	 0.116305945344361 
2392	 0.11617307038594 
2393	 0.114885020002266 
2394	 0.11386553573153 
2395	 0.112083398593292 
2396	 0.111818365610473 
2397	 0.112592553542417 
2398	 0.111478849119 
2399	 0.109827682395986 
2400	 0.10942576896757 
2401	 0.107784696467208 
2402	 0.107605164201446 
2403	 0.108222838138981 
2404	 0.10720876643777 
2405	 0.106031857624679 
2406	 0.102270136530979 
2407	 9.92786073246915E-02 
2408	 0.100950630378512 
2409	 0.103414102846667 
2410	 0.103835878456614 
2411	 0.101557659458886 
2412	 0.100593844239293 
2413	 0.095756419696908 
2414	 9.08744272951919E-02 
2415	 9.47359659021214E-02 
2416	 9.45181912724515E-02 
2417	 9.29166706384478E-02 
2418	 9.26328338735056E-02 
2419	 8.93309527087517E-02 
2420	 0.08728039434506 
2421	 8.32471603828688E-02 
2422	 7.90713322568734E-02 
2423	 7.93105654106222E-02 
2424	 0.082126033092896 
2425	 8.39256906050661E-02 
2426	 8.64184895953602E-02 
2427	 8.60826367724564E-02 
2428	 8.24343541161701E-02 
2429	 8.56249198112411E-02 
2430	 8.93849496190099E-02 
2431	 8.71878102269707E-02 
2432	 8.52928547006582E-02 
2433	 7.87936698273165E-02 
2434	 0.076243256214775 
2435	 7.94261850899153E-02 
2436	 8.06528253816043E-02 
2437	 8.24868849866104E-02 
2438	 8.37975987459738E-02 
2439	 8.44498598420154E-02 
2440	 8.56733623645518E-02 
2441	 8.86168881275935E-02 
2442	 8.70932391969339E-02 
2443	 8.00046817162311E-02 
2444	 7.58529821643538E-02 
2445	 6.96385325207703E-02 
2446	 6.66108588962773E-02 
2447	 7.04616013264597E-02 
2448	 7.15853129141975E-02 
2449	 7.16178525993996E-02 
2450	 7.07731829908197E-02 
2451	 6.87795329614109E-02 
2452	 6.84272744639321E-02 
2453	 6.91242816256192E-02 
2454	 6.72055569968558E-02 
2455	 6.30871582734835E-02 
2456	 6.20268109056323E-02 
2457	 0.061641713585699 
2458	 6.06830047847797E-02 
2459	 5.87696714986319E-02 
2460	 6.16253817403858E-02 
2461	 6.79661186355303E-02 
2462	 7.29423892023248E-02 
2463	 8.47105603046468E-02 
2464	 8.99194339161779E-02 
2465	 8.94040403443804E-02 
2466	 8.73574413268489E-02 
2467	 8.27719701478251E-02 
2468	 7.52674272433616E-02 
2469	 5.69367536710396E-02 
2470	 5.06064552336055E-02 
2471	 4.78067813349964E-02 
2472	 0.048989899232923 
2473	 6.91980823689242E-02 
2474	 7.29580412580863E-02 
2475	 6.51299211680829E-02 
2476	 6.03226487929264E-02 
2477	 4.64165435327899E-02 
2478	 3.95357694885213E-02 
2479	 3.77591305810734E-02 
2480	 4.19446732786572E-02 
2481	 0.05012016013262 
2482	 0.059892078899743 
2483	 8.56302597376496E-02 
2484	 9.56910669084537E-02 
2485	 9.90798190437593E-02 
2486	 0.070315266998607 
2487	 6.67717799771391E-02 
2488	 0.06466982686396 
2489	 9.16318908176862E-02 
2490	 0.164140462784829 
2491	 0.175404495071307 
2492	 0.156292984872748 
2493	 0.156715928157089 
2494	 0.118016602798534 
2495	 6.92877438975388E-02 
2496	 7.74297280334983E-02 
2497	 8.47697373741839E-02 
2498	 6.14073676028403E-02 
2499	 7.02633768817034E-02 
2500	 0.104004055427605 
