Wavelength	ref00093.asd
350	 0.311198593864279 
351	 0.309807191263598 
352	 0.308539886361911 
353	 0.306496607314781 
354	 0.305836552974962 
355	 0.305312478699031 
356	 0.304095518109313 
357	 0.303569511584646 
358	 0.302368876852169 
359	 0.300756793866751 
360	 0.299472216119548 
361	 0.29899046002775 
362	 0.297764777700695 
363	 0.296074360952788 
364	 0.295283896282739 
365	 0.294433989665129 
366	 0.293677331071771 
367	 0.292986252673379 
368	 0.291904856375716 
369	 0.290951968808948 
370	 0.290119963081312 
371	 0.289421845889245 
372	 0.289492992130908 
373	 0.288711886158634 
374	 0.287382633271245 
375	 0.286651564546944 
376	 0.285600245996646 
377	 0.284750345463751 
378	 0.284202422418876 
379	 0.283429027685696 
380	 0.282755111725093 
381	 0.282304064351605 
382	 0.282027367807677 
383	 0.281518825303218 
384	 0.28135413655671 
385	 0.280915605249349 
386	 0.279458360444862 
387	 0.278987757161172 
388	 0.278493034608891 
389	 0.277589904081916 
390	 0.276802135509622 
391	 0.276547969228314 
392	 0.276535755263253 
393	 0.276441477750404 
394	 0.276219980080192 
395	 0.2758575978576 
396	 0.275403332634575 
397	 0.274867602290542 
398	 0.273903445752235 
399	 0.273072080971219 
400	 0.272558499355895 
401	 0.272187587459376 
402	 0.271878322060549 
403	 0.27174485394143 
404	 0.271770583831639 
405	 0.27161715116737 
406	 0.271412355252743 
407	 0.271121016459879 
408	 0.270714374995187 
409	 0.270418136817438 
410	 0.270170299121793 
411	 0.269831248506124 
412	 0.269245597610216 
413	 0.268818579679642 
414	 0.268530859572533 
415	 0.268299729716888 
416	 0.268075918626749 
417	 0.26788550730503 
418	 0.267679075319967 
419	 0.267421385071951 
420	 0.267291522270274 
421	 0.266986398162704 
422	 0.266546226573111 
423	 0.266311977919895 
424	 0.266169116127428 
425	 0.265946027700455 
426	 0.265603511411824 
427	 0.265398618888385 
428	 0.265298443962591 
429	 0.265219657918501 
430	 0.265064135957456 
431	 0.26482564087496 
432	 0.264469770385037 
433	 0.264017940058744 
434	 0.263553428803945 
435	 0.263444885549708 
436	 0.263362355775245 
437	 0.263087661274653 
438	 0.262857928649262 
439	 0.262702546300916 
440	 0.262513628024613 
441	 0.262168607068145 
442	 0.261757714129591 
443	 0.261457745719951 
444	 0.261294526665647 
445	 0.261146892112942 
446	 0.260954712363963 
447	 0.260681127017427 
448	 0.26033153552021 
449	 0.259979290957882 
450	 0.259642914692264 
451	 0.259360212654728 
452	 0.259157008113327 
453	 0.258967586777398 
454	 0.258722343747471 
455	 0.258434020235768 
456	 0.258206765469911 
457	 0.25794545704914 
458	 0.257666003886189 
459	 0.257412033970718 
460	 0.257242844496483 
461	 0.257034469590979 
462	 0.256753799835347 
463	 0.256442270205406 
464	 0.256270283394543 
465	 0.256137881895805 
466	 0.255977478220842 
467	 0.255821106880263 
468	 0.255494839607353 
469	 0.255141462082616 
470	 0.254923291958976 
471	 0.254708092083039 
472	 0.254485160981459 
473	 0.25426105874318 
474	 0.254051352608651 
475	 0.253818203257682 
476	 0.253592861191532 
477	 0.253383290128617 
478	 0.253133184725379 
479	 0.252913265890084 
480	 0.252745052384063 
481	 0.25261147435168 
482	 0.252410963257087 
483	 0.252149272466426 
484	 0.25194753089333 
485	 0.252012205315661 
486	 0.252001052373875 
487	 0.251810672889949 
488	 0.251449048270758 
489	 0.251025824760589 
490	 0.25080579649314 
491	 0.250713862263507 
492	 0.250539282054613 
493	 0.250358376376473 
494	 0.250097135648458 
495	 0.249817242141349 
496	 0.249749145654354 
497	 0.249465858780446 
498	 0.249183792595197 
499	 0.249117087682883 
500	 0.248921001884738 
501	 0.248775652700973 
502	 0.248633208317206 
503	 0.248333899354478 
504	 0.248076952256811 
505	 0.24784039955442 
506	 0.247635091318571 
507	 0.247578483824064 
508	 0.247431079727574 
509	 0.2471936702805 
510	 0.246943582283952 
511	 0.246702223387951 
512	 0.246577461092995 
513	 0.246491941101574 
514	 0.246228977479866 
515	 0.246052367624998 
516	 0.245955073902188 
517	 0.245883296773218 
518	 0.245819541431562 
519	 0.24551435436662 
520	 0.24516453305354 
521	 0.245063530895796 
522	 0.244924437412922 
523	 0.244683461238438 
524	 0.244376350035981 
525	 0.244136229191735 
526	 0.244213420204086 
527	 0.244249935774827 
528	 0.243952282368773 
529	 0.243648960304207 
530	 0.243471967421358 
531	 0.243395734989949 
532	 0.243296181486405 
533	 0.243110931263179 
534	 0.242951569791359 
535	 0.242851537057433 
536	 0.242681418089424 
537	 0.242473784097676 
538	 0.242260424125144 
539	 0.242086747133332 
540	 0.242041495850249 
541	 0.24201782469018 
542	 0.241908411041727 
543	 0.241631815462958 
544	 0.2413264946765 
545	 0.241085283565591 
546	 0.24092757329593 
547	 0.240743357644545 
548	 0.240523494361295 
549	 0.24034197828631 
550	 0.240267449325016 
551	 0.240091320862553 
552	 0.239823718149731 
553	 0.239536112690601 
554	 0.23934785216537 
555	 0.239184100943928 
556	 0.238993072350475 
557	 0.238764392155204 
558	 0.238613435583316 
559	 0.23845682864234 
560	 0.238227164327798 
561	 0.237899595240849 
562	 0.237730895532752 
563	 0.237605680088249 
564	 0.237451346428497 
565	 0.23737313807227 
566	 0.237148636778291 
567	 0.236850718882788 
568	 0.236631981155545 
569	 0.236495500283684 
570	 0.236335452195627 
571	 0.236173964976545 
572	 0.236139364769479 
573	 0.235930706321414 
574	 0.235707263623514 
575	 0.23557085968773 
576	 0.235266532612228 
577	 0.234849437207524 
578	 0.234344299576611 
579	 0.233783750206096 
580	 0.233277178142888 
581	 0.232847283541555 
582	 0.232493501894944 
583	 0.23219710814412 
584	 0.232123158388021 
585	 0.232171934342787 
586	 0.232189613179252 
587	 0.232105445539611 
588	 0.232109127670784 
589	 0.232178775772153 
590	 0.232118203815254 
591	 0.231764410521088 
592	 0.231254110880974 
593	 0.23074406721412 
594	 0.230356468902737 
595	 0.230063401639573 
596	 0.229775804911519 
597	 0.229425353916134 
598	 0.229193700766657 
599	 0.228964443974945 
600	 0.228721431148598 
601	 0.228556184774797 
602	 0.228344727689711 
603	 0.228073774518707 
604	 0.227780427394978 
605	 0.227569586106487 
606	 0.227307792868684 
607	 0.227028985192751 
608	 0.22683666979841 
609	 0.226668270401478 
610	 0.226497577696151 
611	 0.226288885632982 
612	 0.225986854973577 
613	 0.225822831736638 
614	 0.225654949108274 
615	 0.225333275334757 
616	 0.22507602964734 
617	 0.224843040462272 
618	 0.224619657987418 
619	 0.224397722844823 
620	 0.22406106689015 
621	 0.223804983178534 
622	 0.223677522137285 
623	 0.223355631242113 
624	 0.223104315578414 
625	 0.222915281699074 
626	 0.222695607219093 
627	 0.222447540004793 
628	 0.222185139887631 
629	 0.221939338795885 
630	 0.221753113228797 
631	 0.221541271320031 
632	 0.221312100409268 
633	 0.221097376747021 
634	 0.220948600024637 
635	 0.22070649963809 
636	 0.2204491084113 
637	 0.220322711088098 
638	 0.220123543446992 
639	 0.219810883955513 
640	 0.219446992272626 
641	 0.219212866187777 
642	 0.218987631393269 
643	 0.2187230150811 
644	 0.218423197979455 
645	 0.218213999340622 
646	 0.217982203319315 
647	 0.2177342507646 
648	 0.217543067504419 
649	 0.21736607346902 
650	 0.217120252900221 
651	 0.216809873836834 
652	 0.216570799804105 
653	 0.216282728918048 
654	 0.215968053310689 
655	 0.215692826784107 
656	 0.215575239262659 
657	 0.215370477511647 
658	 0.215071707923963 
659	 0.214822656168191 
660	 0.214554622066063 
661	 0.214283052590727 
662	 0.214041436373101 
663	 0.213863647289472 
664	 0.21367737174906 
665	 0.213461173931386 
666	 0.213218607402701 
667	 0.21298155629967 
668	 0.212725849169576 
669	 0.212444315065614 
670	 0.212148509032317 
671	 0.211924403263811 
672	 0.211749564652602 
673	 0.21156213725976 
674	 0.211245944012302 
675	 0.210950776325061 
676	 0.210704784089671 
677	 0.210478710281459 
678	 0.21020437322887 
679	 0.209986509775852 
680	 0.209806332295756 
681	 0.209513509597911 
682	 0.209182649136335 
683	 0.208937164120869 
684	 0.208816768613751 
685	 0.208645775441121 
686	 0.208296462622976 
687	 0.207859411025003 
688	 0.207573554180632 
689	 0.207375586070645 
690	 0.207209551268523 
691	 0.207015543398247 
692	 0.206757564823444 
693	 0.206563064804733 
694	 0.206423239188699 
695	 0.206285194393143 
696	 0.206053216759783 
697	 0.205846850496564 
698	 0.205614682546152 
699	 0.20526274293743 
700	 0.204957867913852 
701	 0.204759897150836 
702	 0.204622535431397 
703	 0.204392247346223 
704	 0.20408527688977 
705	 0.203753483814201 
706	 0.203464150243451 
707	 0.203325746744298 
708	 0.203103139642922 
709	 0.20280912992033 
710	 0.202567649920787 
711	 0.202350530582367 
712	 0.202100171233499 
713	 0.201793808641919 
714	 0.2014550868671 
715	 0.201150570943676 
716	 0.200909344065017 
717	 0.200726652128995 
718	 0.200560494850161 
719	 0.200330986479305 
720	 0.200104103491597 
721	 0.199976827446991 
722	 0.199800764796529 
723	 0.199581402349902 
724	 0.199335384323452 
725	 0.199111168672821 
726	 0.19893686540042 
727	 0.198728260372586 
728	 0.198464577245448 
729	 0.198363808313612 
730	 0.198189386438612 
731	 0.197929254364428 
732	 0.197659547995781 
733	 0.197392855161475 
734	 0.197205693783377 
735	 0.197039961374379 
736	 0.196739578971389 
737	 0.196544649424161 
738	 0.196353132968377 
739	 0.196095198372956 
740	 0.195902980478353 
741	 0.195716919320114 
742	 0.195531569431716 
743	 0.195356853308478 
744	 0.195190689033517 
745	 0.195018579033246 
746	 0.194801209157036 
747	 0.194502725186743 
748	 0.19430524528013 
749	 0.194174114744954 
750	 0.194037511400618 
751	 0.193820134136449 
752	 0.193555170767185 
753	 0.193291524519695 
754	 0.193076961426508 
755	 0.192942062273989 
756	 0.192809941059948 
757	 0.19257623396658 
758	 0.192160073510463 
759	 0.191865418243874 
760	 0.191569674105102 
761	 0.191167430687222 
762	 0.19081443637129 
763	 0.190842541949782 
764	 0.190935824914125 
765	 0.190855357050963 
766	 0.190608516117664 
767	 0.190607318411705 
768	 0.190677027593496 
769	 0.190537527379356 
770	 0.190199008612667 
771	 0.190058612782712 
772	 0.19006680384852 
773	 0.189822626083877 
774	 0.189707322517535 
775	 0.189557696961792 
776	 0.189293709927754 
777	 0.189110062792965 
778	 0.188890865143761 
779	 0.188693234863157 
780	 0.188590023798284 
781	 0.1885636620788 
782	 0.188356376838427 
783	 0.18808293470455 
784	 0.18800241057171 
785	 0.187822771038808 
786	 0.18765383651719 
787	 0.187537408075196 
788	 0.187410837803699 
789	 0.187312681124133 
790	 0.187226391114323 
791	 0.187128844985232 
792	 0.187005575906663 
793	 0.186859309201814 
794	 0.186687949158984 
795	 0.186500547285898 
796	 0.186360858359692 
797	 0.186087019851497 
798	 0.185805204541888 
799	 0.185762735777716 
800	 0.185628398725087 
801	 0.185473781925834 
802	 0.185285802775244 
803	 0.184933954939879 
804	 0.184829016032895 
805	 0.184755669155399 
806	 0.18453926489171 
807	 0.18434725849405 
808	 0.184171606309102 
809	 0.183995850655965 
810	 0.183811075592222 
811	 0.183665431239884 
812	 0.183501562203847 
813	 0.183317743655621 
814	 0.183140320072451 
815	 0.182896395233967 
816	 0.182858328018116 
817	 0.182977401292506 
818	 0.182849410700056 
819	 0.182580280712457 
820	 0.182313526365912 
821	 0.182166258713145 
822	 0.182201317889868 
823	 0.182113862421918 
824	 0.181838854885447 
825	 0.181497990109658 
826	 0.181464006711843 
827	 0.181503841912625 
828	 0.181403103093308 
829	 0.181080392619644 
830	 0.181111653759384 
831	 0.181002235738361 
832	 0.1807446769881 
833	 0.180693762198542 
834	 0.180636077105797 
835	 0.180505332588104 
836	 0.1803341897569 
837	 0.180244830507164 
838	 0.180208883419854 
839	 0.180098809095063 
840	 0.179898487740961 
841	 0.179846857014793 
842	 0.17973495407834 
843	 0.179613771354823 
844	 0.179554122006467 
845	 0.179435714813231 
846	 0.179310881029369 
847	 0.179157246853768 
848	 0.178970057446305 
849	 0.179009228616443 
850	 0.179017764454008 
851	 0.17894183316156 
852	 0.178899841611396 
853	 0.178899473760214 
854	 0.178816102511128 
855	 0.178597978904377 
856	 0.17831191131784 
857	 0.178157341423456 
858	 0.178022886834828 
859	 0.177854515091119 
860	 0.177779445254723 
861	 0.177554138036789 
862	 0.177352176850398 
863	 0.177302199437527 
864	 0.177129420906641 
865	 0.1771710185463 
866	 0.177266351383581 
867	 0.177128212389629 
868	 0.176686161336486 
869	 0.176554925227018 
870	 0.176644269026092 
871	 0.176561162326698 
872	 0.176321692339694 
873	 0.17628858171029 
874	 0.176312739844125 
875	 0.175985514357527 
876	 0.175965949334836 
877	 0.17595080551417 
878	 0.175800654883257 
879	 0.175645055999709 
880	 0.175600520885048 
881	 0.175645927712385 
882	 0.175630225354067 
883	 0.175305895331177 
884	 0.17529989955389 
885	 0.175342805177365 
886	 0.175222066739455 
887	 0.175175763555474 
888	 0.174994345984871 
889	 0.174834933216952 
890	 0.17480727940534 
891	 0.174664568933527 
892	 0.174566489535479 
893	 0.17456205330903 
894	 0.174605236885647 
895	 0.174475520126541 
896	 0.174099460076643 
897	 0.173949988818688 
898	 0.174452687900153 
899	 0.174739663289855 
900	 0.174681549005889 
901	 0.174289142281659 
902	 0.173732231343011 
903	 0.173379582777986 
904	 0.173281275627177 
905	 0.173471009707549 
906	 0.173835039197825 
907	 0.173364078468719 
908	 0.173207407622874 
909	 0.173299218802444 
910	 0.172647629891608 
911	 0.172771942519077 
912	 0.172912461093363 
913	 0.172811475151828 
914	 0.172922408643246 
915	 0.173285877757617 
916	 0.172964541693955 
917	 0.172087138051434 
918	 0.171984576996376 
919	 0.172135980516362 
920	 0.172184916272801 
921	 0.172106696586921 
922	 0.172244639686121 
923	 0.172171449508857 
924	 0.172044812789524 
925	 0.171862866927145 
926	 0.171258635350095 
927	 0.171187885575953 
928	 0.171172444865568 
929	 0.171032803487783 
930	 0.171777349191816 
931	 0.172210416616263 
932	 0.172531186143283 
933	 0.172944264495045 
934	 0.172801428433017 
935	 0.17326057895758 
936	 0.173416046120372 
937	 0.172450765842228 
938	 0.170838914900795 
939	 0.171459426043559 
940	 0.171701502471369 
941	 0.170347688363424 
942	 0.171065302756219 
943	 0.172043507908696 
944	 0.172015246759381 
945	 0.170823403075868 
946	 0.17039096293558 
947	 0.170689553099583 
948	 0.170728328151808 
949	 0.170223446754058 
950	 0.170884196277739 
951	 0.170996499761449 
952	 0.170699231853779 
953	 0.170416705836773 
954	 0.170125287218599 
955	 0.169930380717086 
956	 0.169961172641188 
957	 0.170312194070154 
958	 0.171030435044084 
959	 0.16947160893507 
960	 0.168954202543402 
961	 0.170796932758641 
962	 0.170327823803445 
963	 0.169207163414817 
964	 0.168832669473594 
965	 0.169142962973426 
966	 0.167896666357478 
967	 0.167858790073893 
968	 0.16822684549751 
969	 0.168136311423608 
970	 0.167872021668806 
971	 0.167966843868299 
972	 0.167891181463119 
973	 0.167563059648345 
974	 0.167798877844753 
975	 0.168358647281201 
976	 0.168439989173732 
977	 0.167819880406941 
978	 0.167185070051653 
979	 0.167072957745067 
980	 0.166830052768762 
981	 0.166337837246307 
982	 0.16627261055485 
983	 0.167086772128202 
984	 0.166764334889519 
985	 0.165834023421062 
986	 0.166779984098435 
987	 0.166081851204698 
988	 0.166285552561848 
989	 0.166990416801922 
990	 0.16599663220968 
991	 0.168072815973217 
992	 0.167386337588864 
993	 0.165681403735791 
994	 0.167960030449485 
995	 0.167576688462533 
996	 0.166052942204526 
997	 0.16489619574919 
998	 0.165123725324286 
999	 0.166880771950247 
1000	 0.166813714736948 
1001	 0.154920662599077 
1002	 0.154965103629509 
1003	 0.154906787667909 
1004	 0.154963761681175 
1005	 0.154925246572591 
1006	 0.154761060488365 
1007	 0.154671059222399 
1008	 0.154665727989138 
1009	 0.154618419460365 
1010	 0.15456802243551 
1011	 0.15446287065554 
1012	 0.15431757569571 
1013	 0.15408832337396 
1014	 0.153951053267319 
1015	 0.153823706832273 
1016	 0.153728754248167 
1017	 0.153725533605658 
1018	 0.153668148170934 
1019	 0.15360971812687 
1020	 0.153490930362727 
1021	 0.153296992236586 
1022	 0.153183671829726 
1023	 0.153082732705904 
1024	 0.152934980377481 
1025	 0.152896719996298 
1026	 0.152963197048117 
1027	 0.152836536672159 
1028	 0.152676195877897 
1029	 0.152565066688849 
1030	 0.152293106478126 
1031	 0.152019018581271 
1032	 0.151957796804537 
1033	 0.151862216506378 
1034	 0.151710894153141 
1035	 0.151657265573039 
1036	 0.151783726740099 
1037	 0.151747993343981 
1038	 0.151679369776461 
1039	 0.151567202051937 
1040	 0.151409721845045 
1041	 0.151131411592803 
1042	 0.150944675392052 
1043	 0.150884994036998 
1044	 0.150743381734663 
1045	 0.150676756006229 
1046	 0.150702612565756 
1047	 0.150626622569639 
1048	 0.150506956863635 
1049	 0.150392223951523 
1050	 0.150269383946049 
1051	 0.150018242774304 
1052	 0.149891635560938 
1053	 0.149895021809294 
1054	 0.14973686926969 
1055	 0.149567392445417 
1056	 0.149426567743227 
1057	 0.149261134130152 
1058	 0.149248201869905 
1059	 0.149160136215573 
1060	 0.148980516700694 
1061	 0.148901325276687 
1062	 0.148816700024897 
1063	 0.148716158853121 
1064	 0.148608364321127 
1065	 0.148501390996899 
1066	 0.148338141553456 
1067	 0.148179568848371 
1068	 0.148097527108555 
1069	 0.148032771461975 
1070	 0.147932115676841 
1071	 0.14781398338283 
1072	 0.147697027618951 
1073	 0.147578702468757 
1074	 0.147499636646262 
1075	 0.147473064926638 
1076	 0.1474421320397 
1077	 0.147455418191881 
1078	 0.147521547859527 
1079	 0.147475046310711 
1080	 0.147331900936907 
1081	 0.147254105312129 
1082	 0.147176396999177 
1083	 0.147083939905328 
1084	 0.147025628680738 
1085	 0.147037186215404 
1086	 0.147085735246046 
1087	 0.147078092082902 
1088	 0.14700654450068 
1089	 0.146978822275616 
1090	 0.146810885042803 
1091	 0.146576859995351 
1092	 0.146516509379411 
1093	 0.146441018698574 
1094	 0.146292972842516 
1095	 0.146266720401847 
1096	 0.146239143798188 
1097	 0.146144899225558 
1098	 0.146115259334105 
1099	 0.146189593902803 
1100	 0.146235688408504 
1101	 0.146217938232024 
1102	 0.146149992766534 
1103	 0.146012190961418 
1104	 0.145910060533983 
1105	 0.145705191473931 
1106	 0.145527876206447 
1107	 0.145412833228103 
1108	 0.145271486746991 
1109	 0.145269932947838 
1110	 0.14526990446606 
1111	 0.145272652993627 
1112	 0.145377795547636 
1113	 0.145401443104262 
1114	 0.14536588907057 
1115	 0.145305579944385 
1116	 0.145210908323877 
1117	 0.145081016459465 
1118	 0.144916715908636 
1119	 0.144854688156455 
1120	 0.14485058474452 
1121	 0.14484642442762 
1122	 0.144854941930673 
1123	 0.14476089892636 
1124	 0.144760166909444 
1125	 0.144641384855055 
1126	 0.144554133123455 
1127	 0.144460488707592 
1128	 0.14449765203394 
1129	 0.144628442132534 
1130	 0.144621695086281 
1131	 0.14463234897603 
1132	 0.144536579763427 
1133	 0.144278169486269 
1134	 0.144142588270582 
1135	 0.144129955016872 
1136	 0.14395698149012 
1137	 0.143884125850625 
1138	 0.143911755799898 
1139	 0.143768707147118 
1140	 0.143743817919347 
1141	 0.143772470353506 
1142	 0.143606207693581 
1143	 0.143547482308396 
1144	 0.143522520750415 
1145	 0.143553234323358 
1146	 0.143667468418479 
1147	 0.143690226514969 
1148	 0.143776451943273 
1149	 0.143730185606805 
1150	 0.143521908172189 
1151	 0.143396652198624 
1152	 0.14324680796553 
1153	 0.143105312132892 
1154	 0.143131532725472 
1155	 0.143194992781441 
1156	 0.143267309388278 
1157	 0.143333161937084 
1158	 0.143257649428242 
1159	 0.143085943909322 
1160	 0.142981988844928 
1161	 0.142850357132696 
1162	 0.142766146120011 
1163	 0.142718431926691 
1164	 0.142664834344382 
1165	 0.14265286853251 
1166	 0.142568404880807 
1167	 0.142449279223968 
1168	 0.142345909613422 
1169	 0.142241807581728 
1170	 0.142044867720453 
1171	 0.141898667572509 
1172	 0.141843755570239 
1173	 0.14175631169376 
1174	 0.141698313914092 
1175	 0.141726464438669 
1176	 0.141693073866934 
1177	 0.141629581825393 
1178	 0.141555877477841 
1179	 0.141477740897316 
1180	 0.141318988193962 
1181	 0.141252149885578 
1182	 0.141278400555849 
1183	 0.141198729373435 
1184	 0.141079875681748 
1185	 0.140996312344541 
1186	 0.140866318726912 
1187	 0.140771044696761 
1188	 0.140714920924493 
1189	 0.1406743091613 
1190	 0.140664425552391 
1191	 0.140614701026918 
1192	 0.140521237836443 
1193	 0.140458169593157 
1194	 0.140434218802501 
1195	 0.140403989268143 
1196	 0.140358478003449 
1197	 0.14038399310098 
1198	 0.140329207305771 
1199	 0.140179480439234 
1200	 0.140083137757426 
1201	 0.140003893345392 
1202	 0.139934127065181 
1203	 0.13983864001197 
1204	 0.139792779243184 
1205	 0.139815496721598 
1206	 0.139781768376187 
1207	 0.139778518394102 
1208	 0.139727695216032 
1209	 0.139588587511957 
1210	 0.139484050773374 
1211	 0.139494875718021 
1212	 0.139415837118083 
1213	 0.139354881202514 
1214	 0.139341766641343 
1215	 0.139284828625724 
1216	 0.13915870789804 
1217	 0.13909950221094 
1218	 0.139074790510579 
1219	 0.139034223789186 
1220	 0.138994341899497 
1221	 0.138964544185551 
1222	 0.138963532763317 
1223	 0.138919302612048 
1224	 0.138864777593704 
1225	 0.138803278859325 
1226	 0.138687235671557 
1227	 0.138611787606653 
1228	 0.138563058791808 
1229	 0.138509155276981 
1230	 0.138439106788306 
1231	 0.138397596674269 
1232	 0.138360609880136 
1233	 0.138329344281457 
1234	 0.138285412889743 
1235	 0.138250379171629 
1236	 0.138222365661636 
1237	 0.13818635636565 
1238	 0.138141059799733 
1239	 0.138091326328367 
1240	 0.138070312532303 
1241	 0.138061250427681 
1242	 0.138036395453128 
1243	 0.138045231074519 
1244	 0.138020564637257 
1245	 0.137935200500294 
1246	 0.137886009465595 
1247	 0.137866784681736 
1248	 0.137827675371817 
1249	 0.137779184925411 
1250	 0.137739752941776 
1251	 0.137698060883974 
1252	 0.137646001617695 
1253	 0.137606089296248 
1254	 0.137576226601521 
1255	 0.137558903104673 
1256	 0.137557480518843 
1257	 0.137524162324783 
1258	 0.137490594104788 
1259	 0.137452450370742 
1260	 0.137386187021472 
1261	 0.137333618396529 
1262	 0.137306284984876 
1263	 0.137249822297732 
1264	 0.137133654692662 
1265	 0.137087180711182 
1266	 0.137112273219048 
1267	 0.137067701942029 
1268	 0.137027839992529 
1269	 0.136976990103802 
1270	 0.136844832164762 
1271	 0.136755133682092 
1272	 0.136697841388342 
1273	 0.136646867710007 
1274	 0.136614492695956 
1275	 0.136610981987928 
1276	 0.13655792341723 
1277	 0.136502759997227 
1278	 0.136444361171727 
1279	 0.136351977228549 
1280	 0.136273125252598 
1281	 0.136188041400068 
1282	 0.136147300554015 
1283	 0.136128240120501 
1284	 0.136088617963294 
1285	 0.136103663032477 
1286	 0.136058338931425 
1287	 0.135936232113326 
1288	 0.135862921765096 
1289	 0.135802403300728 
1290	 0.135734610481652 
1291	 0.135647586993643 
1292	 0.135610995464727 
1293	 0.135615253955269 
1294	 0.135593323037368 
1295	 0.135595628413979 
1296	 0.135581283399669 
1297	 0.135621503845898 
1298	 0.135665114437707 
1299	 0.135693473541121 
1300	 0.135785151448013 
1301	 0.135802121361758 
1302	 0.13574429621846 
1303	 0.135724969884916 
1304	 0.135717654049517 
1305	 0.135694302304011 
1306	 0.13563121614903 
1307	 0.135626434100658 
1308	 0.135660361800864 
1309	 0.135663896770358 
1310	 0.135689407037761 
1311	 0.135706132193364 
1312	 0.135674288852524 
1313	 0.135688830182302 
1314	 0.135767313934638 
1315	 0.135793777217813 
1316	 0.135813881665246 
1317	 0.13582062957601 
1318	 0.135821421236289 
1319	 0.135774195209609 
1320	 0.135635927183288 
1321	 0.13556508146411 
1322	 0.135553521605593 
1323	 0.135562391085702 
1324	 0.135528637687128 
1325	 0.135583790230251 
1326	 0.135540204097248 
1327	 0.135358507802375 
1328	 0.135288924797496 
1329	 0.135280887752793 
1330	 0.135228866511899 
1331	 0.135171873322882 
1332	 0.135125671524124 
1333	 0.135080674176494 
1334	 0.135019348773122 
1335	 0.134929874953773 
1336	 0.134894105742399 
1337	 0.134922614136186 
1338	 0.134864320882089 
1339	 0.13471947500573 
1340	 0.134709660751058 
1341	 0.134746521577069 
1342	 0.134719882087526 
1343	 0.134908010137499 
1344	 0.134918404621053 
1345	 0.134589149252451 
1346	 0.134256596411301 
1347	 0.134283845722911 
1348	 0.134232472577528 
1349	 0.134154973255381 
1350	 0.134406544951026 
1351	 0.134465131634823 
1352	 0.133992990533872 
1353	 0.13393048862648 
1354	 0.134531415524761 
1355	 0.13516499759491 
1356	 0.136435628301354 
1357	 0.137344807565789 
1358	 0.138130399416812 
1359	 0.138766800358932 
1360	 0.135177865571691 
1361	 0.132918686406537 
1362	 0.131776153809763 
1363	 0.130563397642847 
1364	 0.13121110649117 
1365	 0.132609323272244 
1366	 0.135764336816647 
1367	 0.138049663127951 
1368	 0.145649518141523 
1369	 0.14236956595373 
1370	 0.131678926683316 
1371	 0.128999204600806 
1372	 0.124119592446192 
1373	 0.122922764597703 
1374	 0.126951142540927 
1375	 0.130032116193543 
1376	 0.130227775280142 
1377	 0.130131230878068 
1378	 0.131140174035716 
1379	 0.13198062091408 
1380	 0.1328749731159 
1381	 0.13526922947031 
1382	 0.13551584232786 
1383	 0.134122805950152 
1384	 0.133956970219036 
1385	 0.134649896764736 
1386	 0.132900559119612 
1387	 0.129764997783995 
1388	 0.128903022124216 
1389	 0.127159830597737 
1390	 0.127403151917682 
1391	 0.12923794797929 
1392	 0.131037149090535 
1393	 0.13528958098682 
1394	 0.135225890210411 
1395	 0.133201572683224 
1396	 0.132493190241763 
1397	 0.1288827331103 
1398	 0.127923291715927 
1399	 0.129705584091831 
1400	 0.130530733801626 
1401	 0.132036462199902 
1402	 0.132399307666708 
1403	 0.131619427862696 
1404	 0.131638100459354 
1405	 0.131177514796488 
1406	 0.131546435828022 
1407	 0.132031516528849 
1408	 0.13226640495582 
1409	 0.132296562673175 
1410	 0.131604842110553 
1411	 0.131583853640254 
1412	 0.131901328916414 
1413	 0.131581508972653 
1414	 0.131138368682903 
1415	 0.130887791006692 
1416	 0.130231659586631 
1417	 0.130235011511696 
1418	 0.130810331397223 
1419	 0.130738330856201 
1420	 0.13060530174725 
1421	 0.130441059195769 
1422	 0.129954608334286 
1423	 0.129805079272058 
1424	 0.12984236196262 
1425	 0.129790452439896 
1426	 0.129745853786428 
1427	 0.129715428171239 
1428	 0.129607085008192 
1429	 0.129686239760764 
1430	 0.12999578312859 
1431	 0.130070497759795 
1432	 0.130050701579441 
1433	 0.130116090363742 
1434	 0.130097520256264 
1435	 0.130127879317207 
1436	 0.130481254317013 
1437	 0.13047885033042 
1438	 0.130005555745603 
1439	 0.129910807967368 
1440	 0.129762842161583 
1441	 0.129805764442587 
1442	 0.130300032492657 
1443	 0.130649138725623 
1444	 0.130443964454106 
1445	 0.130374459955305 
1446	 0.130284630350928 
1447	 0.130126618541901 
1448	 0.130132432337044 
1449	 0.130468067860302 
1450	 0.130304369408418 
1451	 0.129900445864675 
1452	 0.129742749065405 
1453	 0.129485145252043 
1454	 0.129390756681774 
1455	 0.129490822890231 
1456	 0.129439020217745 
1457	 0.12934971879749 
1458	 0.129259174707709 
1459	 0.129105540327115 
1460	 0.129046580113247 
1461	 0.129053814079512 
1462	 0.12896035522745 
1463	 0.12881858411421 
1464	 0.128781821087377 
1465	 0.128707852449267 
1466	 0.128666112309796 
1467	 0.12882065783173 
1468	 0.128825287991913 
1469	 0.128652879360936 
1470	 0.128628114337122 
1471	 0.128652617586904 
1472	 0.128650230427999 
1473	 0.128725524777927 
1474	 0.128751817093792 
1475	 0.128747182536064 
1476	 0.128731814610071 
1477	 0.128715464896214 
1478	 0.12866142660004 
1479	 0.12854482612617 
1480	 0.128468926708159 
1481	 0.128370925681869 
1482	 0.128339958039069 
1483	 0.12838412208628 
1484	 0.128380251463703 
1485	 0.128425886778625 
1486	 0.128393954651824 
1487	 0.128251344415172 
1488	 0.128203835177066 
1489	 0.12810680204265 
1490	 0.127988567125417 
1491	 0.127955943955757 
1492	 0.127870278901741 
1493	 0.127790652155128 
1494	 0.127820447884078 
1495	 0.127717090243727 
1496	 0.127531980789139 
1497	 0.127484860895847 
1498	 0.127455007318897 
1499	 0.127388830129144 
1500	 0.12739692947625 
1501	 0.127361648602226 
1502	 0.127228867937223 
1503	 0.127174681239648 
1504	 0.127212711287117 
1505	 0.127158226502305 
1506	 0.127033256986183 
1507	 0.127011098171422 
1508	 0.127021301565017 
1509	 0.126996800216127 
1510	 0.127027276561442 
1511	 0.126989553074507 
1512	 0.126859090508764 
1513	 0.126813488318428 
1514	 0.126777843917906 
1515	 0.126786027744957 
1516	 0.126900385999494 
1517	 0.126883030743562 
1518	 0.126800170828806 
1519	 0.126779386261554 
1520	 0.126711546858799 
1521	 0.12666585746388 
1522	 0.126714371784993 
1523	 0.126679115559428 
1524	 0.126534796121225 
1525	 0.126492126793107 
1526	 0.126511254511115 
1527	 0.12647589323243 
1528	 0.12646221943206 
1529	 0.126423057057673 
1530	 0.126295526425141 
1531	 0.126255106684376 
1532	 0.126328142544425 
1533	 0.126274405696746 
1534	 0.126100633128447 
1535	 0.126078852816196 
1536	 0.126112952661374 
1537	 0.126080295631243 
1538	 0.126154618964591 
1539	 0.126157767809995 
1540	 0.125962916959778 
1541	 0.125909120605803 
1542	 0.125970065031894 
1543	 0.125994456288632 
1544	 0.126090710307173 
1545	 0.126101296825693 
1546	 0.126012636882179 
1547	 0.125991653535281 
1548	 0.125953618063448 
1549	 0.125940803782348 
1550	 0.126034313401605 
1551	 0.12604328539459 
1552	 0.125990327453094 
1553	 0.125948650454641 
1554	 0.125873856420033 
1555	 0.125801052450734 
1556	 0.125752721641391 
1557	 0.125670504820747 
1558	 0.125509632720656 
1559	 0.125419995850462 
1560	 0.125353652727281 
1561	 0.125298133027335 
1562	 0.125329715400578 
1563	 0.125316059261619 
1564	 0.125273484283966 
1565	 0.125230646367073 
1566	 0.12518065035759 
1567	 0.125045331592633 
1568	 0.124932982175968 
1569	 0.124778079508518 
1570	 0.124693301640199 
1571	 0.124612255295143 
1572	 0.124592436474851 
1573	 0.124647286105675 
1574	 0.124635815796973 
1575	 0.124654356516363 
1576	 0.12458296611794 
1577	 0.12442319322524 
1578	 0.124377057125812 
1579	 0.124357046569048 
1580	 0.124271234636106 
1581	 0.124214447655557 
1582	 0.124138980171306 
1583	 0.123967403526961 
1584	 0.123911646791173 
1585	 0.123973198158043 
1586	 0.123885221284677 
1587	 0.123717048272441 
1588	 0.123679741892295 
1589	 0.123644616014382 
1590	 0.12359984776485 
1591	 0.123657776152786 
1592	 0.123619094457936 
1593	 0.123462424654217 
1594	 0.123429438736914 
1595	 0.123452709632437 
1596	 0.123463015342073 
1597	 0.123521625199532 
1598	 0.123503504748581 
1599	 0.123449986674099 
1600	 0.123428454317159 
1601	 0.12336564939269 
1602	 0.123363767483921 
1603	 0.123444674733458 
1604	 0.123411835126675 
1605	 0.123317556401823 
1606	 0.123309651345328 
1607	 0.123262638890165 
1608	 0.123306127080226 
1609	 0.123506686597738 
1610	 0.123511469836564 
1611	 0.123450813060371 
1612	 0.123396545836633 
1613	 0.123220692274145 
1614	 0.12318880046696 
1615	 0.123257434114531 
1616	 0.123239902303571 
1617	 0.123234000082108 
1618	 0.123205100621164 
1619	 0.123118207248479 
1620	 0.123066399261993 
1621	 0.123054031265472 
1622	 0.122991043295927 
1623	 0.122900089607456 
1624	 0.122813537302924 
1625	 0.122685006153414 
1626	 0.122625551033171 
1627	 0.122592854767686 
1628	 0.122568386942893 
1629	 0.122582708601875 
1630	 0.122590797850938 
1631	 0.122618468701037 
1632	 0.122585938176101 
1633	 0.122501937845269 
1634	 0.122541407058898 
1635	 0.122633290886769 
1636	 0.122629217098148 
1637	 0.122689462104214 
1638	 0.122652626207168 
1639	 0.1224146939325 
1640	 0.12239115067134 
1641	 0.122481626568659 
1642	 0.122532480050862 
1643	 0.122651949727917 
1644	 0.122689449673024 
1645	 0.122710231337926 
1646	 0.122675043622554 
1647	 0.122559035692921 
1648	 0.122539493343726 
1649	 0.122485165115049 
1650	 0.122537707431086 
1651	 0.122728687505705 
1652	 0.122759734027502 
1653	 0.122797164957665 
1654	 0.12274245515534 
1655	 0.122560243450998 
1656	 0.122481295175995 
1657	 0.122380479338416 
1658	 0.122466299101025 
1659	 0.122448395545278 
1660	 0.122330892195612 
1661	 0.122258422330495 
1662	 0.122008551576618 
1663	 0.121841066434574 
1664	 0.121856519996152 
1665	 0.12183545759749 
1666	 0.121937086501062 
1667	 0.122016958239657 
1668	 0.122021634088052 
1669	 0.122001767280667 
1670	 0.12196903287883 
1671	 0.121978094025787 
1672	 0.121862200540435 
1673	 0.121852926952591 
1674	 0.121871649902704 
1675	 0.121727051612197 
1676	 0.121750189310968 
1677	 0.121741175426263 
1678	 0.12166893952459 
1679	 0.121775431652202 
1680	 0.121817822394998 
1681	 0.121875666805909 
1682	 0.121984034629483 
1683	 0.121903290296821 
1684	 0.121761718559302 
1685	 0.121573175912767 
1686	 0.121484337327269 
1687	 0.121542743308795 
1688	 0.121504003834197 
1689	 0.12155371477423 
1690	 0.121334861642201 
1691	 0.121206213993679 
1692	 0.121143947710144 
1693	 0.121102520462255 
1694	 0.121173466418092 
1695	 0.12114881821585 
1696	 0.121012568874673 
1697	 0.121013079853236 
1698	 0.121063082543105 
1699	 0.121028025781936 
1700	 0.121066396703608 
1701	 0.121090965059541 
1702	 0.121021177128165 
1703	 0.120962290452778 
1704	 0.12095244071248 
1705	 0.12089618413098 
1706	 0.120771498145971 
1707	 0.120689294356226 
1708	 0.120572371253841 
1709	 0.120563798732629 
1710	 0.120665037631722 
1711	 0.120655512491032 
1712	 0.120694728681324 
1713	 0.12068546808477 
1714	 0.120481379022897 
1715	 0.120468781199628 
1716	 0.120648270556265 
1717	 0.120624231395544 
1718	 0.12059747843472 
1719	 0.120572424964834 
1720	 0.120383461473416 
1721	 0.120260219900811 
1722	 0.120217595737358 
1723	 0.120147737802203 
1724	 0.120006869742317 
1725	 0.11996157879701 
1726	 0.120051204899566 
1727	 0.119906980863612 
1728	 0.119641764369657 
1729	 0.119556839644798 
1730	 0.119425309409489 
1731	 0.11933164718699 
1732	 0.119368743037942 
1733	 0.119390241653782 
1734	 0.119344304827357 
1735	 0.119433287580882 
1736	 0.119352254907923 
1737	 0.119162829685206 
1738	 0.119121163611802 
1739	 0.119034235517257 
1740	 0.119115482387765 
1741	 0.119226765132839 
1742	 0.119162541594037 
1743	 0.119129375205602 
1744	 0.119045186373943 
1745	 0.119025046528877 
1746	 0.119106468580741 
1747	 0.119017195471486 
1748	 0.118887264154306 
1749	 0.11874429602079 
1750	 0.118511517267174 
1751	 0.118367579475095 
1752	 0.118395983397856 
1753	 0.118410040580644 
1754	 0.118435851541211 
1755	 0.118668624616547 
1756	 0.118755065818557 
1757	 0.118613787098753 
1758	 0.118484278224082 
1759	 0.118100974972513 
1760	 0.118021868650403 
1761	 0.118156129697814 
1762	 0.118197917693842 
1763	 0.11837643678425 
1764	 0.118447831509017 
1765	 0.118450613907001 
1766	 0.118441665244349 
1767	 0.118396084169531 
1768	 0.118308534873443 
1769	 0.118138903532435 
1770	 0.118040387318704 
1771	 0.117902025137218 
1772	 0.117829240061386 
1773	 0.117823725480484 
1774	 0.117761434346895 
1775	 0.117915270115114 
1776	 0.118104922123589 
1777	 0.118048089797971 
1778	 0.117960263730636 
1779	 0.117950250115783 
1780	 0.117745856827392 
1781	 0.117545885448073 
1782	 0.117581181824211 
1783	 0.117559607105 
1784	 0.117716957276451 
1785	 0.118156481253654 
1786	 0.118233215504227 
1787	 0.118095215563088 
1788	 0.117940958008667 
1789	 0.117652329642716 
1790	 0.117554759792865 
1791	 0.117395907064314 
1792	 0.116943569671284 
1793	 0.116592102671232 
1794	 0.116374833166989 
1795	 0.116246796983625 
1796	 0.116427758100536 
1797	 0.11636130341288 
1798	 0.116013625110134 
1799	 0.116119279413492 
1800	 0.116778632511642 
1801	 0.118430355830193 
1802	 0.118414626353103 
1803	 0.11827035094533 
1804	 0.117791977369675 
1805	 0.118096164075859 
1806	 0.119850273257819 
1807	 0.119947966670542 
1808	 0.11907226499918 
1809	 0.118806006413036 
1810	 0.119063388604599 
1811	 0.117871240967609 
1812	 0.118259693110594 
1813	 0.121902724946137 
1814	 0.123513362878499 
1815	 0.124656431891035 
1816	 0.125087714109221 
1817	 0.123581576163708 
1818	 0.123346995142378 
1819	 0.123176918265842 
1820	 0.122165795147542 
1821	 0.121702816919514 
1822	 0.122565967898253 
1823	 0.123362925531699 
1824	 0.122566852045266 
1825	 0.124185570210415 
1826	 0.13301088667578 
1827	 0.136340483943247 
1828	 0.137724542852117 
1829	 0.13659296490382 
1830	 0.136464936448551 
1831	 0.12414192607171 
1832	 0.122282126492444 
1833	 0.138888696806463 
1834	 0.144481913816368 
1835	 0.145583968549225 
1836	 0.150120457364714 
1837	 0.145366460746819 
1838	 0.138960675259459 
1839	 0.131878267480022 
1840	 0.124551636895908 
1841	 0.129885685573739 
1842	 0.141276855583427 
1843	 0.143220493088721 
1844	 0.155584146128569 
1845	 0.159743540706149 
1846	 0.144257375631561 
1847	 0.142784303660747 
1848	 0.146096082103445 
1849	 0.159971877700619 
1850	 0.161540614808617 
1851	 0.152808246436881 
1852	 0.166185141502255 
1853	 0.198627068853845 
1854	 0.211717320081361 
1855	 0.225917715732694 
1856	 0.238387827798016 
1857	 0.242073639051417 
1858	 0.23338430081959 
1859	 0.226289152145799 
1860	 0.226476230180398 
1861	 0.218888907742523 
1862	 0.197978917576803 
1863	 0.18104491829242 
1864	 0.151430801143729 
1865	 0.147831751291778 
1866	 0.155501723328318 
1867	 0.169517652097081 
1868	 0.182449320601675 
1869	 0.181308061045455 
1870	 0.179531235649674 
1871	 0.143685699441149 
1872	 0.130014391465795 
1873	 0.142511397367298 
1874	 0.134175501515168 
1875	 0.113821506336839 
1876	 0.110975530599575 
1877	 0.112232965715643 
1878	 0.109559002700582 
1879	 0.122120925741842 
1880	 0.131176675151847 
1881	 0.132683920665649 
1882	 0.132324186651113 
1883	 0.132379793859456 
1884	 0.125158466913544 
1885	 0.124349369412166 
1886	 0.124252330500075 
1887	 0.131296458437659 
1888	 0.134734599421221 
1889	 0.139602246605782 
1890	 0.141017795322363 
1891	 0.141419812487913 
1892	 0.137974832557612 
1893	 0.123068948506452 
1894	 0.122642616325333 
1895	 0.129425810008809 
1896	 0.133932580549717 
1897	 0.149708050810065 
1898	 0.171203624276405 
1899	 0.178117652622043 
1900	 0.162193918354719 
1901	 0.162564195363083 
1902	 0.164792485443212 
1903	 0.168231418448148 
1904	 0.191176312173375 
1905	 0.196371166283129 
1906	 0.197747861947022 
1907	 0.168476637331256 
1908	 0.162159396744677 
1909	 0.156345562693922 
1910	 0.143936338028156 
1911	 0.136799769771042 
1912	 0.130890596683984 
1913	 0.119190935754561 
1914	 0.116058776726493 
1915	 0.121422664125274 
1916	 0.122076774820338 
1917	 0.123139604527363 
1918	 0.11992574392576 
1919	 0.119109611167402 
1920	 0.115415918038963 
1921	 0.112120463469103 
1922	 0.110679414289918 
1923	 0.111215598681459 
1924	 0.114210047189331 
1925	 0.114198881464383 
1926	 0.11428691640569 
1927	 0.11571817433816 
1928	 0.1168821350501 
1929	 0.116009184955143 
1930	 0.118696414277811 
1931	 0.120171936962628 
1932	 0.118573141537136 
1933	 0.119266383892013 
1934	 0.119246391297702 
1935	 0.117762418081877 
1936	 0.117967302445966 
1937	 0.120302798361458 
1938	 0.119922926227638 
1939	 0.118546379133792 
1940	 0.118312222698907 
1941	 0.117876167027496 
1942	 0.116287027241317 
1943	 0.115972151526429 
1944	 0.115791160834306 
1945	 0.115048806036427 
1946	 0.11551966940839 
1947	 0.115480164113407 
1948	 0.115676231015275 
1949	 0.116069931428502 
1950	 0.116666849283054 
1951	 0.116214785746412 
1952	 0.116840412790708 
1953	 0.116732410876707 
1954	 0.117164670023526 
1955	 0.117622712949969 
1956	 0.117110030446161 
1957	 0.117249345341405 
1958	 0.116971825881266 
1959	 0.116001343491816 
1960	 0.115543730073516 
1961	 0.115285081964079 
1962	 0.115122176043831 
1963	 0.11502271727394 
1964	 0.114925233604256 
1965	 0.114720727117102 
1966	 0.114422372090428 
1967	 0.114583239539771 
1968	 0.114579387697119 
1969	 0.114479311511349 
1970	 0.114563178441494 
1971	 0.114427830011521 
1972	 0.113884313740153 
1973	 0.113850518592009 
1974	 0.114004177132847 
1975	 0.113998983779308 
1976	 0.114292238390487 
1977	 0.114622458743664 
1978	 0.114566779196083 
1979	 0.114746793078402 
1980	 0.114885032542769 
1981	 0.114444593655086 
1982	 0.114250387519458 
1983	 0.114066261418837 
1984	 0.113903729002108 
1985	 0.113780196471312 
1986	 0.114142140734387 
1987	 0.114401125798874 
1988	 0.11462030857748 
1989	 0.114925760059734 
1990	 0.115008235599108 
1991	 0.11523837861347 
1992	 0.115408637849117 
1993	 0.115301976670683 
1994	 0.115348762793171 
1995	 0.115439893835181 
1996	 0.115520849511567 
1997	 0.115448952417243 
1998	 0.115504750117632 
1999	 0.115452469917507 
2000	 0.114883781076192 
2001	 0.11485938142093 
2002	 0.114760183032549 
2003	 0.114530397541437 
2004	 0.11410756495271 
2005	 0.112620498163956 
2006	 0.112079094351436 
2007	 0.11192611432182 
2008	 0.111812575329259 
2009	 0.112462109679032 
2010	 0.113686683125866 
2011	 0.113956286542094 
2012	 0.114847925443046 
2013	 0.115010603345683 
2014	 0.114700362670513 
2015	 0.114556427855781 
2016	 0.113661054194528 
2017	 0.112834404903893 
2018	 0.112827207464111 
2019	 0.112985911149538 
2020	 0.113579905242711 
2021	 0.113842198518476 
2022	 0.114006871669467 
2023	 0.113855207933392 
2024	 0.113248948725794 
2025	 0.113147231957699 
2026	 0.113521845156092 
2027	 0.113861273490572 
2028	 0.11418659448398 
2029	 0.114466187593054 
2030	 0.114578265601911 
2031	 0.114542752590401 
2032	 0.114613539774111 
2033	 0.114752594358445 
2034	 0.114933322226355 
2035	 0.115022431336933 
2036	 0.115282697451211 
2037	 0.11546836477823 
2038	 0.115607457357621 
2039	 0.115793022286539 
2040	 0.115774323582191 
2041	 0.115846577357085 
2042	 0.115890939984866 
2043	 0.115640385373464 
2044	 0.115693440044296 
2045	 0.115772938556811 
2046	 0.115918105453511 
2047	 0.115760869375772 
2048	 0.11578983656822 
2049	 0.115679995670509 
2050	 0.115329538871151 
2051	 0.115338473549901 
2052	 0.115736158593125 
2053	 0.116103041304101 
2054	 0.116167009599318 
2055	 0.116285588495653 
2056	 0.116041511727054 
2057	 0.115565408683468 
2058	 0.115556811052875 
2059	 0.11554424945818 
2060	 0.11551867960725 
2061	 0.115807558378913 
2062	 0.116228137097615 
2063	 0.11646038446938 
2064	 0.116722735217885 
2065	 0.116553827707686 
2066	 0.116300995811657 
2067	 0.115991681055528 
2068	 0.11578420047356 
2069	 0.115876631984727 
2070	 0.115792836909051 
2071	 0.115665834481978 
2072	 0.115571862968363 
2073	 0.115334516344868 
2074	 0.115257194845894 
2075	 0.115513296908532 
2076	 0.115517813774147 
2077	 0.115260138347075 
2078	 0.114994141268066 
2079	 0.114657759273007 
2080	 0.114639670069807 
2081	 0.115216549652706 
2082	 0.115501627242899 
2083	 0.115448004796287 
2084	 0.115451468589379 
2085	 0.115361912351567 
2086	 0.115473718149301 
2087	 0.115532251368653 
2088	 0.115819133863368 
2089	 0.115732801508213 
2090	 0.115604154233967 
2091	 0.115622127846342 
2092	 0.115394820155139 
2093	 0.115467011823694 
2094	 0.115460045457897 
2095	 0.115053842150006 
2096	 0.11494718292862 
2097	 0.114897255367345 
2098	 0.11483802924973 
2099	 0.114868272924347 
2100	 0.11494708353198 
2101	 0.11508508978482 
2102	 0.115276574111292 
2103	 0.115584683541737 
2104	 0.115874857731354 
2105	 0.116030765784484 
2106	 0.1161521180671 
2107	 0.116059445908753 
2108	 0.115815898242432 
2109	 0.115604673727991 
2110	 0.115413404264169 
2111	 0.115381519685567 
2112	 0.115580448939192 
2113	 0.115608007072971 
2114	 0.115564022271611 
2115	 0.115496861071591 
2116	 0.115474207920719 
2117	 0.115498770622069 
2118	 0.115683715127893 
2119	 0.115746356669026 
2120	 0.115843970372812 
2121	 0.115622800118829 
2122	 0.115804394914845 
2123	 0.115821503303311 
2124	 0.115489250472923 
2125	 0.115786131252807 
2126	 0.115641540720413 
2127	 0.115421340306835 
2128	 0.115911216894719 
2129	 0.116072943991924 
2130	 0.115859240529727 
2131	 0.116013337768508 
2132	 0.116031019877193 
2133	 0.115751236643837 
2134	 0.115629521295656 
2135	 0.115688307294671 
2136	 0.115640118683953 
2137	 0.11518597053232 
2138	 0.115070718090245 
2139	 0.115220934521316 
2140	 0.114987951926144 
2141	 0.115029421912799 
2142	 0.115171420471553 
2143	 0.114752636760202 
2144	 0.11461022734944 
2145	 0.114878597474029 
2146	 0.115001069508609 
2147	 0.115151014920151 
2148	 0.115160192312974 
2149	 0.114868419321359 
2150	 0.114490354022638 
2151	 0.114282771179129 
2152	 0.114150891012823 
2153	 0.114094824661916 
2154	 0.114212958503431 
2155	 0.114269321220839 
2156	 0.114104395230766 
2157	 0.114037529425188 
2158	 0.113709288876518 
2159	 0.113339272175587 
2160	 0.113427263980293 
2161	 0.113417079248592 
2162	 0.113422657064574 
2163	 0.113613881448634 
2164	 0.113437738788727 
2165	 0.11350153951155 
2166	 0.113629346625406 
2167	 0.113514837334736 
2168	 0.113482712992232 
2169	 0.113450625406868 
2170	 0.113295609857352 
2171	 0.113086751504748 
2172	 0.112888207718283 
2173	 0.11275003448694 
2174	 0.112668089210566 
2175	 0.112519234521872 
2176	 0.112507162225546 
2177	 0.112192551497404 
2178	 0.111917537211183 
2179	 0.111799794409862 
2180	 0.111453283000469 
2181	 0.111592852423266 
2182	 0.111821137967368 
2183	 0.111563495278857 
2184	 0.111792434068091 
2185	 0.112015515594103 
2186	 0.111731636113021 
2187	 0.111543098276746 
2188	 0.111465586507345 
2189	 0.111248333552699 
2190	 0.110780740721211 
2191	 0.110450959530948 
2192	 0.110700935944491 
2193	 0.111028894837738 
2194	 0.111358382210148 
2195	 0.11194947875976 
2196	 0.111947856303449 
2197	 0.11188140594159 
2198	 0.111902803764446 
2199	 0.111576681457351 
2200	 0.111428925681276 
2201	 0.111023829178455 
2202	 0.110515457222397 
2203	 0.110313510732256 
2204	 0.110035904876027 
2205	 0.109499436433377 
2206	 0.109262238111115 
2207	 0.109171094450158 
2208	 0.10924703185067 
2209	 0.109888012821108 
2210	 0.110190606042258 
2211	 0.110402019753017 
2212	 0.110724890607127 
2213	 0.110635133440839 
2214	 0.110386417115023 
2215	 0.110420841319901 
2216	 0.109838236198558 
2217	 0.109643578376449 
2218	 0.109647759549917 
2219	 0.109204119696616 
2220	 0.109610457979918 
2221	 0.110049663552801 
2222	 0.109910848003017 
2223	 0.110267317215263 
2224	 0.110085330229148 
2225	 0.109816684776674 
2226	 0.110356690714436 
2227	 0.110334777479051 
2228	 0.110074052252833 
2229	 0.109963420134672 
2230	 0.109498040002245 
2231	 0.109182091061968 
2232	 0.109097618647402 
2233	 0.108861425410028 
2234	 0.108478306521861 
2235	 0.108360962115677 
2236	 0.108363015122547 
2237	 0.109208144451574 
2238	 0.109434909379578 
2239	 0.108769148165223 
2240	 0.108170469623581 
2241	 0.106916702391636 
2242	 0.106750372989787 
2243	 0.107819784343361 
2244	 0.108358924735128 
2245	 0.109084518476634 
2246	 0.109484142071846 
2247	 0.109288072303462 
2248	 0.109564438305817 
2249	 0.109492174144621 
2250	 0.108873547028958 
2251	 0.108422353379196 
2252	 0.108094672134187 
2253	 0.107954325468756 
2254	 0.108140466848675 
2255	 0.108392084506483 
2256	 0.108463444770023 
2257	 0.108244047055366 
2258	 0.108107440196221 
2259	 0.108433979417661 
2260	 0.108671380061205 
2261	 0.108827503462338 
2262	 0.1089293908557 
2263	 0.108435120514354 
2264	 0.107856577473668 
2265	 0.107353385303857 
2266	 0.106842671055138 
2267	 0.106595033741918 
2268	 0.106652570860806 
2269	 0.107233451670716 
2270	 0.107550698478388 
2271	 0.107611498312879 
2272	 0.108145390464548 
2273	 0.108534325414002 
2274	 0.108757472517812 
2275	 0.109217495553832 
2276	 0.108932842184785 
2277	 0.107959739908369 
2278	 0.107879866244682 
2279	 0.108170529929905 
2280	 0.108594637471947 
2281	 0.109170958689812 
2282	 0.109044277627555 
2283	 0.108485839454622 
2284	 0.107555345294139 
2285	 0.106845578104204 
2286	 0.106633327046235 
2287	 0.106746795572293 
2288	 0.106996707181437 
2289	 0.107380064316923 
2290	 0.10785685960162 
2291	 0.10808871453613 
2292	 0.107978664687563 
2293	 0.107826399126822 
2294	 0.107137128592069 
2295	 0.105982230207711 
2296	 0.105455063710952 
2297	 0.106051890508938 
2298	 0.106368404471957 
2299	 0.106455257431716 
2300	 0.1069419026204 
2301	 0.10669705139124 
2302	 0.10651564337144 
2303	 0.106399271124329 
2304	 0.106156685859563 
2305	 0.105832233235467 
2306	 0.105425831237235 
2307	 0.105759383204788 
2308	 0.106283430341002 
2309	 0.106434222218033 
2310	 0.106380752150696 
2311	 0.10705798604168 
2312	 0.107031635651523 
2313	 0.106266208124168 
2314	 0.106442570907024 
2315	 0.105553808068342 
2316	 0.105061557643059 
2317	 0.10637306568206 
2318	 0.106592852648861 
2319	 0.106906844485307 
2320	 0.107615955820478 
2321	 0.107736594098125 
2322	 0.106699753304892 
2323	 0.106855169044892 
2324	 0.107548952927345 
2325	 0.107837635934891 
2326	 0.108383380509491 
2327	 0.1087230669913 
2328	 0.108574654953523 
2329	 0.107924761067599 
2330	 0.107062852979287 
2331	 0.106388894515298 
2332	 0.106161860305417 
2333	 0.106876004953304 
2334	 0.107413893986415 
2335	 0.107586736223635 
2336	 0.10773127639894 
2337	 0.107161652597928 
2338	 0.107303978011348 
2339	 0.10770119319505 
2340	 0.108239271298642 
2341	 0.108671567447859 
2342	 0.107547003546784 
2343	 0.107915939061867 
2344	 0.108113845366918 
2345	 0.106562923977003 
2346	 0.106995905400102 
2347	 0.108055342107678 
2348	 0.108190704617956 
2349	 0.10883972821082 
2350	 0.110001261109142 
2351	 0.109825079291322 
2352	 0.108304666558028 
2353	 0.106978216189229 
2354	 0.106306604904986 
2355	 0.106556584124506 
2356	 0.10734579410523 
2357	 0.108345489184179 
2358	 0.108983612240425 
2359	 0.108165902110874 
2360	 0.107850870853259 
2361	 0.109410164964774 
2362	 0.110605321269326 
2363	 0.111886550497051 
2364	 0.112851198255979 
2365	 0.110985958689539 
2366	 0.10964491886311 
2367	 0.110494990806302 
2368	 0.110480284099948 
2369	 0.111810739876458 
2370	 0.112493695703947 
2371	 0.109573421728405 
2372	 0.107694582422956 
2373	 0.103778180031662 
2374	 0.102730904865132 
2375	 0.104778593364713 
2376	 0.105827132382511 
2377	 0.107628702708603 
2378	 0.108731626111294 
2379	 0.107971148528626 
2380	 0.107922288909797 
2381	 0.109152506243007 
2382	 0.110407182773065 
2383	 0.113021542996006 
2384	 0.11395586503815 
2385	 0.113134359216777 
2386	 0.112574999640375 
2387	 0.110827612023989 
2388	 0.109801305000627 
2389	 0.10979318848477 
2390	 0.109109528744549 
2391	 0.107808512555336 
2392	 0.106629128641198 
2393	 0.104854600547117 
2394	 0.104923160847939 
2395	 0.106013902197421 
2396	 0.107516942458484 
2397	 0.110927442266783 
2398	 0.11204906034111 
2399	 0.112401318601939 
2400	 0.112562202010338 
2401	 0.111344413326998 
2402	 0.111061542747374 
2403	 0.112028063524521 
2404	 0.111821112315901 
2405	 0.109854338138989 
2406	 0.108503274393001 
2407	 0.106757324944304 
2408	 0.104412598908692 
2409	 0.105774580960565 
2410	 0.107201377663192 
2411	 0.107330410214436 
2412	 0.106724231259965 
2413	 0.104412581250867 
2414	 0.103621888761818 
2415	 0.101550736272492 
2416	 0.103954141506745 
2417	 0.110364534551923 
2418	 0.111638036655911 
2419	 0.111935764794482 
2420	 0.110850386025293 
2421	 0.105907163633849 
2422	 0.100260752325415 
2423	 9.99032520644306E-02 
2424	 0.101919134871069 
2425	 0.101982846340502 
2426	 0.105048450787692 
2427	 0.10606542337773 
2428	 0.101260481602767 
2429	 0.101382561049162 
2430	 0.106495534587215 
2431	 0.108421659415526 
2432	 0.112370849521943 
2433	 0.106479749864379 
2434	 0.103692606679495 
2435	 0.10058723929879 
2436	 0.100113378403654 
2437	 0.104557111388519 
2438	 0.105927996929566 
2439	 0.10828457205381 
2440	 0.107575955313485 
2441	 0.100705831861448 
2442	 0.100775352011884 
2443	 0.103408513937292 
2444	 0.103450078198765 
2445	 0.109080375590702 
2446	 0.111020317246384 
2447	 0.109346858093632 
2448	 0.105326349205377 
2449	 9.58642551653719E-02 
2450	 9.13035700455779E-02 
2451	 8.48929411717202E-02 
2452	 8.43684437534786E-02 
2453	 9.11059973344833E-02 
2454	 9.44189009851685E-02 
2455	 9.91110343824371E-02 
2456	 0.100800513091943 
2457	 0.101537780397575 
2458	 0.101647893552304 
2459	 9.96504365027366E-02 
2460	 0.099684481200159 
2461	 0.100647385859637 
2462	 0.101682280229341 
2463	 0.104859481002479 
2464	 0.102730110570929 
2465	 0.095405181532307 
2466	 9.13919772170934E-02 
2467	 8.30351911976584E-02 
2468	 8.35720466136305E-02 
2469	 9.59909943984214E-02 
2470	 9.86019698182747E-02 
2471	 9.75339017026763E-02 
2472	 0.103280396853419 
2473	 0.10992232953332 
2474	 0.112735966473852 
2475	 0.123583919342441 
2476	 0.122744246740886 
2477	 9.77524086202098E-02 
2478	 9.31500832149149E-02 
2479	 9.94752115645183E-02 
2480	 0.112883585503866 
2481	 0.155173881318807 
2482	 0.163161954421962 
2483	 0.15389422334991 
2484	 0.145485325741458 
2485	 9.87935031919091E-02 
2486	 9.29604233030875E-02 
2487	 0.101078827850679 
2488	 9.59727178356663E-02 
2489	 0.109383938876824 
2490	 0.134209503802248 
2491	 0.156531276654461 
2492	 0.191722162131789 
2493	 0.212412302745307 
2494	 0.227206556072628 
2495	 0.248919181269222 
2496	 0.244020073944811 
2497	 0.236740605459159 
2498	 0.20573376573975 
2499	 0.17161144640584 
2500	 0.193605774248741 
