Wavelength	ref00082.asd
350	 0.14329835756927 
351	 0.144836957870314 
352	 0.146304569346743 
353	 0.147420720391748 
354	 0.149283753777069 
355	 0.151227474518713 
356	 0.152739044856088 
357	 0.154272094627279 
358	 0.155666832436073 
359	 0.15714478984075 
360	 0.158951487393194 
361	 0.161109859642602 
362	 0.162434269257924 
363	 0.16312680045527 
364	 0.164298302211412 
365	 0.166433274408413 
366	 0.167672363111581 
367	 0.167616040928619 
368	 0.168206335353025 
369	 0.168637095939163 
370	 0.168996777763434 
371	 0.169548895097829 
372	 0.170561399030793 
373	 0.171298403899193 
374	 0.171667300166187 
375	 0.171994933625985 
376	 0.172870879140005 
377	 0.17397226230198 
378	 0.17526635242111 
379	 0.177140573482041 
380	 0.177948488442886 
381	 0.179446324013353 
382	 0.182532648720796 
383	 0.183754862741609 
384	 0.185866510973349 
385	 0.188800095228657 
386	 0.191439233496395 
387	 0.194675839870543 
388	 0.198033934167586 
389	 0.20123877900319 
390	 0.204343660485618 
391	 0.207811781454351 
392	 0.210986875128161 
393	 0.213788782552539 
394	 0.217828417099109 
395	 0.222417255722809 
396	 0.227153539568694 
397	 0.231873028954575 
398	 0.237120004621534 
399	 0.242873631894939 
400	 0.24902416811659 
401	 0.255511813913367 
402	 0.263328276978849 
403	 0.272144617974174 
404	 0.281930358519352 
405	 0.293765142145451 
406	 0.307423059121974 
407	 0.322856827513903 
408	 0.339952716985913 
409	 0.358536876424935 
410	 0.378167568861925 
411	 0.39849656069979 
412	 0.419271136375965 
413	 0.440576276120105 
414	 0.461898558386573 
415	 0.48284427468674 
416	 0.503457507287643 
417	 0.523906873435083 
418	 0.54350783967823 
419	 0.561507796731235 
420	 0.578405706549544 
421	 0.594086063098003 
422	 0.608375527630317 
423	 0.621166604978734 
424	 0.632908794124064 
425	 0.643446751509251 
426	 0.652781773360277 
427	 0.661433350155231 
428	 0.669314876963055 
429	 0.676149643730386 
430	 0.681730898994835 
431	 0.686583942657989 
432	 0.690510771802803 
433	 0.693311243053621 
434	 0.694872108421465 
435	 0.69562877057194 
436	 0.695519514183909 
437	 0.694705232405051 
438	 0.6939745077939 
439	 0.69302368756889 
440	 0.691639749339666 
441	 0.689642368786323 
442	 0.686940753206605 
443	 0.683731461868544 
444	 0.680134688338155 
445	 0.676172165315793 
446	 0.672081343248428 
447	 0.667936633410647 
448	 0.663840481950896 
449	 0.66013009771981 
450	 0.656209281403001 
451	 0.652282979999687 
452	 0.648843009967774 
453	 0.645790106564757 
454	 0.643068907452048 
455	 0.640567244195373 
456	 0.638112714491492 
457	 0.636000928737115 
458	 0.634083226754173 
459	 0.632190166762214 
460	 0.630370009878658 
461	 0.62901526069018 
462	 0.628049506296956 
463	 0.627139103675807 
464	 0.626244353069465 
465	 0.625435973998965 
466	 0.624713129597367 
467	 0.623944959456419 
468	 0.62326904724231 
469	 0.622464332948765 
470	 0.621362864743828 
471	 0.62036611191151 
472	 0.619293067185792 
473	 0.61817153511062 
474	 0.61714287268188 
475	 0.615792687391129 
476	 0.614519493414038 
477	 0.613467516114613 
478	 0.61208251346868 
479	 0.610875640512373 
480	 0.609941614641268 
481	 0.609200304838706 
482	 0.608489905881394 
483	 0.607783351708641 
484	 0.607185629769879 
485	 0.606894542490876 
486	 0.606370380584836 
487	 0.605660056021861 
488	 0.604849122036826 
489	 0.603802024358415 
490	 0.602399510067991 
491	 0.600821348724471 
492	 0.599346852906959 
493	 0.597997136866205 
494	 0.596852531897396 
495	 0.595781207110862 
496	 0.594403307306483 
497	 0.593195824267936 
498	 0.592014630028661 
499	 0.590694615830414 
500	 0.589522089756556 
501	 0.588319074887771 
502	 0.587055420260459 
503	 0.585777790887937 
504	 0.584363712050921 
505	 0.582773241710334 
506	 0.581049044039368 
507	 0.579341364611873 
508	 0.577627179398673 
509	 0.575957082027074 
510	 0.574358628395595 
511	 0.572685046961923 
512	 0.571017379958748 
513	 0.569295520712526 
514	 0.567365584028205 
515	 0.565756195026044 
516	 0.56416630813611 
517	 0.562338567865932 
518	 0.560463839705954 
519	 0.558561309405765 
520	 0.556659705392486 
521	 0.554777629963556 
522	 0.552925899781398 
523	 0.551144349549553 
524	 0.549443229793264 
525	 0.54782042718882 
526	 0.546237647666785 
527	 0.544668880126112 
528	 0.543068203213131 
529	 0.541305616492927 
530	 0.539702429585096 
531	 0.538176360886444 
532	 0.536464472306901 
533	 0.534998774356204 
534	 0.53354374418487 
535	 0.531962980536358 
536	 0.5303917399273 
537	 0.528904490390352 
538	 0.527480359915018 
539	 0.526068547172253 
540	 0.524652572568341 
541	 0.523256001044177 
542	 0.521818784809297 
543	 0.520230358016682 
544	 0.518677704080624 
545	 0.517096920093001 
546	 0.515434550346544 
547	 0.513766522490833 
548	 0.512117532353062 
549	 0.510419657901353 
550	 0.508602166764027 
551	 0.506849661031141 
552	 0.505067856509541 
553	 0.503276462341563 
554	 0.50165657049965 
555	 0.500046381221365 
556	 0.498430983667094 
557	 0.496825431167994 
558	 0.495212294425967 
559	 0.493768609705669 
560	 0.492428069542073 
561	 0.490994041602123 
562	 0.489812142293777 
563	 0.488728473305159 
564	 0.487632091471035 
565	 0.486604644276021 
566	 0.485745953369957 
567	 0.484966964042996 
568	 0.484118175236092 
569	 0.483134937735835 
570	 0.482074063496053 
571	 0.481026669675295 
572	 0.480091815013969 
573	 0.479092914324561 
574	 0.478170136594635 
575	 0.477429821392236 
576	 0.476763391861778 
577	 0.476254864612185 
578	 0.475950700706861 
579	 0.475838226704749 
580	 0.475703532725573 
581	 0.475452388026342 
582	 0.475070734915341 
583	 0.474623381860365 
584	 0.474267550774396 
585	 0.473928358040664 
586	 0.473556831524138 
587	 0.473464702950449 
588	 0.473385517614548 
589	 0.473136972741883 
590	 0.472637637341173 
591	 0.472033965381617 
592	 0.471494398653152 
593	 0.471063371926453 
594	 0.47060831891284 
595	 0.470182994416898 
596	 0.469724430424583 
597	 0.469172831070519 
598	 0.468665254375062 
599	 0.468264863743681 
600	 0.467962112610521 
601	 0.467680566430334 
602	 0.467405788237385 
603	 0.467139962637448 
604	 0.466906526621367 
605	 0.466769423396803 
606	 0.466651059514876 
607	 0.466574199849116 
608	 0.466604142177522 
609	 0.466729031725104 
610	 0.466814855656679 
611	 0.466863602552502 
612	 0.467079196937394 
613	 0.467275837757049 
614	 0.467474230801584 
615	 0.467732913213153 
616	 0.468032981968941 
617	 0.468411867371926 
618	 0.468829597764837 
619	 0.469219781478855 
620	 0.469791123677606 
621	 0.470420841776289 
622	 0.471032986792625 
623	 0.471720615722797 
624	 0.472515400331178 
625	 0.47343485665835 
626	 0.47446124592754 
627	 0.475492749078198 
628	 0.476593703497704 
629	 0.477763042106567 
630	 0.478925015004199 
631	 0.480218129529883 
632	 0.481663711134228 
633	 0.483216204503629 
634	 0.484735876832849 
635	 0.486353176077201 
636	 0.488104990053201 
637	 0.489967500256666 
638	 0.491885272010066 
639	 0.493912364478593 
640	 0.496035230900116 
641	 0.498089412842537 
642	 0.500516370033704 
643	 0.503039426686841 
644	 0.505423524671473 
645	 0.50806506816675 
646	 0.511097484161057 
647	 0.514253826777507 
648	 0.517075637602425 
649	 0.519951688277664 
650	 0.522770170920732 
651	 0.525523175361743 
652	 0.528597071195093 
653	 0.531689826522419 
654	 0.534749368738212 
655	 0.537906008925859 
656	 0.541345071170305 
657	 0.544847108458098 
658	 0.548049994972845 
659	 0.551177668438076 
660	 0.554251514505408 
661	 0.557461362908387 
662	 0.560788197793091 
663	 0.564011073757564 
664	 0.567329827812869 
665	 0.570625515366457 
666	 0.573754593300961 
667	 0.576873379603452 
668	 0.58002264579176 
669	 0.583124948849323 
670	 0.586062450157917 
671	 0.588915523215258 
672	 0.591851486392044 
673	 0.594848886003282 
674	 0.597518145324677 
675	 0.600147211358049 
676	 0.602809056190664 
677	 0.605458538793431 
678	 0.607960912122143 
679	 0.610332616382347 
680	 0.612670986815386 
681	 0.615118834465183 
682	 0.617281042296323 
683	 0.619392668380238 
684	 0.621612885185793 
685	 0.623525845392282 
686	 0.625502713388108 
687	 0.627578267784301 
688	 0.62943435209487 
689	 0.631263145144513 
690	 0.633018762382788 
691	 0.634855390843624 
692	 0.63696960823518 
693	 0.639445173217812 
694	 0.641706546057867 
695	 0.643224117084053 
696	 0.64400116534892 
697	 0.644734644640183 
698	 0.645829341086346 
699	 0.647398816316794 
700	 0.648838603665418 
701	 0.650030006171528 
702	 0.650962482002637 
703	 0.651707176001336 
704	 0.652438491570441 
705	 0.653250843549422 
706	 0.654120740312212 
707	 0.654748743297018 
708	 0.655426325223133 
709	 0.656206399990485 
710	 0.657010069703018 
711	 0.657754523578313 
712	 0.658502480508108 
713	 0.659309262681468 
714	 0.660216859022247 
715	 0.661690193401153 
716	 0.66413274076345 
717	 0.667576293362 
718	 0.670938554833995 
719	 0.672689759761979 
720	 0.67223408621265 
721	 0.670352464075545 
722	 0.669227149639871 
723	 0.670026520641959 
724	 0.672250750464677 
725	 0.673521112109581 
726	 0.673917082445246 
727	 0.673991499398617 
728	 0.674156448783245 
729	 0.674078266102403 
730	 0.674153419017737 
731	 0.673995257145515 
732	 0.67308222974185 
733	 0.671699884117682 
734	 0.671019882654496 
735	 0.671122697369588 
736	 0.671134917310955 
737	 0.671227227813604 
738	 0.671245208919501 
739	 0.671134720227527 
740	 0.671131723462179 
741	 0.670980181710085 
742	 0.670887911760237 
743	 0.671118516839472 
744	 0.67149232203235 
745	 0.671630130553974 
746	 0.671627095059125 
747	 0.671899732422139 
748	 0.672093781659255 
749	 0.672210783441042 
750	 0.672357035469477 
751	 0.672735240998617 
752	 0.672905260668841 
753	 0.673003015380234 
754	 0.673236564480938 
755	 0.673453951986053 
756	 0.673575580739535 
757	 0.673642010764977 
758	 0.673772729597907 
759	 0.674048333077169 
760	 0.674532234546882 
761	 0.675256046566306 
762	 0.675881089574831 
763	 0.675892879413346 
764	 0.675690901780644 
765	 0.675506382882196 
766	 0.675015968700528 
767	 0.674817023574868 
768	 0.674774224156511 
769	 0.674625570490014 
770	 0.674484128854801 
771	 0.674562466833468 
772	 0.674780607787446 
773	 0.674825650465445 
774	 0.674797752781583 
775	 0.674803480936926 
776	 0.674868395836153 
777	 0.674872684075527 
778	 0.674971488412095 
779	 0.675042232355803 
780	 0.674995659508805 
781	 0.675144099851569 
782	 0.67518066376467 
783	 0.675205910383302 
784	 0.675472738676942 
785	 0.675623564593119 
786	 0.675859055336758 
787	 0.676220697273283 
788	 0.676537532982182 
789	 0.676927723773701 
790	 0.677179408844689 
791	 0.677166071005632 
792	 0.677043086653784 
793	 0.676993549174696 
794	 0.677040248432201 
795	 0.677154399884069 
796	 0.677401326858149 
797	 0.677588378464625 
798	 0.67765271755219 
799	 0.677640851466606 
800	 0.677694927273906 
801	 0.677893297605551 
802	 0.678149119622483 
803	 0.678214136011888 
804	 0.67809149662942 
805	 0.677981335993789 
806	 0.677992467234704 
807	 0.677948955259311 
808	 0.678072184270765 
809	 0.678477784996295 
810	 0.679219149314263 
811	 0.680279126775551 
812	 0.68154018362925 
813	 0.683105798744632 
814	 0.685063318828424 
815	 0.686491229362081 
816	 0.687372772387475 
817	 0.687605036774842 
818	 0.686993305693028 
819	 0.686112857971529 
820	 0.685291160861408 
821	 0.684875368699555 
822	 0.685364760902602 
823	 0.685867757118782 
824	 0.685805751232228 
825	 0.685049023551987 
826	 0.684244610562734 
827	 0.684066973436439 
828	 0.684401552091469 
829	 0.684732138558367 
830	 0.684657664829011 
831	 0.684397328978752 
832	 0.68395760780367 
833	 0.683239916547514 
834	 0.682886363977442 
835	 0.682589155735984 
836	 0.682164347692593 
837	 0.681722610951363 
838	 0.681437878393203 
839	 0.681286116577039 
840	 0.681184701753337 
841	 0.681028187726794 
842	 0.680942577511891 
843	 0.680842704349813 
844	 0.680670588704503 
845	 0.680666978082408 
846	 0.680590725876078 
847	 0.680519754193755 
848	 0.680614472732331 
849	 0.680653218988288 
850	 0.680688428709942 
851	 0.680727717364428 
852	 0.68074737115601 
853	 0.680855613717322 
854	 0.680698757644265 
855	 0.680488911460028 
856	 0.680986631343295 
857	 0.680866240693116 
858	 0.680507528612197 
859	 0.680345573573159 
860	 0.68044236848764 
861	 0.68053652987393 
862	 0.680456525074057 
863	 0.680232005241815 
864	 0.680297246760876 
865	 0.680619978744136 
866	 0.680879354164927 
867	 0.680905051370006 
868	 0.681557409339594 
869	 0.681959095806855 
870	 0.682081862693731 
871	 0.682295729868455 
872	 0.682615230961864 
873	 0.682763014594957 
874	 0.682806234701906 
875	 0.683055100541352 
876	 0.683602980855744 
877	 0.683799404017226 
878	 0.683664650015343 
879	 0.683887184208428 
880	 0.683958478438657 
881	 0.68418047460581 
882	 0.684501144408818 
883	 0.684312177002493 
884	 0.684770637711942 
885	 0.685149301310336 
886	 0.685016768659039 
887	 0.685170478136234 
888	 0.685463206489877 
889	 0.685813686080864 
890	 0.686192430374773 
891	 0.686654147906179 
892	 0.687867850737281 
893	 0.68921309242322 
894	 0.690094154835011 
895	 0.69167489941925 
896	 0.693324243258923 
897	 0.694750535358199 
898	 0.695817790882832 
899	 0.696380327371057 
900	 0.696705129845919 
901	 0.696694590498821 
902	 0.696244296443018 
903	 0.696235563367537 
904	 0.696014112828598 
905	 0.695868911887247 
906	 0.696496941673522 
907	 0.696827796306308 
908	 0.69795130700307 
909	 0.69954352309373 
910	 0.700162554045695 
911	 0.700860566613045 
912	 0.701661910914649 
913	 0.702108558341192 
914	 0.701617684399616 
915	 0.701886361245769 
916	 0.701717185246044 
917	 0.700838467196442 
918	 0.700336776180719 
919	 0.69935528583844 
920	 0.698534377003379 
921	 0.698217179044384 
922	 0.698112470439225 
923	 0.698719135253572 
924	 0.699635531178861 
925	 0.700652344199701 
926	 0.702128402959812 
927	 0.704471213896137 
928	 0.707406134491127 
929	 0.710452762026065 
930	 0.71313527794295 
931	 0.718038839747417 
932	 0.722815037674229 
933	 0.725602810960688 
934	 0.7293325183207 
935	 0.730851939101533 
936	 0.731812249425415 
937	 0.733201934364372 
938	 0.732288853050593 
939	 0.730611986959948 
940	 0.729016434613603 
941	 0.728000170497739 
942	 0.727727895427251 
943	 0.728403522737973 
944	 0.728759104276989 
945	 0.728303254143762 
946	 0.728975284012493 
947	 0.729844704347325 
948	 0.730837091610141 
949	 0.731331223480446 
950	 0.729307512981723 
951	 0.728238786130683 
952	 0.729202966791979 
953	 0.731058480547297 
954	 0.729916869633534 
955	 0.728204145187616 
956	 0.727165530125898 
957	 0.726736898709047 
958	 0.725027146857508 
959	 0.725112937688738 
960	 0.724572458518239 
961	 0.722283830994051 
962	 0.721672765356949 
963	 0.72015436233253 
964	 0.718685676019096 
965	 0.717849738287919 
966	 0.716370453026599 
967	 0.714204874364122 
968	 0.713087982071031 
969	 0.713294908875221 
970	 0.712441415771994 
971	 0.711006573809036 
972	 0.710381848379496 
973	 0.710773570973404 
974	 0.710526235186684 
975	 0.710669195271613 
976	 0.709796048897715 
977	 0.707897071991702 
978	 0.707156511890536 
979	 0.708239141658815 
980	 0.708825174724821 
981	 0.707757735885649 
982	 0.705962356094621 
983	 0.705328662632175 
984	 0.705502115481479 
985	 0.70530407958734 
986	 0.703612119151545 
987	 0.702556112948846 
988	 0.702598239869108 
989	 0.702964328527982 
990	 0.702594464411077 
991	 0.704105991955756 
992	 0.703854158835233 
993	 0.702077999665125 
994	 0.701422330066978 
995	 0.701298100899233 
996	 0.702615804631202 
997	 0.703158201412209 
998	 0.700763762393347 
999	 0.699794403873844 
1000	 0.699242417792599 
1001	 0.694602131668111 
1002	 0.694499568990422 
1003	 0.694325132723026 
1004	 0.694006574680259 
1005	 0.693802986571964 
1006	 0.693671897757651 
1007	 0.693572169286338 
1008	 0.69356024302373 
1009	 0.693467595449077 
1010	 0.693376590127111 
1011	 0.693318217682268 
1012	 0.693138113315757 
1013	 0.692873023783977 
1014	 0.69273285633336 
1015	 0.692677865509671 
1016	 0.692615636733699 
1017	 0.692691427734152 
1018	 0.692698295377527 
1019	 0.692676942546535 
1020	 0.692654716757611 
1021	 0.692670434218434 
1022	 0.692642524862874 
1023	 0.692581465066786 
1024	 0.692528524165267 
1025	 0.692664433287807 
1026	 0.692661797767133 
1027	 0.692652997554219 
1028	 0.69271033140784 
1029	 0.692550120083543 
1030	 0.692443111938645 
1031	 0.692367876523633 
1032	 0.692385649278046 
1033	 0.692513773284404 
1034	 0.692834683341951 
1035	 0.692908571479123 
1036	 0.693003256735674 
1037	 0.69308318230311 
1038	 0.693061440671948 
1039	 0.692868290826487 
1040	 0.692944647615645 
1041	 0.692996508095989 
1042	 0.692942273285108 
1043	 0.693007186622333 
1044	 0.69306411770008 
1045	 0.693079410029652 
1046	 0.693021162230151 
1047	 0.693132695037298 
1048	 0.693304507732381 
1049	 0.693254024222673 
1050	 0.693267615799148 
1051	 0.693329153675099 
1052	 0.693311001723717 
1053	 0.693190907032358 
1054	 0.693324233381458 
1055	 0.693373917415992 
1056	 0.693266620081661 
1057	 0.693360727172535 
1058	 0.693489023855965 
1059	 0.693513692984273 
1060	 0.693605738814866 
1061	 0.693640222003574 
1062	 0.693517554437852 
1063	 0.693499246092464 
1064	 0.693607655623144 
1065	 0.693725955711487 
1066	 0.693908134624793 
1067	 0.69405460687131 
1068	 0.694081680560911 
1069	 0.694128761348821 
1070	 0.694238800445883 
1071	 0.69430793552465 
1072	 0.694393782232071 
1073	 0.694481175970982 
1074	 0.694436703397637 
1075	 0.694457226778391 
1076	 0.69465323471986 
1077	 0.694802077775884 
1078	 0.694825372748254 
1079	 0.694836007351419 
1080	 0.69487632491198 
1081	 0.694958347999266 
1082	 0.695061957866326 
1083	 0.695289346060146 
1084	 0.695493952183503 
1085	 0.695614447178312 
1086	 0.695744990733949 
1087	 0.695804525973117 
1088	 0.69607434921724 
1089	 0.696411505734837 
1090	 0.696670158148164 
1091	 0.697163153184842 
1092	 0.697587545012905 
1093	 0.698055460196689 
1094	 0.698625933032738 
1095	 0.699185955268764 
1096	 0.699760467755652 
1097	 0.70030977979385 
1098	 0.700884076878058 
1099	 0.701491075869808 
1100	 0.70214284965368 
1101	 0.702719393765515 
1102	 0.703311531884406 
1103	 0.703935828371194 
1104	 0.704547308485332 
1105	 0.705262412881284 
1106	 0.706120711076746 
1107	 0.707171829188734 
1108	 0.708418334454448 
1109	 0.709792104629044 
1110	 0.711217853361604 
1111	 0.712715250428451 
1112	 0.714276608978348 
1113	 0.716030739012872 
1114	 0.718177052803325 
1115	 0.720232880576967 
1116	 0.722463781244635 
1117	 0.724684154156258 
1118	 0.726840441485505 
1119	 0.728560294825362 
1120	 0.730041544173517 
1121	 0.731099602134 
1122	 0.731543130910644 
1123	 0.731531129694811 
1124	 0.731094968569597 
1125	 0.7303310229129 
1126	 0.729536556964722 
1127	 0.728498821999254 
1128	 0.727489346573486 
1129	 0.7262411046754 
1130	 0.725431504666723 
1131	 0.724483312050741 
1132	 0.724118688961688 
1133	 0.724132659970939 
1134	 0.724452111657503 
1135	 0.724949896315104 
1136	 0.725637537206568 
1137	 0.72632997837503 
1138	 0.727180670592701 
1139	 0.728227095554796 
1140	 0.729276708737616 
1141	 0.730398939853566 
1142	 0.73153669733881 
1143	 0.732430423846012 
1144	 0.733394762488274 
1145	 0.733746244487859 
1146	 0.733933909381958 
1147	 0.733498073893761 
1148	 0.732597555467042 
1149	 0.73139925606948 
1150	 0.729867454766833 
1151	 0.727994184600759 
1152	 0.725953519485269 
1153	 0.723469574492609 
1154	 0.720784741544646 
1155	 0.718220807117313 
1156	 0.715623319286357 
1157	 0.712958125271437 
1158	 0.710592889263192 
1159	 0.708321180771742 
1160	 0.706201377222297 
1161	 0.704263844518235 
1162	 0.702397422135482 
1163	 0.700447981040991 
1164	 0.698843124119292 
1165	 0.697337810587473 
1166	 0.696031379918881 
1167	 0.694905055820263 
1168	 0.693918622225012 
1169	 0.693079051863902 
1170	 0.692317303739022 
1171	 0.691629435013241 
1172	 0.691167902229211 
1173	 0.690780261718477 
1174	 0.690383331497325 
1175	 0.690052793217469 
1176	 0.689681059869609 
1177	 0.689486735114019 
1178	 0.689347307786752 
1179	 0.689302232667719 
1180	 0.689518872027736 
1181	 0.689526030287037 
1182	 0.6894506500621 
1183	 0.689424205053681 
1184	 0.689344287498139 
1185	 0.689328920552181 
1186	 0.689410034957962 
1187	 0.689405873670406 
1188	 0.689421851266039 
1189	 0.689315477665486 
1190	 0.689193675595622 
1191	 0.689176425449297 
1192	 0.689062703238111 
1193	 0.688942173088943 
1194	 0.688782153773859 
1195	 0.688550472612588 
1196	 0.688333752815222 
1197	 0.688142910246257 
1198	 0.687861926642064 
1199	 0.687497264882736 
1200	 0.687186404229499 
1201	 0.686848955993661 
1202	 0.686513902236433 
1203	 0.686261120356304 
1204	 0.685915852561088 
1205	 0.685481256736996 
1206	 0.685061364536352 
1207	 0.684557115523761 
1208	 0.684145380825971 
1209	 0.683761632762656 
1210	 0.683433682939281 
1211	 0.683174535380776 
1212	 0.682886025541372 
1213	 0.682686316595328 
1214	 0.682460131348726 
1215	 0.682465659174942 
1216	 0.682583662079057 
1217	 0.682805906389794 
1218	 0.683248230262069 
1219	 0.683614599635124 
1220	 0.683968067547945 
1221	 0.684454706194776 
1222	 0.685036890282381 
1223	 0.685597313490399 
1224	 0.686222637810443 
1225	 0.686911003271512 
1226	 0.687692178015684 
1227	 0.688350644313883 
1228	 0.689017966617332 
1229	 0.689677488963473 
1230	 0.690274723469253 
1231	 0.690821046558253 
1232	 0.691376647914441 
1233	 0.691987775988188 
1234	 0.692544857787823 
1235	 0.693036731448596 
1236	 0.69354240946769 
1237	 0.694046765616886 
1238	 0.694579432040688 
1239	 0.695126997318798 
1240	 0.695604263228637 
1241	 0.696075873210106 
1242	 0.696565789222094 
1243	 0.697025259042065 
1244	 0.697452312100959 
1245	 0.697920391661441 
1246	 0.698336510196324 
1247	 0.698650755624704 
1248	 0.698986576378903 
1249	 0.69933052519387 
1250	 0.699666819588515 
1251	 0.699944062551849 
1252	 0.700302007079175 
1253	 0.700649235167703 
1254	 0.701045521553584 
1255	 0.70136626694952 
1256	 0.701672027422129 
1257	 0.70196330759932 
1258	 0.702200843265465 
1259	 0.702464136802372 
1260	 0.702745397988335 
1261	 0.703010777787997 
1262	 0.703268646901131 
1263	 0.703509941857787 
1264	 0.703721194605515 
1265	 0.703963722080445 
1266	 0.704204148446694 
1267	 0.704434401826066 
1268	 0.704729499935125 
1269	 0.704932374413394 
1270	 0.704997013847355 
1271	 0.705162701989145 
1272	 0.705392038086383 
1273	 0.705546996077125 
1274	 0.705634836249417 
1275	 0.705737648028475 
1276	 0.705803732745154 
1277	 0.705727592391827 
1278	 0.705767701417699 
1279	 0.705878487825285 
1280	 0.705977129737124 
1281	 0.706079998990895 
1282	 0.706173239989577 
1283	 0.706289022905229 
1284	 0.706400083582501 
1285	 0.706400519329423 
1286	 0.706590782189985 
1287	 0.70691743356805 
1288	 0.707201480455519 
1289	 0.70759885395587 
1290	 0.707937092934976 
1291	 0.708187099561331 
1292	 0.708508325374402 
1293	 0.708848560219147 
1294	 0.709234199045333 
1295	 0.709644988793458 
1296	 0.710142947683238 
1297	 0.710600634927854 
1298	 0.711093833031946 
1299	 0.711566877358193 
1300	 0.712008725355009 
1301	 0.712516163427306 
1302	 0.713114393519789 
1303	 0.713571966116755 
1304	 0.713936679033077 
1305	 0.714451415100982 
1306	 0.714903800103622 
1307	 0.715491969670728 
1308	 0.716356510328535 
1309	 0.717007897020486 
1310	 0.717531066570289 
1311	 0.718176579690295 
1312	 0.718837055438769 
1313	 0.719473751302956 
1314	 0.720191510723965 
1315	 0.720862562524657 
1316	 0.721440402524509 
1317	 0.722051397255799 
1318	 0.722655882353681 
1319	 0.723316858977527 
1320	 0.723941184859627 
1321	 0.724671426126352 
1322	 0.725544852690933 
1323	 0.726549882363125 
1324	 0.727616023382995 
1325	 0.728873149709373 
1326	 0.730080892592611 
1327	 0.731354168546437 
1328	 0.732667428439861 
1329	 0.734171951110231 
1330	 0.735378198038666 
1331	 0.736506413976262 
1332	 0.73752801804188 
1333	 0.738255238881092 
1334	 0.739056442125803 
1335	 0.739842026744243 
1336	 0.740574140571529 
1337	 0.741008670220687 
1338	 0.741840327764663 
1339	 0.742746545797108 
1340	 0.744014719088776 
1341	 0.745874727629797 
1342	 0.747913454700502 
1343	 0.750808449909952 
1344	 0.753666752296143 
1345	 0.756965798931097 
1346	 0.761116583519605 
1347	 0.76562357476684 
1348	 0.770856885401836 
1349	 0.776765752122696 
1350	 0.784416980081417 
1351	 0.792591698032836 
1352	 0.801925173875073 
1353	 0.812614711731657 
1354	 0.822850717057366 
1355	 0.837144078341569 
1356	 0.847945228239794 
1357	 0.866535652345257 
1358	 0.880956178674683 
1359	 0.90757752904654 
1360	 0.922056669656541 
1361	 0.954039166749151 
1362	 0.968890022791429 
1363	 0.998487060299518 
1364	 1.00189628205967 
1365	 1.00668219122584 
1366	 0.98128446141976 
1367	 0.983996566628629 
1368	 0.994637946168172 
1369	 0.997926497681138 
1370	 1.00713503005902 
1371	 1.01406735637775 
1372	 1.01513619329613 
1373	 1.01609278352328 
1374	 1.01912760528659 
1375	 1.02617019363956 
1376	 1.01675327014349 
1377	 1.00566171038666 
1378	 1.00161313411348 
1379	 0.994947092110396 
1380	 0.991032167547412 
1381	 0.994808808601978 
1382	 0.9934387619129 
1383	 0.988042083107038 
1384	 0.984779468690762 
1385	 0.985295368362033 
1386	 0.98139444073178 
1387	 0.974868319252021 
1388	 0.970966653424444 
1389	 0.969142401032467 
1390	 0.962896803269382 
1391	 0.956586241945674 
1392	 0.949210433805026 
1393	 0.937460128972482 
1394	 0.929572413097364 
1395	 0.925158099687184 
1396	 0.917391727149264 
1397	 0.907441949536861 
1398	 0.900533468441141 
1399	 0.891703762946583 
1400	 0.886249008333322 
1401	 0.887830560247417 
1402	 0.883571784723296 
1403	 0.879889877549067 
1404	 0.87263071902463 
1405	 0.861412155597381 
1406	 0.850662717086691 
1407	 0.843913015375459 
1408	 0.836445998667361 
1409	 0.830839543629514 
1410	 0.825217705543673 
1411	 0.817995571941972 
1412	 0.809651770378419 
1413	 0.802791592648002 
1414	 0.795739025509516 
1415	 0.790510843571046 
1416	 0.786205159906458 
1417	 0.781895105476563 
1418	 0.77853530855624 
1419	 0.774274186273791 
1420	 0.769446763480966 
1421	 0.76573334929286 
1422	 0.76210437787643 
1423	 0.758916114713064 
1424	 0.756072850619298 
1425	 0.753625234206961 
1426	 0.751031396848151 
1427	 0.74914389554482 
1428	 0.74778710391744 
1429	 0.746557860757666 
1430	 0.745487736140965 
1431	 0.744626527843799 
1432	 0.743890324306392 
1433	 0.743488276632399 
1434	 0.743495691236628 
1435	 0.743448279518243 
1436	 0.744101127670391 
1437	 0.743809793332226 
1438	 0.743062347388194 
1439	 0.74219650884724 
1440	 0.740943144650447 
1441	 0.739553455601489 
1442	 0.738201165085998 
1443	 0.736552568171637 
1444	 0.735028027574724 
1445	 0.732895860039346 
1446	 0.730822176301534 
1447	 0.729037281404795 
1448	 0.72687839699401 
1449	 0.724560031409491 
1450	 0.72233685715764 
1451	 0.7199525142851 
1452	 0.718048557559498 
1453	 0.716323043688466 
1454	 0.714672986417517 
1455	 0.713012324163185 
1456	 0.711872052206408 
1457	 0.710669497488861 
1458	 0.710067293353381 
1459	 0.710042683314935 
1460	 0.709946014103711 
1461	 0.710008303798417 
1462	 0.710265595672515 
1463	 0.710825432714714 
1464	 0.711263867817145 
1465	 0.71226681785597 
1466	 0.712425389354035 
1467	 0.712325501312595 
1468	 0.711614110587523 
1469	 0.710150688099267 
1470	 0.708472074341583 
1471	 0.706643067004061 
1472	 0.704122313534214 
1473	 0.701086413379199 
1474	 0.697977124052602 
1475	 0.694221867715443 
1476	 0.690901410254885 
1477	 0.687809747944354 
1478	 0.684694640078127 
1479	 0.681718549604249 
1480	 0.678756398259947 
1481	 0.675717682655743 
1482	 0.672934193239576 
1483	 0.670227726842665 
1484	 0.667780782456313 
1485	 0.665555705540418 
1486	 0.663504259555456 
1487	 0.661547404806084 
1488	 0.659968380922579 
1489	 0.658446036081913 
1490	 0.657243084529361 
1491	 0.656393840376528 
1492	 0.655617104629833 
1493	 0.655201302539614 
1494	 0.655067180943444 
1495	 0.655070219619569 
1496	 0.655260796678748 
1497	 0.655643504003131 
1498	 0.656199515435877 
1499	 0.65689480068832 
1500	 0.657787235493071 
1501	 0.65877152290121 
1502	 0.659940156893601 
1503	 0.6610517476931 
1504	 0.66228219092492 
1505	 0.663421713858842 
1506	 0.664561894339341 
1507	 0.66558052901204 
1508	 0.66653794228548 
1509	 0.667503994048464 
1510	 0.668373282808107 
1511	 0.669281534877326 
1512	 0.670220390379887 
1513	 0.671155759367614 
1514	 0.672120132798264 
1515	 0.672986181816323 
1516	 0.673861218028709 
1517	 0.674671519394044 
1518	 0.675400847734566 
1519	 0.676078730061171 
1520	 0.676744749797812 
1521	 0.677338083175753 
1522	 0.67777037166166 
1523	 0.678332929082221 
1524	 0.679014035383757 
1525	 0.679504970567343 
1526	 0.679877721945323 
1527	 0.680374626368874 
1528	 0.680807141316374 
1529	 0.681279849095249 
1530	 0.681944323960597 
1531	 0.682465274956129 
1532	 0.682857377688141 
1533	 0.683281677536531 
1534	 0.683717033767948 
1535	 0.68410966799152 
1536	 0.684383859472373 
1537	 0.684804565133953 
1538	 0.685263958489058 
1539	 0.685763117756696 
1540	 0.68642425378736 
1541	 0.687009591378958 
1542	 0.687613021598953 
1543	 0.688128072862326 
1544	 0.688551860136222 
1545	 0.689011881493446 
1546	 0.689396472209071 
1547	 0.689846335558381 
1548	 0.690392336805887 
1549	 0.690881969748082 
1550	 0.691375007104214 
1551	 0.691838932645454 
1552	 0.69222286834199 
1553	 0.692671398251446 
1554	 0.693153982530905 
1555	 0.693625719115569 
1556	 0.694191720338646 
1557	 0.694649279530125 
1558	 0.695021470576048 
1559	 0.695391006735487 
1560	 0.695636035917182 
1561	 0.695976925034439 
1562	 0.696448028338497 
1563	 0.696807742440478 
1564	 0.697191570921871 
1565	 0.697495349712433 
1566	 0.697658435282474 
1567	 0.697841708894582 
1568	 0.698031276999324 
1569	 0.698209183740499 
1570	 0.698413921082283 
1571	 0.69864165957374 
1572	 0.698824432969261 
1573	 0.699002180018394 
1574	 0.699174366045608 
1575	 0.699343291193663 
1576	 0.699411126348672 
1577	 0.699409507495573 
1578	 0.699521169626586 
1579	 0.699589187931675 
1580	 0.699704430471804 
1581	 0.699945509288887 
1582	 0.70007822951987 
1583	 0.700119489199434 
1584	 0.700248826933504 
1585	 0.70040752890256 
1586	 0.700585032328858 
1587	 0.700792035091721 
1588	 0.700980419238707 
1589	 0.701223277556061 
1590	 0.701340965035457 
1591	 0.701418246119873 
1592	 0.701425338009354 
1593	 0.701351253024506 
1594	 0.701245461676717 
1595	 0.701082484737302 
1596	 0.70090530241071 
1597	 0.700689971494109 
1598	 0.700418946426663 
1599	 0.700120349574079 
1600	 0.699751463773019 
1601	 0.699343132265151 
1602	 0.698801071005702 
1603	 0.698151098560019 
1604	 0.697513795384899 
1605	 0.696840205436828 
1606	 0.695972988201274 
1607	 0.695069238868828 
1608	 0.694016328603256 
1609	 0.692640961651697 
1610	 0.691568062187067 
1611	 0.690572816774177 
1612	 0.689551667091241 
1613	 0.688614558026341 
1614	 0.687660345879805 
1615	 0.686716296962685 
1616	 0.68569785288179 
1617	 0.684646920810574 
1618	 0.683697965518952 
1619	 0.682749200296321 
1620	 0.681719869462826 
1621	 0.680822480074045 
1622	 0.679677207275495 
1623	 0.678337037307963 
1624	 0.676971304117204 
1625	 0.675552100881902 
1626	 0.674010416318136 
1627	 0.672345860497821 
1628	 0.670585808408428 
1629	 0.668880393716765 
1630	 0.666602281600653 
1631	 0.664196021262459 
1632	 0.661003507240039 
1633	 0.657213612004217 
1634	 0.652946924385298 
1635	 0.648090857097958 
1636	 0.642752183789441 
1637	 0.636900866180653 
1638	 0.630477555295402 
1639	 0.623469944817317 
1640	 0.615987974734279 
1641	 0.607838423114813 
1642	 0.599660544643582 
1643	 0.591099934479947 
1644	 0.582382145473652 
1645	 0.57351421394787 
1646	 0.564406019250124 
1647	 0.554907545543184 
1648	 0.545642317047798 
1649	 0.536286117401523 
1650	 0.527112820353416 
1651	 0.51785435022633 
1652	 0.509214242716081 
1653	 0.500597036550359 
1654	 0.493132218815561 
1655	 0.486118250651028 
1656	 0.480542915986415 
1657	 0.475849004161804 
1658	 0.472357751664768 
1659	 0.470354360035108 
1660	 0.469620675171055 
1661	 0.470143332439413 
1662	 0.472160757917387 
1663	 0.475227150778295 
1664	 0.479311076661309 
1665	 0.483925016993475 
1666	 0.488857415520182 
1667	 0.494171068972381 
1668	 0.499368888908296 
1669	 0.504619932904158 
1670	 0.509646646334321 
1671	 0.51440921590836 
1672	 0.518985478100487 
1673	 0.523320635212562 
1674	 0.527466388100312 
1675	 0.531394238569168 
1676	 0.535031179189968 
1677	 0.538602238941745 
1678	 0.54202814880113 
1679	 0.545400865198816 
1680	 0.548790936828464 
1681	 0.552061473081187 
1682	 0.555440535677895 
1683	 0.558824998560915 
1684	 0.562105869638429 
1685	 0.565423706453838 
1686	 0.56876475879659 
1687	 0.571980925519782 
1688	 0.574976903892347 
1689	 0.577642525090586 
1690	 0.579933065958354 
1691	 0.581572949295681 
1692	 0.582820621785997 
1693	 0.583377873673128 
1694	 0.583119418596652 
1695	 0.582500733763278 
1696	 0.581214062325579 
1697	 0.579636168115462 
1698	 0.577180381729928 
1699	 0.575214963271821 
1700	 0.573109439107381 
1701	 0.57125206478237 
1702	 0.569693259346406 
1703	 0.568268760369605 
1704	 0.566839268564139 
1705	 0.56571710761172 
1706	 0.564945325975156 
1707	 0.564283056233554 
1708	 0.563837918737598 
1709	 0.563506966279179 
1710	 0.563410316777642 
1711	 0.563284205222363 
1712	 0.563292286689679 
1713	 0.56325983682498 
1714	 0.56324703682481 
1715	 0.563213711074456 
1716	 0.563278946095217 
1717	 0.563093238680172 
1718	 0.562711314032597 
1719	 0.562460759877677 
1720	 0.561876018187689 
1721	 0.561927183027955 
1722	 0.562387260349694 
1723	 0.562814049234992 
1724	 0.563666275228308 
1725	 0.564277792678095 
1726	 0.564711401124381 
1727	 0.56531021090742 
1728	 0.565826528030076 
1729	 0.56686641024285 
1730	 0.568121866819426 
1731	 0.569963951604021 
1732	 0.571947146332051 
1733	 0.574063617493408 
1734	 0.576321421496029 
1735	 0.578774528544446 
1736	 0.581321253647681 
1737	 0.583796349371745 
1738	 0.586447458959219 
1739	 0.589203595425935 
1740	 0.591789083689367 
1741	 0.594393540441578 
1742	 0.5968904077221 
1743	 0.599111051389521 
1744	 0.601166767989349 
1745	 0.602884181510248 
1746	 0.604491898160903 
1747	 0.605807627840766 
1748	 0.606578967975443 
1749	 0.607357734028256 
1750	 0.60812917218472 
1751	 0.608523373201519 
1752	 0.609387836018811 
1753	 0.610356816404671 
1754	 0.610614831643155 
1755	 0.61102116190405 
1756	 0.611490350264087 
1757	 0.611971743464305 
1758	 0.612606139263577 
1759	 0.61349720403049 
1760	 0.614266353325156 
1761	 0.614992331327073 
1762	 0.615820402329577 
1763	 0.616536888296135 
1764	 0.617490593857917 
1765	 0.618494757753618 
1766	 0.619825327902969 
1767	 0.6216186332142 
1768	 0.623279111593929 
1769	 0.625200399169484 
1770	 0.626882804728374 
1771	 0.628281557222499 
1772	 0.630134944167961 
1773	 0.632137920292048 
1774	 0.634300343272755 
1775	 0.636697630694462 
1776	 0.638573700683635 
1777	 0.640335494861215 
1778	 0.642316677927695 
1779	 0.643767788142418 
1780	 0.644836074866614 
1781	 0.646359880833922 
1782	 0.64700289123655 
1783	 0.647245589689182 
1784	 0.648229672363776 
1785	 0.648768550134372 
1786	 0.649777867336927 
1787	 0.651432845882273 
1788	 0.652522770386574 
1789	 0.653654463092377 
1790	 0.654949773326126 
1791	 0.6558187719097 
1792	 0.657022935610237 
1793	 0.6583005055904 
1794	 0.659015843478112 
1795	 0.66054660319248 
1796	 0.66227593414606 
1797	 0.663933862199007 
1798	 0.666868852218863 
1799	 0.669839825385424 
1800	 0.673246549763834 
1801	 0.666198377151103 
1802	 0.671182686230065 
1803	 0.675522134765856 
1804	 0.681267583564298 
1805	 0.6859840887702 
1806	 0.689875132707199 
1807	 0.69408001539097 
1808	 0.698103985397168 
1809	 0.701413142501004 
1810	 0.706047594807244 
1811	 0.711396888715907 
1812	 0.716116084684148 
1813	 0.720612613490421 
1814	 0.72660645002403 
1815	 0.734233494746065 
1816	 0.739832639650737 
1817	 0.745677456841196 
1818	 0.751444266881626 
1819	 0.756073114876766 
1820	 0.755479372664809 
1821	 0.758932149766118 
1822	 0.765302854600383 
1823	 0.769072900992986 
1824	 0.769962444723753 
1825	 0.773571092467812 
1826	 0.777941900506281 
1827	 0.783054760853984 
1828	 0.789923876710809 
1829	 0.804344387008927 
1830	 0.811841314035664 
1831	 0.805498254525937 
1832	 0.820097706815059 
1833	 0.854965572794931 
1834	 0.884453747435965 
1835	 0.958056102096065 
1836	 1.00157690500149 
1837	 0.918881473295418 
1838	 0.894052432120306 
1839	 0.877430212407814 
1840	 0.84811072553441 
1841	 0.857603373368544 
1842	 0.938852889060744 
1843	 0.943324268180657 
1844	 0.911554446388361 
1845	 0.909496926866198 
1846	 0.897987887885742 
1847	 0.885916383665695 
1848	 0.879477368021823 
1849	 0.88253246446695 
1850	 0.916069853797096 
1851	 0.973997437739448 
1852	 1.00314350090025 
1853	 1.08315728344 
1854	 1.10705599518912 
1855	 1.06293667972765 
1856	 1.03180410890835 
1857	 0.953306423349696 
1858	 0.970238924241784 
1859	 0.963522939709985 
1860	 0.966529686327172 
1861	 0.949749673896093 
1862	 0.916041280468514 
1863	 0.914635340944505 
1864	 0.922815926440482 
1865	 0.914439285639205 
1866	 0.903572037344937 
1867	 0.95240020584543 
1868	 0.894001356772438 
1869	 0.870141443595081 
1870	 0.861022818038097 
1871	 0.863526296199579 
1872	 0.872660243979239 
1873	 0.921653740302895 
1874	 0.923740044400656 
1875	 0.896088034582415 
1876	 0.897093254225315 
1877	 0.909491643222369 
1878	 0.892707517311864 
1879	 0.891575074541276 
1880	 0.921360397080268 
1881	 0.930275871116729 
1882	 0.941297312049441 
1883	 0.942532743132456 
1884	 0.940669633267079 
1885	 0.933275125522498 
1886	 0.924168122624463 
1887	 0.902177524685512 
1888	 0.881375531567459 
1889	 0.876007456683885 
1890	 0.867842969972494 
1891	 0.863534867136427 
1892	 0.856179029707963 
1893	 0.846444697049843 
1894	 0.837883077837211 
1895	 0.823685477802313 
1896	 0.817876207933892 
1897	 0.818903674637014 
1898	 0.821830048071 
1899	 0.831745390779038 
1900	 0.841449492660536 
1901	 0.846945899578948 
1902	 0.84493762509709 
1903	 0.847223916583118 
1904	 0.844875928885654 
1905	 0.854603442373923 
1906	 0.88092660575641 
1907	 0.886705154774071 
1908	 0.877410179606189 
1909	 0.859637219694699 
1910	 0.83309977458302 
1911	 0.804483675891583 
1912	 0.784127933860479 
1913	 0.769752493687253 
1914	 0.759989980835915 
1915	 0.749571707939334 
1916	 0.742275557997534 
1917	 0.743678400375566 
1918	 0.736621637562005 
1919	 0.718497402385672 
1920	 0.714278810919329 
1921	 0.7067776179988 
1922	 0.698879388225009 
1923	 0.69408447690008 
1924	 0.690252853321569 
1925	 0.688276346571669 
1926	 0.69144652563803 
1927	 0.688779373925749 
1928	 0.684473988152729 
1929	 0.682384146713983 
1930	 0.679291013685156 
1931	 0.66545619353662 
1932	 0.658873850536554 
1933	 0.657627878406109 
1934	 0.65127426851038 
1935	 0.645501567834042 
1936	 0.638687867660884 
1937	 0.627339741128564 
1938	 0.620824527383108 
1939	 0.615613488944709 
1940	 0.611653749352675 
1941	 0.610141169044672 
1942	 0.608915891328802 
1943	 0.605977549693428 
1944	 0.601622131718218 
1945	 0.596477427297883 
1946	 0.592004075069124 
1947	 0.587805887514696 
1948	 0.583022037096429 
1949	 0.579986980166854 
1950	 0.577999072836318 
1951	 0.575656735998759 
1952	 0.573066865825683 
1953	 0.571580721731108 
1954	 0.569888255137072 
1955	 0.56737559036715 
1956	 0.565891259709976 
1957	 0.56457106007617 
1958	 0.563684838347322 
1959	 0.563488658078684 
1960	 0.562517927814606 
1961	 0.561951843357578 
1962	 0.56071818250622 
1963	 0.558368065651662 
1964	 0.55685459624725 
1965	 0.556007607490025 
1966	 0.555002758713838 
1967	 0.554020132462322 
1968	 0.553466773758099 
1969	 0.552350574229743 
1970	 0.550312730880371 
1971	 0.549327169497794 
1972	 0.548772412709983 
1973	 0.547659074628561 
1974	 0.547477812780203 
1975	 0.547660504261962 
1976	 0.547228559058604 
1977	 0.54673789058232 
1978	 0.545660750636657 
1979	 0.544483843955326 
1980	 0.543021086159696 
1981	 0.541184162102542 
1982	 0.539760798486052 
1983	 0.538442567200772 
1984	 0.536883041276227 
1985	 0.535569194101239 
1986	 0.534658950832835 
1987	 0.53349551655416 
1988	 0.532408294931444 
1989	 0.531759381283949 
1990	 0.531201292068587 
1991	 0.530018906545437 
1992	 0.528826547732035 
1993	 0.527468154278746 
1994	 0.525758164498701 
1995	 0.524539966332779 
1996	 0.523902305289884 
1997	 0.523102785180168 
1998	 0.521933172464307 
1999	 0.521033803293323 
2000	 0.519730142366938 
2001	 0.518543661464449 
2002	 0.518098362617892 
2003	 0.518126430653327 
2004	 0.518236734047901 
2005	 0.517366525139778 
2006	 0.516157915579121 
2007	 0.51433234086354 
2008	 0.51234340558779 
2009	 0.511559589640902 
2010	 0.512392621953684 
2011	 0.513757712314232 
2012	 0.515583601064183 
2013	 0.515873757220618 
2014	 0.515061659995074 
2015	 0.515074837349532 
2016	 0.514339799510272 
2017	 0.513287384942438 
2018	 0.513079298792531 
2019	 0.512703170491674 
2020	 0.512020466557552 
2021	 0.511683202442376 
2022	 0.511609031017447 
2023	 0.511508527213615 
2024	 0.511632300501057 
2025	 0.511169347756665 
2026	 0.510994376597638 
2027	 0.511058450583152 
2028	 0.510513385145347 
2029	 0.510243441553539 
2030	 0.510456518674618 
2031	 0.510347190182665 
2032	 0.51025190378088 
2033	 0.510210520069779 
2034	 0.510445854664996 
2035	 0.510294769963001 
2036	 0.510015946636788 
2037	 0.509946609917075 
2038	 0.510203675382979 
2039	 0.510481043745524 
2040	 0.510720543505742 
2041	 0.511138824991193 
2042	 0.51150291692119 
2043	 0.512049665588364 
2044	 0.512335628938862 
2045	 0.512624894738941 
2046	 0.512955861865855 
2047	 0.513255234142954 
2048	 0.513428328757062 
2049	 0.514047401713424 
2050	 0.514808845870012 
2051	 0.515402416916482 
2052	 0.515226186715524 
2053	 0.515233805905099 
2054	 0.515585097203966 
2055	 0.515470237832031 
2056	 0.515733639757977 
2057	 0.515976227818959 
2058	 0.515535077274775 
2059	 0.514885785108958 
2060	 0.513941735426208 
2061	 0.512751995025132 
2062	 0.511654131805401 
2063	 0.51093380897703 
2064	 0.50997253669294 
2065	 0.509072277113374 
2066	 0.507654735249558 
2067	 0.50574127864798 
2068	 0.504114208126934 
2069	 0.50227283086684 
2070	 0.500518361769861 
2071	 0.498543818844475 
2072	 0.496731856916623 
2073	 0.49486807164611 
2074	 0.493358161356239 
2075	 0.491584095181417 
2076	 0.489940072449639 
2077	 0.488598449852996 
2078	 0.487274786488195 
2079	 0.486276203084728 
2080	 0.485863400989903 
2081	 0.485641811976179 
2082	 0.485084141582382 
2083	 0.484966362445566 
2084	 0.485168040077902 
2085	 0.484870605420542 
2086	 0.485236147662566 
2087	 0.48563131089933 
2088	 0.486052365384974 
2089	 0.486472812302019 
2090	 0.488083588297435 
2091	 0.489648201413579 
2092	 0.49101441551755 
2093	 0.492161304219939 
2094	 0.492339793585301 
2095	 0.492388983370539 
2096	 0.492578038255998 
2097	 0.492824281265548 
2098	 0.493398174985408 
2099	 0.493364111491372 
2100	 0.492751539796042 
2101	 0.491757395892595 
2102	 0.490257967973545 
2103	 0.488122856783854 
2104	 0.48565062972451 
2105	 0.48290529060222 
2106	 0.479982148781732 
2107	 0.47700618730341 
2108	 0.473594028444636 
2109	 0.469831629368741 
2110	 0.465734039678211 
2111	 0.461414166188147 
2112	 0.457403176415393 
2113	 0.453333245732416 
2114	 0.449172217398027 
2115	 0.44469413790115 
2116	 0.440237433618036 
2117	 0.435976928977565 
2118	 0.4319167544756 
2119	 0.427616838890249 
2120	 0.423463511457023 
2121	 0.419059127306845 
2122	 0.414539685565174 
2123	 0.409872817588534 
2124	 0.405777442310322 
2125	 0.401526165864632 
2126	 0.39690704949323 
2127	 0.393131641641966 
2128	 0.389581002468916 
2129	 0.386885212519642 
2130	 0.385581143178539 
2131	 0.384865635236422 
2132	 0.385178796455882 
2133	 0.38664972739779 
2134	 0.38852313590249 
2135	 0.390877543822397 
2136	 0.39447433370949 
2137	 0.399001872700094 
2138	 0.40335363644948 
2139	 0.408302960403506 
2140	 0.413494207111047 
2141	 0.417651908830583 
2142	 0.421623207304643 
2143	 0.424938763513099 
2144	 0.426734559625501 
2145	 0.428255840511113 
2146	 0.428791013305821 
2147	 0.428739979504669 
2148	 0.428028392810448 
2149	 0.425972416882667 
2150	 0.423361098084218 
2151	 0.420869275663158 
2152	 0.417470582016221 
2153	 0.414914121649648 
2154	 0.412489982551378 
2155	 0.410846521733099 
2156	 0.409953389982014 
2157	 0.410183042066277 
2158	 0.412049630591982 
2159	 0.415307722297771 
2160	 0.419188515410031 
2161	 0.423998487746976 
2162	 0.429150963714122 
2163	 0.433845695363875 
2164	 0.43817100725927 
2165	 0.44243714096336 
2166	 0.446218083386335 
2167	 0.44983517220014 
2168	 0.452468961983772 
2169	 0.454484101683904 
2170	 0.455414528739922 
2171	 0.455614891909978 
2172	 0.454290453791523 
2173	 0.452246201282949 
2174	 0.450777541584487 
2175	 0.447977483022383 
2176	 0.444653329358275 
2177	 0.44170754161734 
2178	 0.438160703155957 
2179	 0.43516430823602 
2180	 0.433968124404234 
2181	 0.433554497279769 
2182	 0.433515407654574 
2183	 0.434552233720024 
2184	 0.43581922334027 
2185	 0.437063164842873 
2186	 0.439410676450666 
2187	 0.442094958065894 
2188	 0.445679905721854 
2189	 0.448787351309049 
2190	 0.452355040146752 
2191	 0.455139101536082 
2192	 0.457412041706857 
2193	 0.459244692780006 
2194	 0.460900113575413 
2195	 0.462416656361188 
2196	 0.463263107791984 
2197	 0.462981506036087 
2198	 0.46265991054787 
2199	 0.462614141350142 
2200	 0.462388700070548 
2201	 0.462394123333833 
2202	 0.461958717888557 
2203	 0.461184893322752 
2204	 0.460123753869435 
2205	 0.459366781689708 
2206	 0.45889902167407 
2207	 0.457562859886261 
2208	 0.456118587691649 
2209	 0.454866468055083 
2210	 0.45271083469717 
2211	 0.449858570831125 
2212	 0.446995081441241 
2213	 0.443227726179728 
2214	 0.439160076811877 
2215	 0.435638903621674 
2216	 0.431651846850921 
2217	 0.427258215405436 
2218	 0.422698269005117 
2219	 0.417061157882404 
2220	 0.411033469260248 
2221	 0.405333427042256 
2222	 0.399421257687853 
2223	 0.39310106766499 
2224	 0.387022683857912 
2225	 0.381633795302078 
2226	 0.375884693804836 
2227	 0.37013381384287 
2228	 0.364027107011639 
2229	 0.356710602005681 
2230	 0.349744865348013 
2231	 0.342998513636313 
2232	 0.336321938379792 
2233	 0.329854366287546 
2234	 0.323884653744066 
2235	 0.317299177413972 
2236	 0.31035030491167 
2237	 0.303072783786603 
2238	 0.295759413819969 
2239	 0.28896685514571 
2240	 0.282638580029737 
2241	 0.27671913697721 
2242	 0.270826810054166 
2243	 0.265264684223612 
2244	 0.261375036728445 
2245	 0.258726747108222 
2246	 0.256659061234887 
2247	 0.255304720416217 
2248	 0.25316419308469 
2249	 0.251576797732728 
2250	 0.250600447992244 
2251	 0.249664610075598 
2252	 0.249946875157208 
2253	 0.249256714778118 
2254	 0.248565603711107 
2255	 0.248360622645819 
2256	 0.248897797649895 
2257	 0.249636773474212 
2258	 0.251854740305872 
2259	 0.254399851142809 
2260	 0.257872069201195 
2261	 0.260635138398183 
2262	 0.263207955682212 
2263	 0.266557342676028 
2264	 0.268568657127477 
2265	 0.27106202249584 
2266	 0.273673578299687 
2267	 0.275387890144831 
2268	 0.27877216776964 
2269	 0.282753193193506 
2270	 0.285657117980011 
2271	 0.287812729927264 
2272	 0.289100901434322 
2273	 0.290279964570314 
2274	 0.291668938590314 
2275	 0.294006886852954 
2276	 0.296720009768301 
2277	 0.298845345192356 
2278	 0.301158175846316 
2279	 0.303278757239268 
2280	 0.304937802000523 
2281	 0.305994126157178 
2282	 0.306730513759763 
2283	 0.307875989606514 
2284	 0.30950651085282 
2285	 0.311198347319008 
2286	 0.312204590917138 
2287	 0.313060529371026 
2288	 0.313091860765472 
2289	 0.312182412487857 
2290	 0.311177070347161 
2291	 0.310284257992193 
2292	 0.310169220914279 
2293	 0.310582254377957 
2294	 0.310600766758569 
2295	 0.310893006762817 
2296	 0.310267093762684 
2297	 0.308620177520545 
2298	 0.307592402328598 
2299	 0.307208377979084 
2300	 0.306530726556306 
2301	 0.306103751133267 
2302	 0.306117283794809 
2303	 0.305133732750648 
2304	 0.304101155436773 
2305	 0.304145300906353 
2306	 0.303313085386864 
2307	 0.301948896838165 
2308	 0.301026663563426 
2309	 0.299745547551303 
2310	 0.299060714555092 
2311	 0.298614956180744 
2312	 0.298024644486043 
2313	 0.297664071427352 
2314	 0.297402694623402 
2315	 0.29745239962417 
2316	 0.29737322587442 
2317	 0.296500105722696 
2318	 0.294521511907032 
2319	 0.29184422625725 
2320	 0.288566644498314 
2321	 0.285850028301554 
2322	 0.283023549558882 
2323	 0.281160241976331 
2324	 0.279696069174525 
2325	 0.279692475315776 
2326	 0.279381899528133 
2327	 0.278823420204475 
2328	 0.279433431735273 
2329	 0.279142672044502 
2330	 0.279079512503467 
2331	 0.279182107742445 
2332	 0.27797659060666 
2333	 0.278038225725006 
2334	 0.279328786082826 
2335	 0.279660877172238 
2336	 0.280909143555085 
2337	 0.282283603293013 
2338	 0.282669283682543 
2339	 0.285159443420752 
2340	 0.288063186350169 
2341	 0.28981725894682 
2342	 0.290963883524176 
2343	 0.2908542266468 
2344	 0.291457666031377 
2345	 0.292838906529752 
2346	 0.293352300764626 
2347	 0.294673718371906 
2348	 0.295701060927563 
2349	 0.295430370372324 
2350	 0.297186908293698 
2351	 0.298589424272688 
2352	 0.298010847665501 
2353	 0.296316808226387 
2354	 0.292950433013938 
2355	 0.29107898548898 
2356	 0.291332338890138 
2357	 0.294495032065426 
2358	 0.298618825106031 
2359	 0.300058877825502 
2360	 0.299271150552223 
2361	 0.297112458846748 
2362	 0.295584836947888 
2363	 0.295182354063757 
2364	 0.297046879010084 
2365	 0.300566756749027 
2366	 0.303843238114678 
2367	 0.306884340119568 
2368	 0.308318796957292 
2369	 0.308208473395123 
2370	 0.308671892758749 
2371	 0.309853743336224 
2372	 0.311826813130445 
2373	 0.316618756571707 
2374	 0.319311626275819 
2375	 0.321109946638078 
2376	 0.323094668789156 
2377	 0.324814090709922 
2378	 0.325879359533504 
2379	 0.326820334479831 
2380	 0.327580823533895 
2381	 0.327336355177669 
2382	 0.325889790059549 
2383	 0.324682522323651 
2384	 0.322090350280927 
2385	 0.316573353479702 
2386	 0.314192148330916 
2387	 0.31208582278631 
2388	 0.309996236123603 
2389	 0.31086460004536 
2390	 0.310217121055414 
2391	 0.306784020674681 
2392	 0.307053617039565 
2393	 0.308611063221058 
2394	 0.310212714846942 
2395	 0.3158728782633 
2396	 0.317767121196447 
2397	 0.317339906102051 
2398	 0.317808552224716 
2399	 0.315495173014967 
2400	 0.317248304136551 
2401	 0.322939490078096 
2402	 0.325289830894676 
2403	 0.327058780473143 
2404	 0.331172286056372 
2405	 0.335168989429224 
2406	 0.336020350246147 
2407	 0.335630029975651 
2408	 0.335653195306318 
2409	 0.332783933571316 
2410	 0.332114482907417 
2411	 0.336296504715463 
2412	 0.337823472681382 
2413	 0.337668953724293 
2414	 0.338640149586488 
2415	 0.336633126310124 
2416	 0.332741403042312 
2417	 0.328994787328327 
2418	 0.324150687409279 
2419	 0.320835793561471 
2420	 0.322551791785299 
2421	 0.324035844067911 
2422	 0.32040731249752 
2423	 0.314559709446783 
2424	 0.307164570018602 
2425	 0.299143665458793 
2426	 0.294496540255247 
2427	 0.290839355128963 
2428	 0.288173530483185 
2429	 0.288625012933146 
2430	 0.284730731381479 
2431	 0.280051460366244 
2432	 0.279425301789315 
2433	 0.273070080871242 
2434	 0.269717936241159 
2435	 0.271458504990105 
2436	 0.264882653732852 
2437	 0.254241907430659 
2438	 0.245781295405821 
2439	 0.229823563815286 
2440	 0.222238448951676 
2441	 0.219657002026591 
2442	 0.218614065570047 
2443	 0.225904740788226 
2444	 0.22911715809038 
2445	 0.231041641059028 
2446	 0.235069201503082 
2447	 0.233372517393934 
2448	 0.239727573947597 
2449	 0.259514861139087 
2450	 0.271631361136307 
2451	 0.285794480946516 
2452	 0.293583409975347 
2453	 0.291074367760449 
2454	 0.289269812335101 
2455	 0.286997868548224 
2456	 0.283884896563111 
2457	 0.274722003474069 
2458	 0.274353815152933 
2459	 0.275439131263576 
2460	 0.279134426162504 
2461	 0.292489573325244 
2462	 0.301822152329461 
2463	 0.314128280952481 
2464	 0.319170465612042 
2465	 0.317826910362728 
2466	 0.320603740902409 
2467	 0.319669177499299 
2468	 0.318840490408188 
2469	 0.318239378616837 
2470	 0.321572390301404 
2471	 0.326540567450533 
2472	 0.330948132433672 
2473	 0.347175281191682 
2474	 0.354461847091974 
2475	 0.345800155923358 
2476	 0.345998804576446 
2477	 0.348906786783951 
2478	 0.353014238502119 
2479	 0.366656719899393 
2480	 0.366457074423818 
2481	 0.352545794504146 
2482	 0.354450510761556 
2483	 0.350285766488287 
2484	 0.359929820089625 
2485	 0.415658191789723 
2486	 0.402136108110189 
2487	 0.361627963432434 
2488	 0.371295275379831 
2489	 0.391059244628821 
2490	 0.404767217819211 
2491	 0.449973898757441 
2492	 0.41322408596962 
2493	 0.332237692202588 
2494	 0.31866758178191 
2495	 0.3340785929182 
2496	 0.337299322615989 
2497	 0.337712526129565 
2498	 0.353275992425518 
2499	 0.391352205575084 
2500	 0.437632530399048 
