Wavelength	ref00007.asd
350	 0.036065015292463 
351	 3.68341313191959E-02 
352	 3.70217413151355E-02 
353	 3.70212303110433E-02 
354	 3.64761466078677E-02 
355	 3.60192687425542E-02 
356	 3.60088677189063E-02 
357	 3.59079882071627E-02 
358	 3.58776471730263E-02 
359	 3.56893795981092E-02 
360	 3.52347229441594E-02 
361	 3.53459706072679E-02 
362	 3.52794120293132E-02 
363	 3.52750349871692E-02 
364	 3.60375923066862E-02 
365	 0.035800157320686 
366	 3.55820029566148E-02 
367	 0.035839822579441 
368	 3.57846948193225E-02 
369	 3.56741897621318E-02 
370	 3.54492598731552E-02 
371	 3.51471612217519E-02 
372	 3.53242529605745E-02 
373	 3.52913541570992E-02 
374	 3.51627286773046E-02 
375	 3.53612016541793E-02 
376	 3.51733672946113E-02 
377	 3.52636431771456E-02 
378	 3.56250647547733E-02 
379	 3.53398724634478E-02 
380	 3.51758990370693E-02 
381	 3.52459048676015E-02 
382	 3.53782170745406E-02 
383	 3.49944654284815E-02 
384	 0.034991924964964 
385	 3.52217467996439E-02 
386	 3.51600939036938E-02 
387	 3.51942343776223E-02 
388	 3.53805023680136E-02 
389	 3.55832745471357E-02 
390	 3.55193857928951E-02 
391	 3.55042708218424E-02 
392	 3.54433819960526E-02 
393	 3.52917604070324E-02 
394	 3.52667726706279E-02 
395	 3.54510643427556E-02 
396	 0.035649843048915 
397	 3.56718919505153E-02 
398	 3.59204332354861E-02 
399	 3.60084065332934E-02 
400	 3.60351351872538E-02 
401	 0.036466454300005 
402	 3.66619245397233E-02 
403	 0.036649215855977 
404	 3.65869757029102E-02 
405	 3.66948236647849E-02 
406	 3.66480911987344E-02 
407	 3.65531734720443E-02 
408	 3.66352135947604E-02 
409	 3.69029149395518E-02 
410	 3.71286252012902E-02 
411	 3.72802711228048E-02 
412	 3.74936399192939E-02 
413	 3.75550447853094E-02 
414	 3.75130774442331E-02 
415	 3.75349006543137E-02 
416	 3.79662017099059E-02 
417	 3.82981265880012E-02 
418	 3.84178967194805E-02 
419	 3.84057902940562E-02 
420	 3.84886185550244E-02 
421	 3.86564201713302E-02 
422	 3.88503903100975E-02 
423	 3.89841139680034E-02 
424	 3.90414865663535E-02 
425	 3.91064522702004E-02 
426	 3.92115912424171E-02 
427	 3.92385993894453E-02 
428	 3.92675732851709E-02 
429	 3.93031360791007E-02 
430	 3.93450642952869E-02 
431	 3.94961557498156E-02 
432	 0.039717847210592 
433	 3.99097552400419E-02 
434	 3.99463911303851E-02 
435	 3.99929721951489E-02 
436	 4.00625704606162E-02 
437	 4.01438520537909E-02 
438	 4.02394725321141E-02 
439	 4.02933963112525E-02 
440	 4.03189670864082E-02 
441	 4.03584577284201E-02 
442	 4.04548288801812E-02 
443	 4.05340764447639E-02 
444	 0.040600756126699 
445	 4.07320168889003E-02 
446	 4.07450555450541E-02 
447	 4.07845007377529E-02 
448	 0.040949243234728 
449	 4.10988527720829E-02 
450	 4.11508637613698E-02 
451	 4.11344081734021E-02 
452	 4.11385781132743E-02 
453	 4.12526997120074E-02 
454	 4.13553119985878E-02 
455	 4.13886767986092E-02 
456	 0.041391026053608 
457	 4.14135913220202E-02 
458	 4.14648400714549E-02 
459	 4.15337636811349E-02 
460	 4.15951231046592E-02 
461	 4.16429655581343E-02 
462	 4.16639791564065E-02 
463	 4.16542402970922E-02 
464	 4.17123664892763E-02 
465	 4.17723791949167E-02 
466	 4.17934059420336E-02 
467	 0.041797909215707 
468	 4.18420948135728E-02 
469	 4.18836964241991E-02 
470	 4.18845093137816E-02 
471	 4.19307551255537E-02 
472	 4.20435450763612E-02 
473	 4.21777350169957E-02 
474	 4.22453236686772E-02 
475	 4.22416472837734E-02 
476	 4.22215806562091E-02 
477	 4.22312031342544E-02 
478	 4.22815079340497E-02 
479	 4.23893926335707E-02 
480	 4.24896321034919E-02 
481	 4.25185619005263E-02 
482	 4.25776909921887E-02 
483	 4.25984965597552E-02 
484	 0.04260719937293 
485	 4.27194433647524E-02 
486	 4.27408471809573E-02 
487	 4.27764927873256E-02 
488	 4.29203667781651E-02 
489	 4.30937272145609E-02 
490	 4.31957151536996E-02 
491	 4.32229532406039E-02 
492	 4.32356489620398E-02 
493	 0.043333904382224 
494	 4.35172368977548E-02 
495	 4.37403949059583E-02 
496	 4.39178773760025E-02 
497	 4.40543130156501E-02 
498	 4.41949015158468E-02 
499	 0.044379724149258 
500	 4.45820493262864E-02 
501	 4.48737745004897E-02 
502	 4.52054507730132E-02 
503	 4.54695080212094E-02 
504	 4.57833651896795E-02 
505	 0.046141009752859 
506	 4.65178384577506E-02 
507	 4.68798103746644E-02 
508	 4.73439272290673E-02 
509	 4.79097682962599E-02 
510	 4.85258430790871E-02 
511	 4.90945299157235E-02 
512	 4.98064823855116E-02 
513	 5.06140810958796E-02 
514	 5.12814013077562E-02 
515	 5.21065937959731E-02 
516	 5.30484221527834E-02 
517	 5.40346305213297E-02 
518	 5.50808720083024E-02 
519	 0.056211564911259 
520	 5.74270584300595E-02 
521	 5.86988619002556E-02 
522	 5.98974548072289E-02 
523	 6.11289359494497E-02 
524	 6.24041229790914E-02 
525	 6.35973006482649E-02 
526	 6.48747175573932E-02 
527	 6.62034466965754E-02 
528	 6.75081731413752E-02 
529	 6.87369304904416E-02 
530	 6.98584393616579E-02 
531	 0.070904967995174 
532	 7.19454998913912E-02 
533	 0.072962484620943 
534	 7.39892515004813E-02 
535	 7.50063233504163E-02 
536	 7.59080497491478E-02 
537	 7.68145533387124E-02 
538	 7.76355139008416E-02 
539	 7.82848131423916E-02 
540	 7.89937936565397E-02 
541	 7.97429020027253E-02 
542	 8.04436743523822E-02 
543	 8.09830251551976E-02 
544	 0.081726450165361 
545	 0.082478251730483 
546	 8.30810261994954E-02 
547	 8.36753055960102E-02 
548	 8.42632759383189E-02 
549	 8.48469011612608E-02 
550	 8.54164010192804E-02 
551	 8.59447019135603E-02 
552	 8.63240826856069E-02 
553	 0.086541405963701 
554	 8.66984562022692E-02 
555	 0.086862058164494 
556	 8.69308728686569E-02 
557	 8.68217839733301E-02 
558	 8.66667834178698E-02 
559	 8.64459748420185E-02 
560	 8.61487030135534E-02 
561	 0.085767615273651 
562	 8.52825307455667E-02 
563	 8.47238969569538E-02 
564	 8.41110270018735E-02 
565	 8.34364668988982E-02 
566	 8.27229888191104E-02 
567	 8.19719444628235E-02 
568	 8.11845229576443E-02 
569	 8.04094877577271E-02 
570	 7.95182723424995E-02 
571	 7.85930315357706E-02 
572	 7.78938219552178E-02 
573	 7.71461591137066E-02 
574	 7.64365189260865E-02 
575	 7.58394517344404E-02 
576	 7.52504454915612E-02 
577	 7.46715063795007E-02 
578	 7.41429590203494E-02 
579	 7.36974953071571E-02 
580	 7.31699206713217E-02 
581	 7.26492581587457E-02 
582	 7.21899674554254E-02 
583	 0.071768281376003 
584	 7.13429662594025E-02 
585	 7.09659885316643E-02 
586	 7.06856922545208E-02 
587	 7.04424873042799E-02 
588	 7.01531702484987E-02 
589	 6.98349557989772E-02 
590	 6.95833916645772E-02 
591	 6.93608307425807E-02 
592	 6.91559096140734E-02 
593	 6.89785387823891E-02 
594	 6.88941820869999E-02 
595	 6.87686458901051E-02 
596	 6.86186818006274E-02 
597	 6.85046748441235E-02 
598	 6.84134501887029E-02 
599	 6.83738850458752E-02 
600	 6.83553050100128E-02 
601	 6.82694657228213E-02 
602	 6.81389230143873E-02 
603	 6.79674925442209E-02 
604	 6.77450964025932E-02 
605	 6.74152803296571E-02 
606	 6.71140995709025E-02 
607	 6.67785786955362E-02 
608	 6.62845484826059E-02 
609	 6.58507464757505E-02 
610	 0.065431924424135 
611	 6.49939680503155E-02 
612	 0.064552538841445 
613	 6.40599580977345E-02 
614	 0.063588881848626 
615	 6.31950931544608E-02 
616	 6.27323608945023E-02 
617	 6.23256889133305E-02 
618	 6.20014000684876E-02 
619	 6.17079362318183E-02 
620	 6.14910605396881E-02 
621	 6.12981450945412E-02 
622	 6.10910924075979E-02 
623	 0.060875654937097 
624	 6.07540977427156E-02 
625	 6.06875589102864E-02 
626	 6.06054430791902E-02 
627	 0.060577889172791 
628	 6.05921425687324E-02 
629	 6.06107332818286E-02 
630	 6.05815918113427E-02 
631	 0.060593954667842 
632	 6.05933717773763E-02 
633	 6.05241217016415E-02 
634	 6.03949568844019E-02 
635	 6.02592764044771E-02 
636	 6.00905269140907E-02 
637	 5.98353627035306E-02 
638	 5.95407405963044E-02 
639	 5.91510585324535E-02 
640	 5.87128437588555E-02 
641	 5.84194378172849E-02 
642	 5.80026304049715E-02 
643	 0.057517558219148 
644	 5.70742722352597E-02 
645	 5.67040862871993E-02 
646	 5.62650459813894E-02 
647	 0.055807115123378 
648	 5.54792106987097E-02 
649	 5.51282247680512E-02 
650	 5.47983221733472E-02 
651	 5.45199822715778E-02 
652	 5.42465527304399E-02 
653	 0.054059641733943 
654	 5.38880835117141E-02 
655	 5.36257677362407E-02 
656	 5.32497484022335E-02 
657	 5.28970902201002E-02 
658	 5.25901752151547E-02 
659	 5.21977295720374E-02 
660	 5.17735402827201E-02 
661	 5.13317187161695E-02 
662	 0.050904123287812 
663	 5.05402870155252E-02 
664	 0.050124044273094 
665	 4.97268599433396E-02 
666	 4.94530988735437E-02 
667	 4.92384815187639E-02 
668	 4.90135204103614E-02 
669	 4.88018255194092E-02 
670	 4.86987204222893E-02 
671	 4.85504115372415E-02 
672	 4.85010383513791E-02 
673	 4.85900522622526E-02 
674	 4.84705970285996E-02 
675	 0.04849974833525 
676	 4.86460554504234E-02 
677	 4.87500569516658E-02 
678	 4.88664247766354E-02 
679	 4.90407273068749E-02 
680	 4.92854161949736E-02 
681	 4.95771236566734E-02 
682	 4.98987534917805E-02 
683	 5.03971975702514E-02 
684	 5.11372971815576E-02 
685	 5.18808641938501E-02 
686	 5.28151713804074E-02 
687	 5.40740586678655E-02 
688	 5.55954879708412E-02 
689	 5.70273568604263E-02 
690	 5.86800532237937E-02 
691	 6.08359419719558E-02 
692	 6.35497840295547E-02 
693	 6.67098355919253E-02 
694	 7.04345707286762E-02 
695	 7.47531347164974E-02 
696	 7.93789135051779E-02 
697	 8.46241877915177E-02 
698	 9.04608647242409E-02 
699	 9.66659676392262E-02 
700	 0.103111473696935 
701	 0.109972587655197 
702	 0.117160396161544 
703	 0.12423192896777 
704	 0.131524279616168 
705	 0.138793888181459 
706	 0.145907206114807 
707	 0.153119488824293 
708	 0.160462647869014 
709	 0.16784267673336 
710	 0.175088342119592 
711	 0.182434747226359 
712	 0.189845503393897 
713	 0.197255709328624 
714	 0.204603623611134 
715	 0.21210971186945 
716	 0.219548403896393 
717	 0.22693009563467 
718	 0.23449525847955 
719	 0.242195703151403 
720	 0.249802745854329 
721	 0.257142764002618 
722	 0.264165278498761 
723	 0.271058717188849 
724	 0.278122511367893 
725	 0.284905432231532 
726	 0.291428510621317 
727	 0.297728226541767 
728	 0.303946579529438 
729	 0.309894221399187 
730	 0.315545567610864 
731	 0.32089362478066 
732	 0.325985333484679 
733	 0.330790901147587 
734	 0.335409727143498 
735	 0.339856182285437 
736	 0.343957582270274 
737	 0.347910977182704 
738	 0.351544983202542 
739	 0.354854609840021 
740	 0.3581420770746 
741	 0.361226595370725 
742	 0.364077499107627 
743	 0.366707506811865 
744	 0.369222062593446 
745	 0.371447993559314 
746	 0.37342849751266 
747	 0.37535582284276 
748	 0.377106393215739 
749	 0.378697880213828 
750	 0.380186581347562 
751	 0.381665133306398 
752	 0.382948027373113 
753	 0.384045505758811 
754	 0.385046103778723 
755	 0.386065384996338 
756	 0.387125543357441 
757	 0.388288058718422 
758	 0.389596918050994 
759	 0.390557404280936 
760	 0.391299111157412 
761	 0.392037515790605 
762	 0.393015317978619 
763	 0.393100580992176 
764	 0.3930397342763 
765	 0.39332095242712 
766	 0.393493165554738 
767	 0.393784406862951 
768	 0.394156672470166 
769	 0.394507269591284 
770	 0.39475508787656 
771	 0.39507877119111 
772	 0.395475095532086 
773	 0.395790352691209 
774	 0.396102277185011 
775	 0.39639996925068 
776	 0.396689943058321 
777	 0.397032543403034 
778	 0.397299694178438 
779	 0.397578356603527 
780	 0.397933087883481 
781	 0.398129445297877 
782	 0.398426985395624 
783	 0.398782268555847 
784	 0.399023264255723 
785	 0.399341334421052 
786	 0.399629988370261 
787	 0.399875217422731 
788	 0.40018542995309 
789	 0.400637559393674 
790	 0.401021769010422 
791	 0.401224807664255 
792	 0.401442438078729 
793	 0.401741592240805 
794	 0.402057203026931 
795	 0.402319927061208 
796	 0.402668789543023 
797	 0.402959905337855 
798	 0.403250914457152 
799	 0.403683821428787 
800	 0.404074338276653 
801	 0.404321445123311 
802	 0.404458048991604 
803	 0.404658670426185 
804	 0.404960469349168 
805	 0.405388271621051 
806	 0.405836944719043 
807	 0.405952202391571 
808	 0.406216414355799 
809	 0.406568608513951 
810	 0.406839817345272 
811	 0.407193436804779 
812	 0.40745277192067 
813	 0.407679875071269 
814	 0.408027193143436 
815	 0.408169759627708 
816	 0.408326423097334 
817	 0.408584541793925 
818	 0.40884192195762 
819	 0.409267376773095 
820	 0.409854782659678 
821	 0.410332910122255 
822	 0.410037210693995 
823	 0.410053401297041 
824	 0.410715452722964 
825	 0.411752700939676 
826	 0.412039889801742 
827	 0.412073022933799 
828	 0.412093145440525 
829	 0.412236569955852 
830	 0.41259197140146 
831	 0.412920059594074 
832	 0.413156293053395 
833	 0.413403384825137 
834	 0.41385308663815 
835	 0.414261456136319 
836	 0.414550679049995 
837	 0.41489532820453 
838	 0.415154297931789 
839	 0.41541017701565 
840	 0.415728747242958 
841	 0.416066769531935 
842	 0.416275295856121 
843	 0.416487942772712 
844	 0.416845183829494 
845	 0.417214720333212 
846	 0.417626193239633 
847	 0.417939079390876 
848	 0.418033934109828 
849	 0.418255174036375 
850	 0.418645771090802 
851	 0.419087303157335 
852	 0.419352225919872 
853	 0.419300387131036 
854	 0.419247498311068 
855	 0.419589084203406 
856	 0.420612039946353 
857	 0.421235746670439 
858	 0.421409043749928 
859	 0.421407878225489 
860	 0.421670634606279 
861	 0.421939035547828 
862	 0.422370131227984 
863	 0.422915000897032 
864	 0.42275137322294 
865	 0.422606175781682 
866	 0.422586651636556 
867	 0.422743379312175 
868	 0.423820740616451 
869	 0.424375246947152 
870	 0.424306490365205 
871	 0.424227960745084 
872	 0.424499443266792 
873	 0.424737051722884 
874	 0.424905656130809 
875	 0.425213656236757 
876	 0.425458317806459 
877	 0.425771137004136 
878	 0.426074744791112 
879	 0.426122171234526 
880	 0.426521878806168 
881	 0.426850124785781 
882	 0.426959310579225 
883	 0.427268786785351 
884	 0.427625955765674 
885	 0.427812992338213 
886	 0.42780854265421 
887	 0.42795914079814 
888	 0.42828882118322 
889	 0.428472664673699 
890	 0.428441619897395 
891	 0.429017642508728 
892	 0.429281723401322 
893	 0.429253525471754 
894	 0.429191802186239 
895	 0.429008203345041 
896	 0.428730504109555 
897	 0.428608055333552 
898	 0.428814877770639 
899	 0.428754026580121 
900	 0.428815598926208 
901	 0.429208313970473 
902	 0.429967202114339 
903	 0.431040750188399 
904	 0.431726296035837 
905	 0.431864105877906 
906	 0.43164711294754 
907	 0.430812023996869 
908	 0.430445801298099 
909	 0.430908664360152 
910	 0.431700780304576 
911	 0.431859500166249 
912	 0.431763866199207 
913	 0.431746729565806 
914	 0.431886508744727 
915	 0.432047741706629 
916	 0.432089821568662 
917	 0.432283210000825 
918	 0.433169749388516 
919	 0.433059816484321 
920	 0.433075030685262 
921	 0.433593338691293 
922	 0.433575619712316 
923	 0.43391961518872 
924	 0.434517428272915 
925	 0.435022593467609 
926	 0.435015592821755 
927	 0.433786832233131 
928	 0.432996081515747 
929	 0.433085872881445 
930	 0.431158177491733 
931	 0.429684616421661 
932	 0.42880987089563 
933	 0.428244633098014 
934	 0.428127403599732 
935	 0.428108507518414 
936	 0.429013331364031 
937	 0.430932125609727 
938	 0.43218040743616 
939	 0.433254020225447 
940	 0.433592590430745 
941	 0.432823771607995 
942	 0.431246013447415 
943	 0.430285031728493 
944	 0.429530060631015 
945	 0.428697446296106 
946	 0.428858418982789 
947	 0.42950224898266 
948	 0.429896850083292 
949	 0.429641916942454 
950	 0.429141797871808 
951	 0.428463957551535 
952	 0.427869550485594 
953	 0.427478305389052 
954	 0.427058816259538 
955	 0.426783645493396 
956	 0.426795875387321 
957	 0.426972899918501 
958	 0.426759822516668 
959	 0.425422721153954 
960	 0.424930216342239 
961	 0.426028817709767 
962	 0.426202825993279 
963	 0.426336046789348 
964	 0.426066981054853 
965	 0.425461566680667 
966	 0.425594813787267 
967	 0.426720264166898 
968	 0.427779505959372 
969	 0.42787793455096 
970	 0.426970258910391 
971	 0.426944271822237 
972	 0.426426345392416 
973	 0.425239581146241 
974	 0.425649737030126 
975	 0.425329721437672 
976	 0.42568081923155 
977	 0.426838930281799 
978	 0.426679186957451 
979	 0.426396235753262 
980	 0.426628580688716 
981	 0.427249832960893 
982	 0.427479285274246 
983	 0.427622054217181 
984	 0.427673922045123 
985	 0.42748916086364 
986	 0.427017550572603 
987	 0.427673500498962 
988	 0.428073694397257 
989	 0.428165741818291 
990	 0.428968624140297 
991	 0.42989279743537 
992	 0.429915114472538 
993	 0.429615309864825 
994	 0.430179051237134 
995	 0.430218824710966 
996	 0.430585699234744 
997	 0.430614340879327 
998	 0.429700928451995 
999	 0.430686946639259 
1000	 0.432269712763919 
1001	 0.422278688872104 
1002	 0.422418911193906 
1003	 0.422780769870658 
1004	 0.423318229526633 
1005	 0.423712090384019 
1006	 0.424220263985919 
1007	 0.424597471767826 
1008	 0.424702697778432 
1009	 0.425124473138762 
1010	 0.425759007763441 
1011	 0.426223575194007 
1012	 0.426660154090061 
1013	 0.427068602801106 
1014	 0.427113459269579 
1015	 0.427267202010991 
1016	 0.427831760108386 
1017	 0.428334132776924 
1018	 0.428708944660668 
1019	 0.429138416646211 
1020	 0.429482830827691 
1021	 0.429546656208019 
1022	 0.429864379168766 
1023	 0.430285010866981 
1024	 0.430789323480339 
1025	 0.431354042279506 
1026	 0.431809496229342 
1027	 0.432214747999278 
1028	 0.432615399607424 
1029	 0.432870227983714 
1030	 0.433195767066502 
1031	 0.433636213546125 
1032	 0.434043409135209 
1033	 0.434476466760336 
1034	 0.435021307987343 
1035	 0.435469201637632 
1036	 0.435813235923291 
1037	 0.436229591544118 
1038	 0.436687717385789 
1039	 0.43709542492955 
1040	 0.437430192567225 
1041	 0.437860523339575 
1042	 0.438202064502581 
1043	 0.438470663002512 
1044	 0.438758665721295 
1045	 0.439100031376411 
1046	 0.439475005085814 
1047	 0.43978366435178 
1048	 0.440169634958492 
1049	 0.440454289640602 
1050	 0.440711740279326 
1051	 0.440882573025078 
1052	 0.441144193555589 
1053	 0.44138863443285 
1054	 0.441687900668018 
1055	 0.441903205626759 
1056	 0.44208144664641 
1057	 0.44230038523943 
1058	 0.442446130671827 
1059	 0.442658617965776 
1060	 0.442867134662366 
1061	 0.442884715641841 
1062	 0.442934629950644 
1063	 0.443011780453837 
1064	 0.442908135508919 
1065	 0.442888324575627 
1066	 0.442921287469409 
1067	 0.442946185855125 
1068	 0.442838104520557 
1069	 0.442859713899076 
1070	 0.442888837044166 
1071	 0.44290167304712 
1072	 0.442951038656972 
1073	 0.442972741572662 
1074	 0.442957125786856 
1075	 0.442825030287786 
1076	 0.442715745639796 
1077	 0.442589916192246 
1078	 0.442390285182047 
1079	 0.442241787199709 
1080	 0.442084589309956 
1081	 0.441959378640048 
1082	 0.441860797927773 
1083	 0.441833088968595 
1084	 0.441808060878873 
1085	 0.441740946993868 
1086	 0.441620033954278 
1087	 0.441469791756459 
1088	 0.44126141677942 
1089	 0.441122269289976 
1090	 0.44114752095166 
1091	 0.441221664081045 
1092	 0.441118371633287 
1093	 0.440885686932202 
1094	 0.440753695142513 
1095	 0.440586933302094 
1096	 0.440446978853196 
1097	 0.440502013561957 
1098	 0.440447014578696 
1099	 0.440286230970528 
1100	 0.440138059566876 
1101	 0.440120425627852 
1102	 0.440050728094763 
1103	 0.439966403457009 
1104	 0.43982818470398 
1105	 0.439554677796255 
1106	 0.439383929639981 
1107	 0.439322192473137 
1108	 0.439153098203112 
1109	 0.439029463343014 
1110	 0.438905822915838 
1111	 0.438722916653623 
1112	 0.438381506555225 
1113	 0.43820287195431 
1114	 0.438099905937597 
1115	 0.437956098397637 
1116	 0.437842755650978 
1117	 0.437803058357614 
1118	 0.43766644381076 
1119	 0.437451987588248 
1120	 0.437263277636327 
1121	 0.437065346707922 
1122	 0.436938722761331 
1123	 0.436918409848793 
1124	 0.436772418310172 
1125	 0.43657677012815 
1126	 0.436319099545966 
1127	 0.435922852564259 
1128	 0.435529730426416 
1129	 0.435299894253794 
1130	 0.434726098908365 
1131	 0.434001310521312 
1132	 0.433261293416886 
1133	 0.432397928919895 
1134	 0.431404164862144 
1135	 0.430487324033571 
1136	 0.429662112192759 
1137	 0.428826811701357 
1138	 0.427942826067297 
1139	 0.426935757087068 
1140	 0.42568997871311 
1141	 0.424416917206972 
1142	 0.423195406580374 
1143	 0.421968333079228 
1144	 0.420835080548463 
1145	 0.41961340685292 
1146	 0.418273815275382 
1147	 0.417019646411133 
1148	 0.415840836906982 
1149	 0.414688775910546 
1150	 0.413537008982473 
1151	 0.412537686421567 
1152	 0.411633976372051 
1153	 0.410848604206616 
1154	 0.410158176365678 
1155	 0.409636023425695 
1156	 0.409185052177582 
1157	 0.408630115521797 
1158	 0.40812885919783 
1159	 0.407698330936516 
1160	 0.407316928003336 
1161	 0.406958021054648 
1162	 0.40668096226352 
1163	 0.406488836868346 
1164	 0.406264310729296 
1165	 0.406031768813197 
1166	 0.405847793874724 
1167	 0.405674397301689 
1168	 0.405526203807523 
1169	 0.405453515231055 
1170	 0.405344207572677 
1171	 0.405108881393135 
1172	 0.40489178879763 
1173	 0.404684061334554 
1174	 0.404498133836283 
1175	 0.404478996856731 
1176	 0.404490114772175 
1177	 0.404432796228872 
1178	 0.404382627513757 
1179	 0.404295108930577 
1180	 0.404152513012802 
1181	 0.404033137692993 
1182	 0.403904159226922 
1183	 0.403778173104615 
1184	 0.403640257430728 
1185	 0.403522810114276 
1186	 0.403407205352711 
1187	 0.403316278503634 
1188	 0.403254978927529 
1189	 0.403179013158816 
1190	 0.403137515748788 
1191	 0.403126976359428 
1192	 0.403001230913357 
1193	 0.402913399649747 
1194	 0.402843119141518 
1195	 0.402716351426674 
1196	 0.402653571572673 
1197	 0.402633573723733 
1198	 0.402671495927064 
1199	 0.402766686058086 
1200	 0.40283751441639 
1201	 0.402916375478954 
1202	 0.403078501665394 
1203	 0.403255603277383 
1204	 0.403457735061985 
1205	 0.403785601495318 
1206	 0.404053451273195 
1207	 0.404221422496068 
1208	 0.404484145221157 
1209	 0.404803543348629 
1210	 0.405162485633739 
1211	 0.405467397436413 
1212	 0.405780454898084 
1213	 0.406084262542433 
1214	 0.406326859053734 
1215	 0.406629661497579 
1216	 0.406966224435897 
1217	 0.407313668201425 
1218	 0.407654161535229 
1219	 0.408047355120173 
1220	 0.40852752010889 
1221	 0.408936592022517 
1222	 0.409367525961737 
1223	 0.409735757987285 
1224	 0.409972331833819 
1225	 0.410338384637595 
1226	 0.410766645356305 
1227	 0.411161506286737 
1228	 0.411626441423187 
1229	 0.412070855683193 
1230	 0.412379839957108 
1231	 0.412699087711937 
1232	 0.413011063556992 
1233	 0.413276994425901 
1234	 0.413605052437937 
1235	 0.413975528153813 
1236	 0.414288462599819 
1237	 0.414604541058077 
1238	 0.414920862972273 
1239	 0.415207655239572 
1240	 0.415495560721113 
1241	 0.415769218686744 
1242	 0.416090007995704 
1243	 0.416431960628066 
1244	 0.416752566593596 
1245	 0.417163716720821 
1246	 0.417466756266951 
1247	 0.417644087894785 
1248	 0.417881414349281 
1249	 0.418082588222178 
1250	 0.418320148116669 
1251	 0.418598663702771 
1252	 0.41892431574115 
1253	 0.419173367779361 
1254	 0.419391854724066 
1255	 0.419652369394423 
1256	 0.419871233539083 
1257	 0.420166135274189 
1258	 0.420579563381445 
1259	 0.420863943803764 
1260	 0.42108994364877 
1261	 0.421376158446161 
1262	 0.421643570018078 
1263	 0.421900000243231 
1264	 0.422242726023256 
1265	 0.422475552230104 
1266	 0.422552477498777 
1267	 0.422726940381604 
1268	 0.423000406629584 
1269	 0.423119949316601 
1270	 0.423197584984396 
1271	 0.423242246687811 
1272	 0.423216974514169 
1273	 0.423041451219881 
1274	 0.422960107601161 
1275	 0.422924172941195 
1276	 0.422804008952178 
1277	 0.422645627829063 
1278	 0.422467547254844 
1279	 0.42224251244033 
1280	 0.422031430480059 
1281	 0.421831863016276 
1282	 0.421563175500659 
1283	 0.421263986306914 
1284	 0.420948287803988 
1285	 0.42055311445594 
1286	 0.420208285254284 
1287	 0.419911344432256 
1288	 0.419552087213153 
1289	 0.419225473145705 
1290	 0.41879118373864 
1291	 0.418251080140482 
1292	 0.417718379753142 
1293	 0.417089594611124 
1294	 0.416502714111842 
1295	 0.415941090978839 
1296	 0.415374197708137 
1297	 0.414743229140361 
1298	 0.414090258812398 
1299	 0.413418066379106 
1300	 0.412697352695236 
1301	 0.41195551793465 
1302	 0.411203725287579 
1303	 0.410420607239222 
1304	 0.409589673513482 
1305	 0.408732921549698 
1306	 0.407832077723446 
1307	 0.406959584757111 
1308	 0.406034577623055 
1309	 0.405164701798805 
1310	 0.404427176812028 
1311	 0.403520779057582 
1312	 0.402505237584026 
1313	 0.401541308885012 
1314	 0.40053039223353 
1315	 0.399493683718668 
1316	 0.39851732958506 
1317	 0.397476526015098 
1318	 0.396278259500391 
1319	 0.395172362228814 
1320	 0.394128419880904 
1321	 0.393049891848742 
1322	 0.391908329756384 
1323	 0.390734409458844 
1324	 0.389586216312804 
1325	 0.388360881209316 
1326	 0.387139719399288 
1327	 0.385941600255945 
1328	 0.384705989135603 
1329	 0.383390505781895 
1330	 0.382077412482147 
1331	 0.38082971793289 
1332	 0.37948192142538 
1333	 0.378024922166296 
1334	 0.376654997122632 
1335	 0.37525405458664 
1336	 0.373944290999706 
1337	 0.3726223361262 
1338	 0.371449323215709 
1339	 0.370363599728001 
1340	 0.369288615804475 
1341	 0.368232628283673 
1342	 0.367215896072946 
1343	 0.366138380850049 
1344	 0.365050792211779 
1345	 0.36385951321352 
1346	 0.36269704161732 
1347	 0.361590753607953 
1348	 0.360403067726763 
1349	 0.35934463304075 
1350	 0.358750213777384 
1351	 0.357761877784884 
1352	 0.356908005103467 
1353	 0.355645134612142 
1354	 0.354173658791966 
1355	 0.352330855143574 
1356	 0.350332000308372 
1357	 0.348050187209932 
1358	 0.348566140372502 
1359	 0.34552312283561 
1360	 0.340252646093174 
1361	 0.334946972918027 
1362	 0.330243273518511 
1363	 0.320806389474125 
1364	 0.317852479165326 
1365	 0.317104464597287 
1366	 0.317755838983168 
1367	 0.316853289578566 
1368	 0.325552075669164 
1369	 0.325029811882795 
1370	 0.317037431516906 
1371	 0.313981885165326 
1372	 0.310350539084608 
1373	 0.308990019608582 
1374	 0.309595987591664 
1375	 0.310501272538316 
1376	 0.308773080305336 
1377	 0.307867821089403 
1378	 0.307223290678859 
1379	 0.306408573989819 
1380	 0.302607281306561 
1381	 0.299883615391531 
1382	 0.293177449187824 
1383	 0.282816610158607 
1384	 0.273649498723663 
1385	 0.263443740013885 
1386	 0.256800272362839 
1387	 0.251005922201057 
1388	 0.247127984558979 
1389	 0.247307619005639 
1390	 0.243801457267222 
1391	 0.240308174869702 
1392	 0.235022647421285 
1393	 0.227297797762182 
1394	 0.221115246329343 
1395	 0.21402741004079 
1396	 0.20874210012341 
1397	 0.204588813582085 
1398	 0.20058065892171 
1399	 0.198712766987077 
1400	 0.194227941600751 
1401	 0.188259201449019 
1402	 0.183351748649516 
1403	 0.17839099962614 
1404	 0.173141130145073 
1405	 0.168183610706682 
1406	 0.164247737069693 
1407	 0.159880950395971 
1408	 0.156428795744541 
1409	 0.15434983748417 
1410	 0.152205681730863 
1411	 0.149636011801527 
1412	 0.146828347131159 
1413	 0.144773581279946 
1414	 0.142799302710389 
1415	 0.14106029673202 
1416	 0.13987414834359 
1417	 0.138309175162529 
1418	 0.13667582666379 
1419	 0.134980941759669 
1420	 0.132996943945904 
1421	 0.131717590166252 
1422	 0.130594644638959 
1423	 0.129555242291551 
1424	 0.128905931784634 
1425	 0.128076395867989 
1426	 0.127043004537518 
1427	 0.126200914085137 
1428	 0.125432319466516 
1429	 0.124719857938052 
1430	 0.124005534735644 
1431	 0.123359040376327 
1432	 0.122692882813094 
1433	 0.122200413862734 
1434	 0.121883342177096 
1435	 0.121486298395781 
1436	 0.121237401055713 
1437	 0.120875296784134 
1438	 0.12028656541768 
1439	 0.119920157899412 
1440	 0.11969849053691 
1441	 0.119413070760494 
1442	 0.11917664357035 
1443	 0.118979154801935 
1444	 0.11880671976163 
1445	 0.118634021323309 
1446	 0.118574834490317 
1447	 0.118628935211677 
1448	 0.118584073045193 
1449	 0.118505914607157 
1450	 0.118475303896519 
1451	 0.118419415275396 
1452	 0.118459556225089 
1453	 0.118539776224395 
1454	 0.118635596089255 
1455	 0.118826427209413 
1456	 0.118891290468482 
1457	 0.11892309411664 
1458	 0.118947192691125 
1459	 0.11880184418967 
1460	 0.118941388127018 
1461	 0.119253523469501 
1462	 0.119521758011069 
1463	 0.119937428808376 
1464	 0.120347809924332 
1465	 0.12071091689561 
1466	 0.121173211950304 
1467	 0.121748000274721 
1468	 0.122383602313727 
1469	 0.122976884062104 
1470	 0.123753641389114 
1471	 0.12469429172875 
1472	 0.125581057080613 
1473	 0.126490646295698 
1474	 0.127402009293554 
1475	 0.128282831668183 
1476	 0.129130314026906 
1477	 0.129902825226082 
1478	 0.130776586790377 
1479	 0.131608487476115 
1480	 0.132538070748568 
1481	 0.133549347276054 
1482	 0.134594700600229 
1483	 0.135700477640122 
1484	 0.136770507970471 
1485	 0.137838106728141 
1486	 0.13891830721876 
1487	 0.139969311881448 
1488	 0.140978937954147 
1489	 0.142087159091973 
1490	 0.143236925401985 
1491	 0.144341069166294 
1492	 0.145453679216137 
1493	 0.146555703173015 
1494	 0.147661848512904 
1495	 0.148739086986059 
1496	 0.149851420856173 
1497	 0.150918991262777 
1498	 0.151941639716027 
1499	 0.153036677497244 
1500	 0.154160691356025 
1501	 0.155339192139059 
1502	 0.156579520940729 
1503	 0.157834608868168 
1504	 0.159146353653864 
1505	 0.160417381466346 
1506	 0.161713227516139 
1507	 0.162934924984976 
1508	 0.164114730564441 
1509	 0.165284209035285 
1510	 0.166383188685611 
1511	 0.167556005259462 
1512	 0.168771605919797 
1513	 0.169949674779902 
1514	 0.171128502207354 
1515	 0.172343609206181 
1516	 0.173584872479013 
1517	 0.174782106153908 
1518	 0.17601610176358 
1519	 0.17722505793713 
1520	 0.178352130369933 
1521	 0.17955096350895 
1522	 0.180842447305215 
1523	 0.182040098765575 
1524	 0.18321669168074 
1525	 0.184383550861879 
1526	 0.185456780010524 
1527	 0.18662991396457 
1528	 0.18790842168708 
1529	 0.189088684150663 
1530	 0.190273632081533 
1531	 0.191432849307467 
1532	 0.192518341172112 
1533	 0.193613478383276 
1534	 0.19472026300356 
1535	 0.195824132909982 
1536	 0.196889423545427 
1537	 0.197984234690617 
1538	 0.199141060042992 
1539	 0.200227694735071 
1540	 0.201241512564418 
1541	 0.202325621459021 
1542	 0.203389805114419 
1543	 0.204503938982873 
1544	 0.205758083660352 
1545	 0.206900224397751 
1546	 0.208019283884146 
1547	 0.209091146253453 
1548	 0.210053389895864 
1549	 0.211067227202976 
1550	 0.212118473542277 
1551	 0.213112634530453 
1552	 0.2140549911811 
1553	 0.21504846789942 
1554	 0.216048627245377 
1555	 0.217020631378086 
1556	 0.218075193668713 
1557	 0.219039184635133 
1558	 0.219862116568715 
1559	 0.220748903045309 
1560	 0.221604364232259 
1561	 0.222510054549562 
1562	 0.223573284467883 
1563	 0.224500951058264 
1564	 0.225353563041525 
1565	 0.22622491567009 
1566	 0.227023586032476 
1567	 0.227793999385019 
1568	 0.228667660005476 
1569	 0.229624667190679 
1570	 0.230545081421604 
1571	 0.231499480742316 
1572	 0.232398200833977 
1573	 0.233273871333433 
1574	 0.234140202034506 
1575	 0.234971094582197 
1576	 0.235801833241857 
1577	 0.236613918467939 
1578	 0.237422863060854 
1579	 0.238195631783445 
1580	 0.239011201395539 
1581	 0.239863465175621 
1582	 0.240619221118061 
1583	 0.241341100446005 
1584	 0.24209472872489 
1585	 0.242790342263256 
1586	 0.243544798958602 
1587	 0.244355199726557 
1588	 0.245164856960935 
1589	 0.24598842770412 
1590	 0.246775603687263 
1591	 0.247600326249329 
1592	 0.248350522486019 
1593	 0.249025480554808 
1594	 0.249742188340959 
1595	 0.250461493449584 
1596	 0.251174802900616 
1597	 0.251894423536238 
1598	 0.252593686833222 
1599	 0.253293785996928 
1600	 0.253955435250207 
1601	 0.25455865279357 
1602	 0.255259680632969 
1603	 0.255999317534161 
1604	 0.25667507123103 
1605	 0.25738018298151 
1606	 0.258061669495251 
1607	 0.258678294431605 
1608	 0.259298399513567 
1609	 0.259955619668011 
1610	 0.260548242762071 
1611	 0.261031885331737 
1612	 0.261633291710688 
1613	 0.262282199341684 
1614	 0.262902642246 
1615	 0.263563143556967 
1616	 0.264177684816791 
1617	 0.264737449167867 
1618	 0.265356869908482 
1619	 0.26602450720938 
1620	 0.266596733904548 
1621	 0.267170132381644 
1622	 0.26769182254117 
1623	 0.268111788336372 
1624	 0.268608911294335 
1625	 0.269141134959764 
1626	 0.269607108804552 
1627	 0.270058055184605 
1628	 0.270514268681336 
1629	 0.270899425415058 
1630	 0.271419208180813 
1631	 0.272054362298972 
1632	 0.272551994720048 
1633	 0.273066793086979 
1634	 0.273550213603793 
1635	 0.27394101637292 
1636	 0.274362625081744 
1637	 0.274825516969369 
1638	 0.275214060839689 
1639	 0.275518996466754 
1640	 0.275889700557275 
1641	 0.276292938966844 
1642	 0.276635400130861 
1643	 0.276947162915353 
1644	 0.277298019937667 
1645	 0.277635259767456 
1646	 0.277939931318708 
1647	 0.278295308796162 
1648	 0.278540112104631 
1649	 0.278676609198362 
1650	 0.278873533574652 
1651	 0.279069751690253 
1652	 0.279211290272761 
1653	 0.279338907762873 
1654	 0.279456070773382 
1655	 0.279514988093753 
1656	 0.279636081289683 
1657	 0.279799497490608 
1658	 0.279948448703145 
1659	 0.280000676396043 
1660	 0.280114984266204 
1661	 0.28017040289231 
1662	 0.280190421571485 
1663	 0.280326995671953 
1664	 0.280419796112554 
1665	 0.280511379329163 
1666	 0.280488256412536 
1667	 0.280396065069364 
1668	 0.280359199427937 
1669	 0.280288984102757 
1670	 0.280259839642613 
1671	 0.280253341782838 
1672	 0.280137946912935 
1673	 0.279973627734432 
1674	 0.279886143169269 
1675	 0.279787475482254 
1676	 0.279669669645961 
1677	 0.279507290441652 
1678	 0.27924552230304 
1679	 0.279023693356265 
1680	 0.278753791902036 
1681	 0.278429939782581 
1682	 0.278133929934406 
1683	 0.277693901884569 
1684	 0.277200463999411 
1685	 0.276762284432777 
1686	 0.276207847416373 
1687	 0.275682977180592 
1688	 0.275181032437704 
1689	 0.27452924166173 
1690	 0.273899026241887 
1691	 0.273350149646322 
1692	 0.272878770186869 
1693	 0.272339038511679 
1694	 0.271795035875988 
1695	 0.271297604158406 
1696	 0.270754577747828 
1697	 0.270230814754367 
1698	 0.269874893173647 
1699	 0.269322396225747 
1700	 0.268562378948112 
1701	 0.267956685732243 
1702	 0.26732724687194 
1703	 0.266727631123712 
1704	 0.266286012437474 
1705	 0.265698280901002 
1706	 0.265006056798973 
1707	 0.264345522351416 
1708	 0.263606994130486 
1709	 0.262955912843752 
1710	 0.262391584208736 
1711	 0.261768771981237 
1712	 0.261090789190067 
1713	 0.260556503516565 
1714	 0.260045499344079 
1715	 0.259582175132164 
1716	 0.259282474702048 
1717	 0.258919731419898 
1718	 0.258527019436853 
1719	 0.258151563500895 
1720	 0.257777402289762 
1721	 0.257445473291299 
1722	 0.257151149887982 
1723	 0.256827404498389 
1724	 0.256510698704863 
1725	 0.256211975117644 
1726	 0.255854960546952 
1727	 0.255627568463462 
1728	 0.255525186412949 
1729	 0.25534020878983 
1730	 0.255224805217818 
1731	 0.25486861222888 
1732	 0.254485938579668 
1733	 0.254061017120106 
1734	 0.253830835726331 
1735	 0.253839093026498 
1736	 0.253652891156961 
1737	 0.253336758357791 
1738	 0.252979943234719 
1739	 0.252420018578472 
1740	 0.251934735129464 
1741	 0.251483452125795 
1742	 0.25095610972021 
1743	 0.250484907569567 
1744	 0.249996398460031 
1745	 0.24954599279511 
1746	 0.248998875144465 
1747	 0.248377752481041 
1748	 0.247712583452163 
1749	 0.247031759005901 
1750	 0.246585201717777 
1751	 0.246168308351786 
1752	 0.245771698445615 
1753	 0.245306394733228 
1754	 0.2445089489039 
1755	 0.243687860191199 
1756	 0.242943578438625 
1757	 0.242400225376106 
1758	 0.241882896393498 
1759	 0.241427948966575 
1760	 0.240965412920065 
1761	 0.240528762969872 
1762	 0.240067956928327 
1763	 0.239593792134891 
1764	 0.239202209580683 
1765	 0.238876763807184 
1766	 0.238472242058415 
1767	 0.238099360875615 
1768	 0.237723602835298 
1769	 0.237172571755199 
1770	 0.23679867504221 
1771	 0.236580745537024 
1772	 0.236344504617928 
1773	 0.236177013568293 
1774	 0.236116496166478 
1775	 0.236016509073243 
1776	 0.235908507771942 
1777	 0.235631431020553 
1778	 0.235392579577336 
1779	 0.235145849750785 
1780	 0.234929284272812 
1781	 0.234864477133563 
1782	 0.234892153419643 
1783	 0.234915303722292 
1784	 0.234777562495102 
1785	 0.234969416593218 
1786	 0.235081537100259 
1787	 0.235100470734802 
1788	 0.235607025896323 
1789	 0.236016786385921 
1790	 0.236469360990959 
1791	 0.236985551713207 
1792	 0.237255253203574 
1793	 0.237394136557462 
1794	 0.237518736964741 
1795	 0.237772180687222 
1796	 0.237849940573017 
1797	 0.237861968198918 
1798	 0.238323412358912 
1799	 0.238766250503819 
1800	 0.239543007601807 
1801	 0.234649248891368 
1802	 0.236970043409263 
1803	 0.237676693123344 
1804	 0.237802709935029 
1805	 0.238306166633639 
1806	 0.238015493084774 
1807	 0.238088142985811 
1808	 0.238782895105103 
1809	 0.239588555102748 
1810	 0.239540944779728 
1811	 0.238629994207024 
1812	 0.238489629408925 
1813	 0.237926283208368 
1814	 0.237662354609233 
1815	 0.237991354045606 
1816	 0.238341431324252 
1817	 0.239553995501984 
1818	 0.239751107153861 
1819	 0.239505963877863 
1820	 0.238844832729913 
1821	 0.238423593969348 
1822	 0.237173498888364 
1823	 0.235253390116102 
1824	 0.232391196213954 
1825	 0.230787405035979 
1826	 0.227334405860934 
1827	 0.225108770141493 
1828	 0.224229975218753 
1829	 0.229138903810424 
1830	 0.230007897862169 
1831	 0.230350884554538 
1832	 0.229509391645962 
1833	 0.223608480676306 
1834	 0.220610256565966 
1835	 0.218209238037514 
1836	 0.214819530921908 
1837	 0.210611519563929 
1838	 0.216654288964947 
1839	 0.229308392348669 
1840	 0.24438256859358 
1841	 0.260707507057802 
1842	 0.306738202496051 
1843	 0.305434447919311 
1844	 0.259874897568635 
1845	 0.254598030434302 
1846	 0.246493217543851 
1847	 0.239483486114498 
1848	 0.241080089960027 
1849	 0.285817042436733 
1850	 0.277094244142181 
1851	 0.230865507908335 
1852	 0.217678720462318 
1853	 0.196354088635748 
1854	 0.189507177223596 
1855	 0.198612699716065 
1856	 0.208624183026126 
1857	 0.225337744400364 
1858	 0.242425403907027 
1859	 0.245123625498693 
1860	 0.249571318436405 
1861	 0.246784059146893 
1862	 0.227006031285808 
1863	 0.219922095704721 
1864	 0.223017473672088 
1865	 0.21555001530629 
1866	 0.19949093857217 
1867	 0.188042463245289 
1868	 0.172314324820448 
1869	 0.138614031332741 
1870	 0.127111054970131 
1871	 0.120237050324352 
1872	 0.127872923412751 
1873	 0.176344828692071 
1874	 0.175761928589875 
1875	 0.163752269119742 
1876	 0.154490082990969 
1877	 0.132393544674028 
1878	 0.118158698521082 
1879	 0.114794316981629 
1880	 0.106710248882607 
1881	 0.10399543530566 
1882	 0.102598013978722 
1883	 9.87192019754237E-02 
1884	 9.29985939003016E-02 
1885	 9.39215512801536E-02 
1886	 9.95669407088737E-02 
1887	 9.73349643128161E-02 
1888	 0.09632267620476 
1889	 0.101972609534734 
1890	 0.102049702211469 
1891	 9.88596764603463E-02 
1892	 9.33081171154253E-02 
1893	 0.079470483397684 
1894	 7.67085092887314E-02 
1895	 7.49643024758268E-02 
1896	 7.31576275215323E-02 
1897	 0.083390944512551 
1898	 9.76781639323024E-02 
1899	 8.73854213418133E-02 
1900	 8.47828175405704E-02 
1901	 7.85400151870405E-02 
1902	 6.08965819522202E-02 
1903	 5.38134528679223E-02 
1904	 5.44406352821311E-02 
1905	 5.04036742878296E-02 
1906	 4.70514199968655E-02 
1907	 5.70690240793403E-02 
1908	 5.99009380303603E-02 
1909	 6.25101198367321E-02 
1910	 6.09546067889586E-02 
1911	 5.05016664053102E-02 
1912	 4.77284725037507E-02 
1913	 0.041333900580016 
1914	 0.041262284028824 
1915	 4.86995502800499E-02 
1916	 4.98140866842214E-02 
1917	 5.01393575309074E-02 
1918	 4.79701103468117E-02 
1919	 4.60697351373457E-02 
1920	 4.28269155289059E-02 
1921	 0.041263553230504 
1922	 0.04071217006992 
1923	 4.04333269637178E-02 
1924	 3.95638904326842E-02 
1925	 4.12040595251155E-02 
1926	 4.63087791314708E-02 
1927	 4.73366899778073E-02 
1928	 4.82267366084027E-02 
1929	 4.85056204382673E-02 
1930	 4.65974777977588E-02 
1931	 4.24593127535553E-02 
1932	 4.10679167474026E-02 
1933	 4.24372720779491E-02 
1934	 4.31644303755734E-02 
1935	 4.52083483304758E-02 
1936	 4.54377104134478E-02 
1937	 4.57413442087124E-02 
1938	 4.49763073231479E-02 
1939	 4.28723162210704E-02 
1940	 4.03869936798811E-02 
1941	 4.13029359358685E-02 
1942	 4.21483903379823E-02 
1943	 4.26019259309404E-02 
1944	 4.44972692307052E-02 
1945	 4.51203152217866E-02 
1946	 4.46136398064566E-02 
1947	 4.49217555562162E-02 
1948	 4.59806607984171E-02 
1949	 4.64939547708031E-02 
1950	 0.04698113843009 
1951	 4.74218226383188E-02 
1952	 0.047221348018647 
1953	 4.62553175105625E-02 
1954	 4.52969834712448E-02 
1955	 4.44134677792918E-02 
1956	 4.38457532730802E-02 
1957	 4.44213931165601E-02 
1958	 4.52329048269471E-02 
1959	 4.69530538837769E-02 
1960	 4.75729595786003E-02 
1961	 0.048220565100849 
1962	 4.83252912878754E-02 
1963	 4.83243831588365E-02 
1964	 4.85653705553489E-02 
1965	 4.84470660199899E-02 
1966	 0.048041519838787 
1967	 4.76093208517999E-02 
1968	 4.72458033784123E-02 
1969	 4.73145013190447E-02 
1970	 4.79401396894331E-02 
1971	 4.84316990432263E-02 
1972	 4.90357445078068E-02 
1973	 4.95358497383536E-02 
1974	 5.00997632777614E-02 
1975	 5.05872248961054E-02 
1976	 5.07616998796163E-02 
1977	 5.08015555809883E-02 
1978	 0.050864785237382 
1979	 5.12238761886592E-02 
1980	 5.19464642997446E-02 
1981	 5.24556148216277E-02 
1982	 5.29199611034566E-02 
1983	 0.053471244421064 
1984	 5.37561019267489E-02 
1985	 5.36341780637732E-02 
1986	 5.38063378065287E-02 
1987	 5.40797714433806E-02 
1988	 5.42399059136714E-02 
1989	 5.45198014244178E-02 
1990	 5.47208919639695E-02 
1991	 5.49229281984286E-02 
1992	 5.52042576863274E-02 
1993	 5.56889922794837E-02 
1994	 0.056305487585588 
1995	 5.67929101139995E-02 
1996	 5.73705463114792E-02 
1997	 5.75953698856087E-02 
1998	 5.75384138907825E-02 
1999	 5.81219024825506E-02 
2000	 5.85098925498198E-02 
2001	 5.90953410322707E-02 
2002	 6.01072632457383E-02 
2003	 6.02855269978482E-02 
2004	 6.07882955884455E-02 
2005	 6.19765566024277E-02 
2006	 6.31326017790789E-02 
2007	 6.45509367602756E-02 
2008	 6.55200594748589E-02 
2009	 6.64877092525972E-02 
2010	 6.70175401421026E-02 
2011	 6.66972461432719E-02 
2012	 6.73204558058717E-02 
2013	 6.76525490462013E-02 
2014	 6.78206801747908E-02 
2015	 6.88704779025402E-02 
2016	 6.94304047979857E-02 
2017	 6.96673604244064E-02 
2018	 7.03207565630457E-02 
2019	 7.07753000271027E-02 
2020	 0.07083693492481 
2021	 0.071157181770117 
2022	 7.20602320586672E-02 
2023	 7.23867206230115E-02 
2024	 0.072670522012839 
2025	 7.30104978058428E-02 
2026	 7.33608136873404E-02 
2027	 7.40597486504091E-02 
2028	 7.47217194424756E-02 
2029	 7.53735530758636E-02 
2030	 7.58153518270245E-02 
2031	 7.61299147910125E-02 
2032	 7.64237263013696E-02 
2033	 7.66431683597069E-02 
2034	 7.69024385209866E-02 
2035	 7.72607723829667E-02 
2036	 7.73590865850912E-02 
2037	 7.76332190142467E-02 
2038	 7.79702572052053E-02 
2039	 7.81396671882199E-02 
2040	 0.078625579131338 
2041	 7.93536920336671E-02 
2042	 7.99046162149927E-02 
2043	 8.02029402345416E-02 
2044	 0.080498725750508 
2045	 8.08678926987527E-02 
2046	 8.10638621063426E-02 
2047	 8.12866108140317E-02 
2048	 8.18509563161048E-02 
2049	 8.24847577202783E-02 
2050	 8.24449711639679E-02 
2051	 8.24626410501079E-02 
2052	 8.29964523529903E-02 
2053	 8.33211414345779E-02 
2054	 8.39250954380335E-02 
2055	 8.45077577266223E-02 
2056	 8.49168237442912E-02 
2057	 8.56451704223992E-02 
2058	 8.64536004286096E-02 
2059	 8.71780746222854E-02 
2060	 8.81907713754919E-02 
2061	 8.87333520619613E-02 
2062	 8.88166970425399E-02 
2063	 8.90471022962753E-02 
2064	 8.94463897563228E-02 
2065	 9.01787600470324E-02 
2066	 9.09625624772738E-02 
2067	 0.091434231212378 
2068	 9.17541726220268E-02 
2069	 9.20458510094544E-02 
2070	 9.24020266146295E-02 
2071	 9.29661736440292E-02 
2072	 9.32851500379745E-02 
2073	 9.35198082635061E-02 
2074	 9.36486103751157E-02 
2075	 9.38259085280309E-02 
2076	 9.39716273299929E-02 
2077	 9.44099627994339E-02 
2078	 0.095030670609493 
2079	 9.55670819424333E-02 
2080	 9.60383238319169E-02 
2081	 9.65243882302934E-02 
2082	 9.68500018036614E-02 
2083	 9.73367419909589E-02 
2084	 9.79568708166546E-02 
2085	 9.85871204739129E-02 
2086	 9.94186154188389E-02 
2087	 0.100036576702073 
2088	 0.10053708792182 
2089	 0.10100456129681 
2090	 0.10159804811418 
2091	 0.101865239149378 
2092	 0.102090572560245 
2093	 0.102513323476532 
2094	 0.102803053185541 
2095	 0.103323578735025 
2096	 0.104103465073494 
2097	 0.104777927908395 
2098	 0.105521956145709 
2099	 0.105987732814537 
2100	 0.106064601830921 
2101	 0.106182272707208 
2102	 0.106317433644818 
2103	 0.106174424263563 
2104	 0.106405351858049 
2105	 0.107208456633029 
2106	 0.107849459935158 
2107	 0.10850540476456 
2108	 0.108945487168627 
2109	 0.10923529321983 
2110	 0.109698995473979 
2111	 0.110362220663001 
2112	 0.111261082795487 
2113	 0.111877980718226 
2114	 0.112369388200227 
2115	 0.112870818244119 
2116	 0.113235419463189 
2117	 0.113701046907803 
2118	 0.11433699276712 
2119	 0.114793713596651 
2120	 0.115112369270043 
2121	 0.115602322555858 
2122	 0.116233122628496 
2123	 0.116688685641079 
2124	 0.117172619112121 
2125	 0.117416197127846 
2126	 0.117400328485599 
2127	 0.11768172574024 
2128	 0.118032607625438 
2129	 0.118362461037999 
2130	 0.118700026395623 
2131	 0.118806411867848 
2132	 0.118951887150832 
2133	 0.119190904678461 
2134	 0.119491774890481 
2135	 0.119868951336245 
2136	 0.120295917829223 
2137	 0.120819325512167 
2138	 0.121501544239493 
2139	 0.122114214991405 
2140	 0.122663157939029 
2141	 0.122899074985801 
2142	 0.122892587559187 
2143	 0.12306116738438 
2144	 0.123330949511233 
2145	 0.123658422497133 
2146	 0.124093713762899 
2147	 0.124488821344321 
2148	 0.124833463017429 
2149	 0.124938100028359 
2150	 0.125019409407467 
2151	 0.125264590316886 
2152	 0.125427681249665 
2153	 0.125627884345844 
2154	 0.126005921676352 
2155	 0.126484742393275 
2156	 0.126698754600578 
2157	 0.127018502583981 
2158	 0.127215463685372 
2159	 0.12727645377867 
2160	 0.127536908718839 
2161	 0.127869128495807 
2162	 0.128273259541278 
2163	 0.128740814731382 
2164	 0.128908259955986 
2165	 0.128770673376595 
2166	 0.12902485749422 
2167	 0.129592897559724 
2168	 0.130009749464902 
2169	 0.130810331821451 
2170	 0.131204763958134 
2171	 0.131366917098832 
2172	 0.13121633575426 
2173	 0.131188835994555 
2174	 0.131349867474938 
2175	 0.131566618244873 
2176	 0.1318439781455 
2177	 0.132390188904495 
2178	 0.132461075282922 
2179	 0.132598691956542 
2180	 0.133465120576856 
2181	 0.134015355523358 
2182	 0.134498568793275 
2183	 0.135006491799544 
2184	 0.134624756081148 
2185	 0.134198827535694 
2186	 0.133999460301659 
2187	 0.133995642661076 
2188	 0.134259854616804 
2189	 0.134723620301242 
2190	 0.135433603230815 
2191	 0.135971146496862 
2192	 0.136788052261561 
2193	 0.137346238677554 
2194	 0.137490371596133 
2195	 0.137914782988226 
2196	 0.138072165644009 
2197	 0.137554868747668 
2198	 0.137383985755448 
2199	 0.137499451684666 
2200	 0.137638802628646 
2201	 0.138227870271894 
2202	 0.138879585940922 
2203	 0.139152374853645 
2204	 0.139457546052055 
2205	 0.139644508048571 
2206	 0.139740670806769 
2207	 0.139945603210326 
2208	 0.13992020632126 
2209	 0.139569115371963 
2210	 0.139647032260526 
2211	 0.139847572613458 
2212	 0.139761194925263 
2213	 0.140071681716199 
2214	 0.14055407433843 
2215	 0.140793615573819 
2216	 0.140932625891638 
2217	 0.14102762330123 
2218	 0.141082164132238 
2219	 0.141020794211571 
2220	 0.141304207738647 
2221	 0.142087708129634 
2222	 0.14256234769381 
2223	 0.142464575754444 
2224	 0.142246432505218 
2225	 0.141615673755194 
2226	 0.140907381294782 
2227	 0.140423778475496 
2228	 0.139975791144367 
2229	 0.140128439801082 
2230	 0.140387094464263 
2231	 0.140377861130626 
2232	 0.140605412875927 
2233	 0.14051838241519 
2234	 0.139990277336566 
2235	 0.13950634271229 
2236	 0.139396924872928 
2237	 0.139046904385578 
2238	 0.138952082099895 
2239	 0.138710389207946 
2240	 0.138205836388069 
2241	 0.137834270128797 
2242	 0.137094420508978 
2243	 0.136603242984309 
2244	 0.135857797184065 
2245	 0.134842768988143 
2246	 0.134184208516701 
2247	 0.132967518096929 
2248	 0.13213475585433 
2249	 0.132070795865503 
2250	 0.131855497658187 
2251	 0.131735942430143 
2252	 0.131288715890449 
2253	 0.130463165046092 
2254	 0.129588560795591 
2255	 0.128676519838479 
2256	 0.127632647537636 
2257	 0.126552828247671 
2258	 0.125190940473337 
2259	 0.123956302708075 
2260	 0.123184629370389 
2261	 0.122587482874797 
2262	 0.121941979356135 
2263	 0.121502945550668 
2264	 0.120479481784312 
2265	 0.119824688228008 
2266	 0.120165089947444 
2267	 0.119680765108722 
2268	 0.119364790295515 
2269	 0.119056965800569 
2270	 0.118152146688406 
2271	 0.118121080774734 
2272	 0.117996100135546 
2273	 0.117085704918305 
2274	 0.11636956610377 
2275	 0.115720771387267 
2276	 0.115156285691265 
2277	 0.115161639395393 
2278	 0.114647758611811 
2279	 0.113399396842035 
2280	 0.112905382567564 
2281	 0.112374207588851 
2282	 0.111897278860217 
2283	 0.112318766823292 
2284	 0.1116663839341 
2285	 0.11063948984762 
2286	 0.109960658838489 
2287	 0.109516042114138 
2288	 0.108040728159265 
2289	 0.107267478505154 
2290	 0.107046974773986 
2291	 0.105893521163099 
2292	 0.105439811637023 
2293	 0.105434740631345 
2294	 0.10501290377286 
2295	 0.104568424992981 
2296	 0.104148686169666 
2297	 0.103680689184134 
2298	 0.103133411066321 
2299	 0.102745556736814 
2300	 0.10292981217341 
2301	 0.103241322990947 
2302	 0.103000424739136 
2303	 0.102900768147527 
2304	 0.102219986056913 
2305	 0.100850549190178 
2306	 0.100166476303315 
2307	 9.93441569415405E-02 
2308	 9.87137037366923E-02 
2309	 9.92445611841751E-02 
2310	 9.92127518137421E-02 
2311	 9.86599449273243E-02 
2312	 9.86719075713845E-02 
2313	 9.81397917612171E-02 
2314	 9.69841843049907E-02 
2315	 9.70583718994286E-02 
2316	 9.76109278298144E-02 
2317	 9.70889923755588E-02 
2318	 9.67217626421753E-02 
2319	 9.61326066472224E-02 
2320	 0.095555905271847 
2321	 9.56070955112848E-02 
2322	 0.09699715277501 
2323	 9.73368489202871E-02 
2324	 9.76974776554812E-02 
2325	 9.73604112621563E-02 
2326	 9.66044048768157E-02 
2327	 0.09567702627536 
2328	 9.49456168691187E-02 
2329	 9.38537223465304E-02 
2330	 9.27503870205627E-02 
2331	 9.15538847815253E-02 
2332	 9.11954815685662E-02 
2333	 9.19595973826498E-02 
2334	 9.21427192207353E-02 
2335	 0.092757044088847 
2336	 9.33843464523793E-02 
2337	 9.30493467546441E-02 
2338	 9.19307645227828E-02 
2339	 9.10261357401207E-02 
2340	 8.97826270146712E-02 
2341	 8.80345002797742E-02 
2342	 8.84927540144734E-02 
2343	 8.87370602975247E-02 
2344	 8.83104522120036E-02 
2345	 8.86397682998605E-02 
2346	 8.89291178203768E-02 
2347	 8.94241627843177E-02 
2348	 8.99540067153104E-02 
2349	 9.00534133010362E-02 
2350	 8.82271270455958E-02 
2351	 8.70672436497456E-02 
2352	 8.68183747132598E-02 
2353	 8.54650473301988E-02 
2354	 8.53408286118597E-02 
2355	 8.50800748951604E-02 
2356	 8.31875911311615E-02 
2357	 8.29867491454799E-02 
2358	 8.36085707801102E-02 
2359	 8.24872572953023E-02 
2360	 0.082962639303222 
2361	 0.083303850479482 
2362	 8.17293371212454E-02 
2363	 0.082582945341742 
2364	 8.32984550429247E-02 
2365	 8.31648303947391E-02 
2366	 8.38337408437986E-02 
2367	 0.082065994516232 
2368	 7.99062197531989E-02 
2369	 0.078955208991912 
2370	 7.72416685511605E-02 
2371	 7.64425543078622E-02 
2372	 7.60649665418932E-02 
2373	 7.50916824598521E-02 
2374	 7.57796592820764E-02 
2375	 7.93599903555159E-02 
2376	 8.02818093201211E-02 
2377	 8.12454421741305E-02 
2378	 8.13229491491419E-02 
2379	 7.85235794059185E-02 
2380	 7.71217913123273E-02 
2381	 7.66295002254192E-02 
2382	 0.075912911225184 
2383	 7.49135124288794E-02 
2384	 7.49733131586613E-02 
2385	 7.56855583877924E-02 
2386	 7.57966417346244E-02 
2387	 7.72801374003372E-02 
2388	 7.64527903495682E-02 
2389	 7.30791406360434E-02 
2390	 7.22370869840485E-02 
2391	 7.18443095645708E-02 
2392	 7.09641786757671E-02 
2393	 7.10874676070265E-02 
2394	 7.06278049927996E-02 
2395	 6.85295377408482E-02 
2396	 6.73818645962491E-02 
2397	 6.74034388551404E-02 
2398	 6.77759862184569E-02 
2399	 6.88498224031494E-02 
2400	 6.91246661628248E-02 
2401	 0.069222697312242 
2402	 6.99104052613351E-02 
2403	 0.069794323167987 
2404	 6.88362143367554E-02 
2405	 7.00560956368987E-02 
2406	 7.04007316264211E-02 
2407	 7.00050807816152E-02 
2408	 7.12539215666458E-02 
2409	 6.89367806659389E-02 
2410	 6.69733174376257E-02 
2411	 6.68283166352933E-02 
2412	 6.53873604103989E-02 
2413	 6.82771072903703E-02 
2414	 6.93481688126794E-02 
2415	 6.50091721715094E-02 
2416	 6.11192361816216E-02 
2417	 5.77966546440426E-02 
2418	 5.65868160932654E-02 
2419	 5.99749619754751E-02 
2420	 6.14492427700398E-02 
2421	 5.97053530454281E-02 
2422	 0.056897058435983 
2423	 5.25583162353581E-02 
2424	 5.34575669289021E-02 
2425	 5.60475144239246E-02 
2426	 5.80325138633961E-02 
2427	 6.37972407325993E-02 
2428	 6.63677190818176E-02 
2429	 6.54157219313164E-02 
2430	 6.62493303577665E-02 
2431	 6.20505498251745E-02 
2432	 5.46287615353681E-02 
2433	 5.20219245425025E-02 
2434	 5.07321497220884E-02 
2435	 5.29437822728287E-02 
2436	 0.055656242833874 
2437	 6.04079425635202E-02 
2438	 6.11579411891687E-02 
2439	 6.10748088190496E-02 
2440	 0.059674006895083 
2441	 0.053062057313934 
2442	 5.28832163123781E-02 
2443	 5.83582924097696E-02 
2444	 0.058637088852234 
2445	 5.83362107688708E-02 
2446	 0.057369973726224 
2447	 4.90602772451001E-02 
2448	 4.64135770112909E-02 
2449	 5.17058800617575E-02 
2450	 5.33528516581089E-02 
2451	 5.43470396302714E-02 
2452	 0.054894745704594 
2453	 5.20202645757001E-02 
2454	 5.15726202125852E-02 
2455	 5.29822531734608E-02 
2456	 5.42865740430757E-02 
2457	 0.058995931423335 
2458	 0.060391860063466 
2459	 6.09987314543861E-02 
2460	 5.93254888090754E-02 
2461	 5.14382230165113E-02 
2462	 4.76362586581068E-02 
2463	 4.47525161619913E-02 
2464	 4.14502530203979E-02 
2465	 4.03931627291808E-02 
2466	 3.89818400898914E-02 
2467	 3.53098524811079E-02 
2468	 3.57502911070818E-02 
2469	 0.03889872557428 
2470	 4.52950931029448E-02 
2471	 5.77999418413294E-02 
2472	 6.33474468744425E-02 
2473	 7.09058781639188E-02 
2474	 7.39758952087244E-02 
2475	 6.98450426427958E-02 
2476	 6.42272486063271E-02 
2477	 5.40269832358333E-02 
2478	 4.42853224894079E-02 
2479	 2.28314896504706E-02 
2480	 2.00585852637625E-02 
2481	 3.48023921223467E-02 
2482	 3.50230679294792E-02 
2483	 4.94945390142477E-02 
2484	 4.66229684498361E-02 
2485	 1.40939091586742E-02 
2486	-3.52853398315347E-03 
2487	-3.23791167603592E-02 
2488	-0.061138658184806 
2489	-0.067079360707059 
2490	-5.77565948681601E-02 
2491	-3.62965463119491E-02 
2492	-2.01115245565762E-02 
2493	-3.16131923684345E-02 
2494	-2.67318809872698E-02 
2495	-1.25928050088477E-02 
2496	 6.11005273786807E-03 
2497	 7.01932942218179E-02 
2498	 0.106231217594986 
2499	 7.44982092028888E-02 
2500	 2.47693690314333E-02 
