Wavelength	ref00093.asd
350	 0.311198593864279 
351	 0.309807191263598 
352	 0.308539886361911 
353	 0.306496607314781 
354	 0.305836552974962 
355	 0.305312478699031 
356	 0.304095518109313 
357	 0.303569511584646 
358	 0.302368876852169 
359	 0.300756793866751 
360	 0.299472216119548 
361	 0.29899046002775 
362	 0.297764777700695 
363	 0.296074360952788 
364	 0.295283896282739 
365	 0.294433989665129 
366	 0.293677331071771 
367	 0.292986252673379 
368	 0.291904856375716 
369	 0.290951968808948 
370	 0.290119963081312 
371	 0.289421845889245 
372	 0.289492992130908 
373	 0.288711886158634 
374	 0.287382633271245 
375	 0.286651564546944 
376	 0.285600245996646 
377	 0.284750345463751 
378	 0.284202422418876 
379	 0.283429027685696 
380	 0.282755111725093 
381	 0.282304064351605 
382	 0.282027367807677 
383	 0.281518825303218 
384	 0.28135413655671 
385	 0.280915605249349 
386	 0.279458360444862 
387	 0.278987757161172 
388	 0.278493034608891 
389	 0.277589904081916 
390	 0.276802135509622 
391	 0.276547969228314 
392	 0.276535755263253 
393	 0.276441477750404 
394	 0.276219980080192 
395	 0.2758575978576 
396	 0.275403332634575 
397	 0.274867602290542 
398	 0.273903445752235 
399	 0.273072080971219 
400	 0.272558499355895 
401	 0.272187587459376 
402	 0.271878322060549 
403	 0.27174485394143 
404	 0.271770583831639 
405	 0.27161715116737 
406	 0.271412355252743 
407	 0.271121016459879 
408	 0.270714374995187 
409	 0.270418136817438 
410	 0.270170299121793 
411	 0.269831248506124 
412	 0.269245597610216 
413	 0.268818579679642 
414	 0.268530859572533 
415	 0.268299729716888 
416	 0.268075918626749 
417	 0.26788550730503 
418	 0.267679075319967 
419	 0.267421385071951 
420	 0.267291522270274 
421	 0.266986398162704 
422	 0.266546226573111 
423	 0.266311977919895 
424	 0.266169116127428 
425	 0.265946027700455 
426	 0.265603511411824 
427	 0.265398618888385 
428	 0.265298443962591 
429	 0.265219657918501 
430	 0.265064135957456 
431	 0.26482564087496 
432	 0.264469770385037 
433	 0.264017940058744 
434	 0.263553428803945 
435	 0.263444885549708 
436	 0.263362355775245 
437	 0.263087661274653 
438	 0.262857928649262 
439	 0.262702546300916 
440	 0.262513628024613 
441	 0.262168607068145 
442	 0.261757714129591 
443	 0.261457745719951 
444	 0.261294526665647 
445	 0.261146892112942 
446	 0.260954712363963 
447	 0.260681127017427 
448	 0.26033153552021 
449	 0.259979290957882 
450	 0.259642914692264 
451	 0.259360212654728 
452	 0.259157008113327 
453	 0.258967586777398 
454	 0.258722343747471 
455	 0.258434020235768 
456	 0.258206765469911 
457	 0.25794545704914 
458	 0.257666003886189 
459	 0.257412033970718 
460	 0.257242844496483 
461	 0.257034469590979 
462	 0.256753799835347 
463	 0.256442270205406 
464	 0.256270283394543 
465	 0.256137881895805 
466	 0.255977478220842 
467	 0.255821106880263 
468	 0.255494839607353 
469	 0.255141462082616 
470	 0.254923291958976 
471	 0.254708092083039 
472	 0.254485160981459 
473	 0.25426105874318 
474	 0.254051352608651 
475	 0.253818203257682 
476	 0.253592861191532 
477	 0.253383290128617 
478	 0.253133184725379 
479	 0.252913265890084 
480	 0.252745052384063 
481	 0.25261147435168 
482	 0.252410963257087 
483	 0.252149272466426 
484	 0.25194753089333 
485	 0.252012205315661 
486	 0.252001052373875 
487	 0.251810672889949 
488	 0.251449048270758 
489	 0.251025824760589 
490	 0.25080579649314 
491	 0.250713862263507 
492	 0.250539282054613 
493	 0.250358376376473 
494	 0.250097135648458 
495	 0.249817242141349 
496	 0.249749145654354 
497	 0.249465858780446 
498	 0.249183792595197 
499	 0.249117087682883 
500	 0.248921001884738 
501	 0.248775652700973 
502	 0.248633208317206 
503	 0.248333899354478 
504	 0.248076952256811 
505	 0.24784039955442 
506	 0.247635091318571 
507	 0.247578483824064 
508	 0.247431079727574 
509	 0.2471936702805 
510	 0.246943582283952 
511	 0.246702223387951 
512	 0.246577461092995 
513	 0.246491941101574 
514	 0.246228977479866 
515	 0.246052367624998 
516	 0.245955073902188 
517	 0.245883296773218 
518	 0.245819541431562 
519	 0.24551435436662 
520	 0.24516453305354 
521	 0.245063530895796 
522	 0.244924437412922 
523	 0.244683461238438 
524	 0.244376350035981 
525	 0.244136229191735 
526	 0.244213420204086 
527	 0.244249935774827 
528	 0.243952282368773 
529	 0.243648960304207 
530	 0.243471967421358 
531	 0.243395734989949 
532	 0.243296181486405 
533	 0.243110931263179 
534	 0.242951569791359 
535	 0.242851537057433 
536	 0.242681418089424 
537	 0.242473784097676 
538	 0.242260424125144 
539	 0.242086747133332 
540	 0.242041495850249 
541	 0.24201782469018 
542	 0.241908411041727 
543	 0.241631815462958 
544	 0.2413264946765 
545	 0.241085283565591 
546	 0.24092757329593 
547	 0.240743357644545 
548	 0.240523494361295 
549	 0.24034197828631 
550	 0.240267449325016 
551	 0.240091320862553 
552	 0.239823718149731 
553	 0.239536112690601 
554	 0.23934785216537 
555	 0.239184100943928 
556	 0.238993072350475 
557	 0.238764392155204 
558	 0.238613435583316 
559	 0.23845682864234 
560	 0.238227164327798 
561	 0.237899595240849 
562	 0.237730895532752 
563	 0.237605680088249 
564	 0.237451346428497 
565	 0.23737313807227 
566	 0.237148636778291 
567	 0.236850718882788 
568	 0.236631981155545 
569	 0.236495500283684 
570	 0.236335452195627 
571	 0.236173964976545 
572	 0.236139364769479 
573	 0.235930706321414 
574	 0.235707263623514 
575	 0.23557085968773 
576	 0.235266532612228 
577	 0.234849437207524 
578	 0.234344299576611 
579	 0.233783750206096 
580	 0.233277178142888 
581	 0.232847283541555 
582	 0.232493501894944 
583	 0.23219710814412 
584	 0.232123158388021 
585	 0.232171934342787 
586	 0.232189613179252 
587	 0.232105445539611 
588	 0.232109127670784 
589	 0.232178775772153 
590	 0.232118203815254 
591	 0.231764410521088 
592	 0.231254110880974 
593	 0.23074406721412 
594	 0.230356468902737 
595	 0.230063401639573 
596	 0.229775804911519 
597	 0.229425353916134 
598	 0.229193700766657 
599	 0.228964443974945 
600	 0.228721431148598 
601	 0.228556184774797 
602	 0.228344727689711 
603	 0.228073774518707 
604	 0.227780427394978 
605	 0.227569586106487 
606	 0.227307792868684 
607	 0.227028985192751 
608	 0.22683666979841 
609	 0.226668270401478 
610	 0.226497577696151 
611	 0.226288885632982 
612	 0.225986854973577 
613	 0.225822831736638 
614	 0.225654949108274 
615	 0.225333275334757 
616	 0.22507602964734 
617	 0.224843040462272 
618	 0.224619657987418 
619	 0.224397722844823 
620	 0.22406106689015 
621	 0.223804983178534 
622	 0.223677522137285 
623	 0.223355631242113 
624	 0.223104315578414 
625	 0.222915281699074 
626	 0.222695607219093 
627	 0.222447540004793 
628	 0.222185139887631 
629	 0.221939338795885 
630	 0.221753113228797 
631	 0.221541271320031 
632	 0.221312100409268 
633	 0.221097376747021 
634	 0.220948600024637 
635	 0.22070649963809 
636	 0.2204491084113 
637	 0.220322711088098 
638	 0.220123543446992 
639	 0.219810883955513 
640	 0.219446992272626 
641	 0.219212866187777 
642	 0.218987631393269 
643	 0.2187230150811 
644	 0.218423197979455 
645	 0.218213999340622 
646	 0.217982203319315 
647	 0.2177342507646 
648	 0.217543067504419 
649	 0.21736607346902 
650	 0.217120252900221 
651	 0.216809873836834 
652	 0.216570799804105 
653	 0.216282728918048 
654	 0.215968053310689 
655	 0.215692826784107 
656	 0.215575239262659 
657	 0.215370477511647 
658	 0.215071707923963 
659	 0.214822656168191 
660	 0.214554622066063 
661	 0.214283052590727 
662	 0.214041436373101 
663	 0.213863647289472 
664	 0.21367737174906 
665	 0.213461173931386 
666	 0.213218607402701 
667	 0.21298155629967 
668	 0.212725849169576 
669	 0.212444315065614 
670	 0.212148509032317 
671	 0.211924403263811 
672	 0.211749564652602 
673	 0.21156213725976 
674	 0.211245944012302 
675	 0.210950776325061 
676	 0.210704784089671 
677	 0.210478710281459 
678	 0.21020437322887 
679	 0.209986509775852 
680	 0.209806332295756 
681	 0.209513509597911 
682	 0.209182649136335 
683	 0.208937164120869 
684	 0.208816768613751 
685	 0.208645775441121 
686	 0.208296462622976 
687	 0.207859411025003 
688	 0.207573554180632 
689	 0.207375586070645 
690	 0.207209551268523 
691	 0.207015543398247 
692	 0.206757564823444 
693	 0.206563064804733 
694	 0.206423239188699 
695	 0.206285194393143 
696	 0.206053216759783 
697	 0.205846850496564 
698	 0.205614682546152 
699	 0.20526274293743 
700	 0.204957867913852 
701	 0.204759897150836 
702	 0.204622535431397 
703	 0.204392247346223 
704	 0.20408527688977 
705	 0.203753483814201 
706	 0.203464150243451 
707	 0.203325746744298 
708	 0.203103139642922 
709	 0.20280912992033 
710	 0.202567649920787 
711	 0.202350530582367 
712	 0.202100171233499 
713	 0.201793808641919 
714	 0.2014550868671 
715	 0.201150570943676 
716	 0.200909344065017 
717	 0.200726652128995 
718	 0.200560494850161 
719	 0.200330986479305 
720	 0.200104103491597 
721	 0.199976827446991 
722	 0.199800764796529 
723	 0.199581402349902 
724	 0.199335384323452 
725	 0.199111168672821 
726	 0.19893686540042 
727	 0.198728260372586 
728	 0.198464577245448 
729	 0.198363808313612 
730	 0.198189386438612 
731	 0.197929254364428 
732	 0.197659547995781 
733	 0.197392855161475 
734	 0.197205693783377 
735	 0.197039961374379 
736	 0.196739578971389 
737	 0.196544649424161 
738	 0.196353132968377 
739	 0.196095198372956 
740	 0.195902980478353 
741	 0.195716919320114 
742	 0.195531569431716 
743	 0.195356853308478 
744	 0.195190689033517 
745	 0.195018579033246 
746	 0.194801209157036 
747	 0.194502725186743 
748	 0.19430524528013 
749	 0.194174114744954 
750	 0.194037511400618 
751	 0.193820134136449 
752	 0.193555170767185 
753	 0.193291524519695 
754	 0.193076961426508 
755	 0.192942062273989 
756	 0.192809941059948 
757	 0.19257623396658 
758	 0.192160073510463 
759	 0.191865418243874 
760	 0.191569674105102 
761	 0.191167430687222 
762	 0.19081443637129 
763	 0.190842541949782 
764	 0.190935824914125 
765	 0.190855357050963 
766	 0.190608516117664 
767	 0.190607318411705 
768	 0.190677027593496 
769	 0.190537527379356 
770	 0.190199008612667 
771	 0.190058612782712 
772	 0.19006680384852 
773	 0.189822626083877 
774	 0.189707322517535 
775	 0.189557696961792 
776	 0.189293709927754 
777	 0.189110062792965 
778	 0.188890865143761 
779	 0.188693234863157 
780	 0.188590023798284 
781	 0.1885636620788 
782	 0.188356376838427 
783	 0.18808293470455 
784	 0.18800241057171 
785	 0.187822771038808 
786	 0.18765383651719 
787	 0.187537408075196 
788	 0.187410837803699 
789	 0.187312681124133 
790	 0.187226391114323 
791	 0.187128844985232 
792	 0.187005575906663 
793	 0.186859309201814 
794	 0.186687949158984 
795	 0.186500547285898 
796	 0.186360858359692 
797	 0.186087019851497 
798	 0.185805204541888 
799	 0.185762735777716 
800	 0.185628398725087 
801	 0.185473781925834 
802	 0.185285802775244 
803	 0.184933954939879 
804	 0.184829016032895 
805	 0.184755669155399 
806	 0.18453926489171 
807	 0.18434725849405 
808	 0.184171606309102 
809	 0.183995850655965 
810	 0.183811075592222 
811	 0.183665431239884 
812	 0.183501562203847 
813	 0.183317743655621 
814	 0.183140320072451 
815	 0.182896395233967 
816	 0.182858328018116 
817	 0.182977401292506 
818	 0.182849410700056 
819	 0.182580280712457 
820	 0.182313526365912 
821	 0.182166258713145 
822	 0.182201317889868 
823	 0.182113862421918 
824	 0.181838854885447 
825	 0.181497990109658 
826	 0.181464006711843 
827	 0.181503841912625 
828	 0.181403103093308 
829	 0.181080392619644 
830	 0.181111653759384 
831	 0.181002235738361 
832	 0.1807446769881 
833	 0.180693762198542 
834	 0.180636077105797 
835	 0.180505332588104 
836	 0.1803341897569 
837	 0.180244830507164 
838	 0.180208883419854 
839	 0.180098809095063 
840	 0.179898487740961 
841	 0.179846857014793 
842	 0.17973495407834 
843	 0.179613771354823 
844	 0.179554122006467 
845	 0.179435714813231 
846	 0.179310881029369 
847	 0.179157246853768 
848	 0.178970057446305 
849	 0.179009228616443 
850	 0.179017764454008 
851	 0.17894183316156 
852	 0.178899841611396 
853	 0.178899473760214 
854	 0.178816102511128 
855	 0.178597978904377 
856	 0.17831191131784 
857	 0.178157341423456 
858	 0.178022886834828 
859	 0.177854515091119 
860	 0.177779445254723 
861	 0.177554138036789 
862	 0.177352176850398 
863	 0.177302199437527 
864	 0.177129420906641 
865	 0.1771710185463 
866	 0.177266351383581 
867	 0.177128212389629 
868	 0.176686161336486 
869	 0.176554925227018 
870	 0.176644269026092 
871	 0.176561162326698 
872	 0.176321692339694 
873	 0.17628858171029 
874	 0.176312739844125 
875	 0.175985514357527 
876	 0.175965949334836 
877	 0.17595080551417 
878	 0.175800654883257 
879	 0.175645055999709 
880	 0.175600520885048 
881	 0.175645927712385 
882	 0.175630225354067 
883	 0.175305895331177 
884	 0.17529989955389 
885	 0.175342805177365 
886	 0.175222066739455 
887	 0.175175763555474 
888	 0.174994345984871 
889	 0.174834933216952 
890	 0.17480727940534 
891	 0.174664568933527 
892	 0.174566489535479 
893	 0.17456205330903 
894	 0.174605236885647 
895	 0.174475520126541 
896	 0.174099460076643 
897	 0.173949988818688 
898	 0.174452687900153 
899	 0.174739663289855 
900	 0.174681549005889 
901	 0.174289142281659 
902	 0.173732231343011 
903	 0.173379582777986 
904	 0.173281275627177 
905	 0.173471009707549 
906	 0.173835039197825 
907	 0.173364078468719 
908	 0.173207407622874 
909	 0.173299218802444 
910	 0.172647629891608 
911	 0.172771942519077 
912	 0.172912461093363 
913	 0.172811475151828 
914	 0.172922408643246 
915	 0.173285877757617 
916	 0.172964541693955 
917	 0.172087138051434 
918	 0.171984576996376 
919	 0.172135980516362 
920	 0.172184916272801 
921	 0.172106696586921 
922	 0.172244639686121 
923	 0.172171449508857 
924	 0.172044812789524 
925	 0.171862866927145 
926	 0.171258635350095 
927	 0.171187885575953 
928	 0.171172444865568 
929	 0.171032803487783 
930	 0.171777349191816 
931	 0.172210416616263 
932	 0.172531186143283 
933	 0.172944264495045 
934	 0.172801428433017 
935	 0.17326057895758 
936	 0.173416046120372 
937	 0.172450765842228 
938	 0.170838914900795 
939	 0.171459426043559 
940	 0.171701502471369 
941	 0.170347688363424 
942	 0.171065302756219 
943	 0.172043507908696 
944	 0.172015246759381 
945	 0.170823403075868 
946	 0.17039096293558 
947	 0.170689553099583 
948	 0.170728328151808 
949	 0.170223446754058 
950	 0.170884196277739 
951	 0.170996499761449 
952	 0.170699231853779 
953	 0.170416705836773 
954	 0.170125287218599 
955	 0.169930380717086 
956	 0.169961172641188 
957	 0.170312194070154 
958	 0.171030435044084 
959	 0.16947160893507 
960	 0.168954202543402 
961	 0.170796932758641 
962	 0.170327823803445 
963	 0.169207163414817 
964	 0.168832669473594 
965	 0.169142962973426 
966	 0.167896666357478 
967	 0.167858790073893 
968	 0.16822684549751 
969	 0.168136311423608 
970	 0.167872021668806 
971	 0.167966843868299 
972	 0.167891181463119 
973	 0.167563059648345 
974	 0.167798877844753 
975	 0.168358647281201 
976	 0.168439989173732 
977	 0.167819880406941 
978	 0.167185070051653 
979	 0.167072957745067 
980	 0.166830052768762 
981	 0.166337837246307 
982	 0.16627261055485 
983	 0.167086772128202 
984	 0.166764334889519 
985	 0.165834023421062 
986	 0.166779984098435 
987	 0.166081851204698 
988	 0.166285552561848 
989	 0.166990416801922 
990	 0.16599663220968 
991	 0.168072815973217 
992	 0.167386337588864 
993	 0.165681403735791 
994	 0.167960030449485 
995	 0.167576688462533 
996	 0.166052942204526 
997	 0.16489619574919 
998	 0.165123725324286 
999	 0.166880771950247 
1000	 0.166813714736948 
1001	 0.154920662599077 
1002	 0.154965103629509 
1003	 0.154906787667909 
1004	 0.154963761681175 
1005	 0.154925246572591 
1006	 0.154761060488365 
1007	 0.154671059222399 
1008	 0.154665727989138 
1009	 0.154618419460365 
1010	 0.15456802243551 
1011	 0.15446287065554 
1012	 0.15431757569571 
1013	 0.15408832337396 
1014	 0.153951053267319 
1015	 0.153823706832273 
1016	 0.153728754248167 
1017	 0.153725533605658 
1018	 0.153668148170934 
1019	 0.15360971812687 
1020	 0.153490930362727 
1021	 0.153296992236586 
1022	 0.153183671829726 
1023	 0.153082732705904 
1024	 0.152934980377481 
1025	 0.152896719996298 
1026	 0.152963197048117 
1027	 0.152836536672159 
1028	 0.152676195877897 
1029	 0.152565066688849 
1030	 0.152293106478126 
1031	 0.152019018581271 
1032	 0.151957796804537 
1033	 0.151862216506378 
1034	 0.151710894153141 
1035	 0.151657265573039 
1036	 0.151783726740099 
1037	 0.151747993343981 
1038	 0.151679369776461 
1039	 0.151567202051937 
1040	 0.151409721845045 
1041	 0.151131411592803 
1042	 0.150944675392052 
1043	 0.150884994036998 
1044	 0.150743381734663 
1045	 0.150676756006229 
1046	 0.150702612565756 
1047	 0.150626622569639 
1048	 0.150506956863635 
1049	 0.150392223951523 
1050	 0.150269383946049 
1051	 0.150018242774304 
1052	 0.149891635560938 
1053	 0.149895021809294 
1054	 0.14973686926969 
1055	 0.149567392445417 
1056	 0.149426567743227 
1057	 0.149261134130152 
1058	 0.149248201869905 
1059	 0.149160136215573 
1060	 0.148980516700694 
1061	 0.148901325276687 
1062	 0.148816700024897 
1063	 0.148716158853121 
1064	 0.148608364321127 
1065	 0.148501390996899 
1066	 0.148338141553456 
1067	 0.148179568848371 
1068	 0.148097527108555 
1069	 0.148032771461975 
1070	 0.147932115676841 
1071	 0.14781398338283 
1072	 0.147697027618951 
1073	 0.147578702468757 
1074	 0.147499636646262 
1075	 0.147473064926638 
1076	 0.1474421320397 
1077	 0.147455418191881 
1078	 0.147521547859527 
1079	 0.147475046310711 
1080	 0.147331900936907 
1081	 0.147254105312129 
1082	 0.147176396999177 
1083	 0.147083939905328 
1084	 0.147025628680738 
1085	 0.147037186215404 
1086	 0.147085735246046 
1087	 0.147078092082902 
1088	 0.14700654450068 
1089	 0.146978822275616 
1090	 0.146810885042803 
1091	 0.146576859995351 
1092	 0.146516509379411 
1093	 0.146441018698574 
1094	 0.146292972842516 
1095	 0.146266720401847 
1096	 0.146239143798188 
1097	 0.146144899225558 
1098	 0.146115259334105 
1099	 0.146189593902803 
1100	 0.146235688408504 
1101	 0.146217938232024 
1102	 0.146149992766534 
1103	 0.146012190961418 
1104	 0.145910060533983 
1105	 0.145705191473931 
1106	 0.145527876206447 
1107	 0.145412833228103 
1108	 0.145271486746991 
1109	 0.145269932947838 
1110	 0.14526990446606 
1111	 0.145272652993627 
1112	 0.145377795547636 
1113	 0.145401443104262 
1114	 0.14536588907057 
1115	 0.145305579944385 
1116	 0.145210908323877 
1117	 0.145081016459465 
1118	 0.144916715908636 
1119	 0.144854688156455 
1120	 0.14485058474452 
1121	 0.14484642442762 
1122	 0.144854941930673 
1123	 0.14476089892636 
1124	 0.144760166909444 
1125	 0.144641384855055 
1126	 0.144554133123455 
1127	 0.144460488707592 
1128	 0.14449765203394 
1129	 0.144628442132534 
1130	 0.144621695086281 
1131	 0.14463234897603 
1132	 0.144536579763427 
1133	 0.144278169486269 
1134	 0.144142588270582 
1135	 0.144129955016872 
1136	 0.14395698149012 
1137	 0.143884125850625 
1138	 0.143911755799898 
1139	 0.143768707147118 
1140	 0.143743817919347 
1141	 0.143772470353506 
1142	 0.143606207693581 
1143	 0.143547482308396 
1144	 0.143522520750415 
1145	 0.143553234323358 
1146	 0.143667468418479 
