Wavelength	ref00053.asd
350	 6.21962431844933E-02 
351	 6.24822519543076E-02 
352	 6.27590284788959E-02 
353	 6.10574590482858E-02 
354	 5.99234031336083E-02 
355	 5.95797586108564E-02 
356	 0.059608162809595 
357	 5.93182413621487E-02 
358	 0.05841388998988 
359	 5.77664414898183E-02 
360	 5.81108130377139E-02 
361	 5.81009836271977E-02 
362	 5.74879720237826E-02 
363	 0.056680107248138 
364	 5.63986796538013E-02 
365	 5.62982158648653E-02 
366	 0.055943877204853 
367	 5.53782920452588E-02 
368	 5.53074918429342E-02 
369	 5.47351349728554E-02 
370	 5.40953323628621E-02 
371	 5.38386060820633E-02 
372	 0.053359448655188 
373	 5.31541505735582E-02 
374	 5.30530495232004E-02 
375	 5.26252055836595E-02 
376	 5.22035519455536E-02 
377	 5.22297118501116E-02 
378	 5.24967227410733E-02 
379	 5.20638797216158E-02 
380	 5.15195234765907E-02 
381	 5.13426978947961E-02 
382	 5.15957157533981E-02 
383	 0.051344804459623 
384	 5.08923487942881E-02 
385	 5.05995975597901E-02 
386	 5.07223808350351E-02 
387	 5.05457262653955E-02 
388	 5.06527712319778E-02 
389	 0.050872880524209 
390	 5.02511590239265E-02 
391	 4.99561585963849E-02 
392	 4.99619887936553E-02 
393	 5.00035659699889E-02 
394	 4.98253536293033E-02 
395	 4.95837980353644E-02 
396	 4.93529845630622E-02 
397	 4.91871674808394E-02 
398	 4.92227478536071E-02 
399	 4.89484200791713E-02 
400	 4.84847029459609E-02 
401	 4.84434970664104E-02 
402	 4.85444007066988E-02 
403	 4.82740882483569E-02 
404	 4.77109530332906E-02 
405	 4.82325693986784E-02 
406	 4.84442910075737E-02 
407	 4.82422070642906E-02 
408	 4.80096596557779E-02 
409	 4.81416420472436E-02 
410	 4.83208761943066E-02 
411	 4.83898329199982E-02 
412	 4.83709080694452E-02 
413	 4.82109758168077E-02 
414	 4.81248286495888E-02 
415	 0.048205181392581 
416	 4.82113473732225E-02 
417	 4.83132564984507E-02 
418	 4.84482546340023E-02 
419	 4.85144047332503E-02 
420	 4.86242740397919E-02 
421	 4.87242054854291E-02 
422	 4.88136295805273E-02 
423	 4.89345799418432E-02 
424	 0.048893464547505 
425	 4.90115336012804E-02 
426	 4.93911575368256E-02 
427	 4.94687684818094E-02 
428	 4.97444362991961E-02 
429	 4.99809385692418E-02 
430	 4.98681015864007E-02 
431	 5.00837257531295E-02 
432	 0.050374324488915 
433	 5.05251211443495E-02 
434	 5.04416312484846E-02 
435	 5.06516347661778E-02 
436	 5.08427213777227E-02 
437	 0.050817473670516 
438	 5.08954029108122E-02 
439	 5.09823218367093E-02 
440	 5.10889782485942E-02 
441	 5.12380574472069E-02 
442	 5.13453562067263E-02 
443	 5.15043793077669E-02 
444	 5.16819826704302E-02 
445	 5.17314412062406E-02 
446	 5.19165264530122E-02 
447	 5.20046384188603E-02 
448	 5.18922286859171E-02 
449	 5.20120716446442E-02 
450	 5.20502377132191E-02 
451	 5.20628009384185E-02 
452	 5.22157533466991E-02 
453	 5.23102022076163E-02 
454	 5.24096761293772E-02 
455	 5.25032631369351E-02 
456	 5.24744862467002E-02 
457	 5.25389812379787E-02 
458	 5.26521303318223E-02 
459	 5.27274385821135E-02 
460	 5.27349102086885E-02 
461	 5.28306974820734E-02 
462	 5.29092620062303E-02 
463	 5.27809153407945E-02 
464	 5.28597998282799E-02 
465	 5.30222469608986E-02 
466	 5.31543907917456E-02 
467	 5.32485568862185E-02 
468	 5.32984134189374E-02 
469	 5.33387615069292E-02 
470	 5.33981938855123E-02 
471	 5.34286498656047E-02 
472	 5.34804919787066E-02 
473	 5.35613426425317E-02 
474	 5.36442200311692E-02 
475	 5.37098411795058E-02 
476	 0.053685725424731 
477	 5.36109656878903E-02 
478	 5.37477993093196E-02 
479	 5.38683703172975E-02 
480	 5.39282574973971E-02 
481	 5.39543359677376E-02 
482	 5.39967305084689E-02 
483	 5.40362546647055E-02 
484	 5.41451862497638E-02 
485	 5.44623932050683E-02 
486	 5.45346144432322E-02 
487	 5.45524772962352E-02 
488	 5.47155458691363E-02 
489	 5.48813209976451E-02 
490	 5.51810078405188E-02 
491	 5.54477124769458E-02 
492	 5.54881602060138E-02 
493	 5.57771875531828E-02 
494	 5.61827104068443E-02 
495	 5.66032582095871E-02 
496	 5.70370656037389E-02 
497	 5.75417691683887E-02 
498	 5.80882105181359E-02 
499	 5.86641779645477E-02 
500	 5.93770938907097E-02 
501	 6.02661326919771E-02 
502	 0.061254638434577 
503	 0.062214441189966 
504	 0.063282372627287 
505	 6.44540162234046E-02 
506	 6.57479691346819E-02 
507	 6.72471214010941E-02 
508	 6.89038963051541E-02 
509	 7.07402964780782E-02 
510	 7.28124068275284E-02 
511	 7.52465038923262E-02 
512	 7.78373738564731E-02 
513	 8.05821867630569E-02 
514	 8.36630521923099E-02 
515	 0.087014878306738 
516	 0.090775553556801 
517	 9.49554345149936E-02 
518	 0.099245160156864 
519	 0.103745321825001 
520	 0.108355010215462 
521	 0.112953823651625 
522	 0.117696511004638 
523	 0.122496020084759 
524	 0.127347502367234 
525	 0.132302848436499 
526	 0.137510632823583 
527	 0.142698273977408 
528	 0.147591663609441 
529	 0.152187009121627 
530	 0.15656024779094 
531	 0.160806762301955 
532	 0.165017040702173 
533	 0.168986915393497 
534	 0.172739782864406 
535	 0.176269470158473 
536	 0.179502535409935 
537	 0.182532808274359 
538	 0.185457681820013 
539	 0.188320515741746 
540	 0.190951665206003 
541	 0.193528128769687 
542	 0.19599851913134 
543	 0.198127477910541 
544	 0.200237228216055 
545	 0.202341126317423 
546	 0.204395373717066 
547	 0.206347664059664 
548	 0.208183987579256 
549	 0.20990404086211 
550	 0.211501126888533 
551	 0.212902125539651 
552	 0.213973514896792 
553	 0.214705284958336 
554	 0.215230990553365 
555	 0.215436583226104 
556	 0.215390977176556 
557	 0.215136055442027 
558	 0.214468874120363 
559	 0.21364629013087 
560	 0.212643824907686 
561	 0.211272826687479 
562	 0.209735086665769 
563	 0.208068230513705 
564	 0.206252806659494 
565	 0.20422956951957 
566	 0.202027538390415 
567	 0.199676962087332 
568	 0.197217258223401 
569	 0.194711865577737 
570	 0.192084939563711 
571	 0.18939590683468 
572	 0.186818371198185 
573	 0.184269257947647 
574	 0.181776019871761 
575	 0.179356151337079 
576	 0.177022111391929 
577	 0.174727406370331 
578	 0.172537127126443 
579	 0.17054566966591 
580	 0.168696855342557 
581	 0.16700374457865 
582	 0.165442073245163 
583	 0.163931691187012 
584	 0.162572447154503 
585	 0.161297880476952 
586	 0.160051049777198 
587	 0.158957390287058 
588	 0.157928411624112 
589	 0.156913069504592 
590	 0.155918425621726 
591	 0.154980098284408 
592	 0.154244124577382 
593	 0.153703680706 
594	 0.153119794805989 
595	 0.152582815764321 
596	 0.152089205059624 
597	 0.151609379562596 
598	 0.151148695659686 
599	 0.150657999329672 
600	 0.150117108663045 
601	 0.149535362148263 
602	 0.148827212317528 
603	 0.148002976605356 
604	 0.147089924243203 
605	 0.146097252248566 
606	 0.144941328273658 
607	 0.143617282951386 
608	 0.14217594640879 
609	 0.140679157141508 
610	 0.139131653112078 
611	 0.137571299191853 
612	 0.136078585707026 
613	 0.134490883961914 
614	 0.132876574818684 
615	 0.131340532279171 
616	 0.12984685612542 
617	 0.128382190199351 
618	 0.1270318305546 
619	 0.125903714997835 
620	 0.124848886045511 
621	 0.123956199058941 
622	 0.123256548853406 
623	 0.122605665838704 
624	 0.122068525941683 
625	 0.121686312338858 
626	 0.12147267683952 
627	 0.121363595641523 
628	 0.121212282978633 
629	 0.121061061239103 
630	 0.121120896949022 
631	 0.121089423879474 
632	 0.120943614999768 
633	 0.12069912336121 
634	 0.120316808742587 
635	 0.119813087728948 
636	 0.119084636857247 
637	 0.118027016036664 
638	 0.116870410290818 
639	 0.115606436263121 
640	 0.114210312491165 
641	 0.112702077858343 
642	 0.111052805508678 
643	 0.109309877277844 
644	 0.107531178208805 
645	 0.105796938594146 
646	 0.10408394585138 
647	 0.102465849790604 
648	 0.10106212780367 
649	 0.099841172625885 
650	 9.88140062939999E-02 
651	 9.79718018908017E-02 
652	 9.72223350646715E-02 
653	 9.65414382233006E-02 
654	 9.58825069893753E-02 
655	 9.51899264632101E-02 
656	 9.45144574346153E-02 
657	 0.09347122456233 
658	 9.21828854579192E-02 
659	 0.090951756885934 
660	 8.95648440180135E-02 
661	 8.81084871541516E-02 
662	 8.67376064876031E-02 
663	 8.55804600013792E-02 
664	 8.43929157756756E-02 
665	 8.32101849325482E-02 
666	 8.21670895119893E-02 
667	 8.14041302799386E-02 
668	 8.07164438164132E-02 
669	 8.00877021758953E-02 
670	 0.079672574289563 
671	 7.94258274248442E-02 
672	 7.92837562596194E-02 
673	 7.92317542798891E-02 
674	 7.93877649726687E-02 
675	 7.95620748628536E-02 
676	 7.98388291612519E-02 
677	 8.03555791264212E-02 
678	 8.08952045154885E-02 
679	 8.14662943505581E-02 
680	 8.21651020206123E-02 
681	 8.31546935325955E-02 
682	 8.44145998005812E-02 
683	 8.60048481548095E-02 
684	 8.80189187238511E-02 
685	 9.05738942084845E-02 
686	 9.38716158707147E-02 
687	 9.82835246110399E-02 
688	 0.103741198699105 
689	 0.109573728779473 
690	 0.116455058718824 
691	 0.124911901059856 
692	 0.134683425853248 
693	 0.145942945698521 
694	 0.158825391660871 
695	 0.173134826301982 
696	 0.188232342096577 
697	 0.203941812113982 
698	 0.220253029985715 
699	 0.237096700303199 
700	 0.254077149580418 
701	 0.271127606977041 
702	 0.288097355138066 
703	 0.304649832605711 
704	 0.320700130246198 
705	 0.335985072055645 
706	 0.350605803995382 
707	 0.365232179276089 
708	 0.37920499213815 
709	 0.392649479598462 
710	 0.405876084735211 
711	 0.418427937106233 
712	 0.430568182304797 
713	 0.442409393064718 
714	 0.453835834939592 
715	 0.464550158075238 
716	 0.474399863755865 
717	 0.483743176727885 
718	 0.493290498647851 
719	 0.503172333915012 
720	 0.513222392800515 
721	 0.523050083532483 
722	 0.531493585787381 
723	 0.538945716855695 
724	 0.54616163663012 
725	 0.553293312745473 
726	 0.560270370485249 
727	 0.566864537777782 
728	 0.573082486905962 
729	 0.578953024482682 
730	 0.584586354751457 
731	 0.589970216139006 
732	 0.595068111172281 
733	 0.599824327745094 
734	 0.604081506026419 
735	 0.607940119943477 
736	 0.611610867495687 
737	 0.615129358643068 
738	 0.618386800831681 
739	 0.62136518718942 
740	 0.624139416348998 
741	 0.626743287903052 
742	 0.62910220662522 
743	 0.631132905940107 
744	 0.632979613087028 
745	 0.634670864983572 
746	 0.636231604387938 
747	 0.63767058908551 
748	 0.638850031572423 
749	 0.64007266673956 
750	 0.641391792832479 
751	 0.642351865780773 
752	 0.643126338878132 
753	 0.643861603224592 
754	 0.644650148910838 
755	 0.645429202727391 
756	 0.646002830693592 
757	 0.646292599810523 
758	 0.646407661828662 
759	 0.647254587580015 
760	 0.649351298753664 
761	 0.652275523431088 
762	 0.652691188434736 
763	 0.652285238832508 
764	 0.651913752199039 
765	 0.651707276043842 
766	 0.651130557516786 
767	 0.650763793456626 
768	 0.650652575025285 
769	 0.650686738369686 
770	 0.650711908437402 
771	 0.650923672714359 
772	 0.651244767165598 
773	 0.651370031731627 
774	 0.651304492326892 
775	 0.651385011116925 
776	 0.651706942418393 
777	 0.651875387356505 
778	 0.652057188530425 
779	 0.652245060314018 
780	 0.652401171330965 
781	 0.652517651086926 
782	 0.652821921951563 
783	 0.65316104954232 
784	 0.653240649536659 
785	 0.653342533317107 
786	 0.653497710362682 
787	 0.653621644073761 
788	 0.653551007888269 
789	 0.653594529312056 
790	 0.653786089897572 
791	 0.654062113732238 
792	 0.654266817607656 
793	 0.654784597938316 
794	 0.655222112347178 
795	 0.655184853310003 
796	 0.65529538611543 
797	 0.655560894698687 
798	 0.655865487714889 
799	 0.656044492153208 
800	 0.656168360585317 
801	 0.656290929219421 
802	 0.656475665506105 
803	 0.656790400827164 
804	 0.657244160290037 
805	 0.657574543094533 
806	 0.657696077503019 
807	 0.657997309833645 
808	 0.658122302236823 
809	 0.658150827923864 
810	 0.65817371935319 
811	 0.657773740314663 
812	 0.657263389176347 
813	 0.656719075553904 
814	 0.656107520104265 
815	 0.655665194349694 
816	 0.655634662466248 
817	 0.656006520623042 
818	 0.656506483688564 
819	 0.657308839180376 
820	 0.657980953357872 
821	 0.658259790218062 
822	 0.65829128917253 
823	 0.658470895812589 
824	 0.658848309988598 
825	 0.659342873747362 
826	 0.659965079066066 
827	 0.66019032957023 
828	 0.660164445669407 
829	 0.660306897469992 
830	 0.660748275170821 
831	 0.661231862082554 
832	 0.661625924380214 
833	 0.661942761153249 
834	 0.662331513390199 
835	 0.662880353028802 
836	 0.663514310989894 
837	 0.663997870639447 
838	 0.664360823982135 
839	 0.664651220228986 
840	 0.664925357880773 
841	 0.66523902401611 
842	 0.665515620487901 
843	 0.665780423899391 
844	 0.666071054999883 
845	 0.666373010619357 
846	 0.666594254760958 
847	 0.666844963164369 
848	 0.667228612235243 
849	 0.667305709345392 
850	 0.667362167124863 
851	 0.667638330847381 
852	 0.668184225993979 
853	 0.668119185311142 
854	 0.66815011976503 
855	 0.668589902513858 
856	 0.669070107290455 
857	 0.669266778983805 
858	 0.669438544720653 
859	 0.669746989930335 
860	 0.670029943759497 
861	 0.670157936935384 
862	 0.670292851142922 
863	 0.670546710794086 
864	 0.670686205275161 
865	 0.670984546745055 
866	 0.671346693183916 
867	 0.671590249187662 
868	 0.671752116232333 
869	 0.671889078687293 
870	 0.672017590466945 
871	 0.672144673113367 
872	 0.672322552790801 
873	 0.672684531959364 
874	 0.673059188660023 
875	 0.6731572701531 
876	 0.673548092980222 
877	 0.673725085351202 
878	 0.673751574639957 
879	 0.674252512421439 
880	 0.67439877871699 
881	 0.674378291152231 
882	 0.674510939025558 
883	 0.675025935205299 
884	 0.675079055636436 
885	 0.675080954975353 
886	 0.675242099502967 
887	 0.674930797586383 
888	 0.675220555317745 
889	 0.675534404076513 
890	 0.675410883380796 
891	 0.675851122673634 
892	 0.675402623488848 
893	 0.67462891349673 
894	 0.674373733730506 
895	 0.673883921183553 
896	 0.673823147557608 
897	 0.673658993430233 
898	 0.672850666109303 
899	 0.673304118791888 
900	 0.673607206414486 
901	 0.67371484074992 
902	 0.674194525338989 
903	 0.674348094877546 
904	 0.674804385400878 
905	 0.675444356070916 
906	 0.67569267850116 
907	 0.675539042574705 
908	 0.675464200783135 
909	 0.675471263477728 
910	 0.675193958185424 
911	 0.675107771802634 
912	 0.674825299513839 
913	 0.674710276759982 
914	 0.675653160929192 
915	 0.675692752710409 
916	 0.676001024165627 
917	 0.676881184364848 
918	 0.677260226245523 
919	 0.677265542048936 
920	 0.677957448243807 
921	 0.679146776516217 
922	 0.679043190734898 
923	 0.678588898126479 
924	 0.678077854295954 
925	 0.677518281802349 
926	 0.676632291007801 
927	 0.675390660435609 
928	 0.673915882365788 
929	 0.672284893197723 
930	 0.670427113000418 
931	 0.669097258611183 
932	 0.667254681637854 
933	 0.664399805529623 
934	 0.662405065391477 
935	 0.66292567586041 
936	 0.66374218519178 
937	 0.66318117288331 
938	 0.662904571476248 
939	 0.662726602066927 
940	 0.662755758773982 
941	 0.663241921860897 
942	 0.664638423363046 
943	 0.66544570626917 
944	 0.665244156474412 
945	 0.664392358629056 
946	 0.664183326986274 
947	 0.663579274936934 
948	 0.662525871803291 
949	 0.661841026393506 
950	 0.663428890093265 
951	 0.662525573147085 
952	 0.661756180693664 
953	 0.662778330489892 
954	 0.661440812289678 
955	 0.660544046833815 
956	 0.661787805409778 
957	 0.664195286874284 
958	 0.662611359404219 
959	 0.660998928920298 
960	 0.660960543873345 
961	 0.662420380032858 
962	 0.663498675103086 
963	 0.66381978860815 
964	 0.664226936004722 
965	 0.665190848146894 
966	 0.666051778317256 
967	 0.666578205288748 
968	 0.667083632398339 
969	 0.667522365044958 
970	 0.667182046501873 
971	 0.667506091217311 
972	 0.668160357102097 
973	 0.668941848359159 
974	 0.67019896135635 
975	 0.668655385535973 
976	 0.667546390045538 
977	 0.668690027535618 
978	 0.670302920796123 
979	 0.671057588153719 
980	 0.670414179648119 
981	 0.669807180430533 
982	 0.671774267449994 
983	 0.671581264161469 
984	 0.671744457349943 
985	 0.673170530648926 
986	 0.674431914987667 
987	 0.675680387052416 
988	 0.675548228011684 
989	 0.675406611612066 
990	 0.677620152154786 
991	 0.676661063762128 
992	 0.676332103309854 
993	 0.677939896981816 
994	 0.679883050379326 
995	 0.677659577645354 
996	 0.676795363942558 
997	 0.677239685956764 
998	 0.676742455396175 
999	 0.677874782055715 
1000	 0.678587004563228 
1001	 0.673363954326234 
1002	 0.674119426622341 
1003	 0.674625924575093 
1004	 0.674978217674557 
1005	 0.675364478651644 
1006	 0.675507714277272 
1007	 0.675864171973021 
1008	 0.676323523887852 
1009	 0.676830014284617 
1010	 0.677505273988974 
1011	 0.677970280516971 
1012	 0.6783490474244 
1013	 0.678915942985898 
1014	 0.679207418629057 
1015	 0.679571666686426 
1016	 0.680217921854495 
1017	 0.680633521905972 
1018	 0.681050443953954 
1019	 0.681485835208527 
1020	 0.681928409439884 
1021	 0.682301764071569 
1022	 0.682681629915892 
1023	 0.683094514018442 
1024	 0.683568703244968 
1025	 0.68378939911456 
1026	 0.684036549652397 
1027	 0.684513362845558 
1028	 0.684806197290946 
1029	 0.685301690599561 
1030	 0.685970471467785 
1031	 0.686376216664582 
1032	 0.686792507825444 
1033	 0.687135092249822 
1034	 0.687257949167783 
1035	 0.68754317353587 
1036	 0.687842980526094 
1037	 0.688196263792001 
1038	 0.688624072977749 
1039	 0.689163875095233 
1040	 0.68953410249678 
1041	 0.689824405404565 
1042	 0.689918918577555 
1043	 0.690043390631703 
1044	 0.690228316196078 
1045	 0.690344926503858 
1046	 0.690719750749016 
1047	 0.691058066558086 
1048	 0.691233306358071 
1049	 0.691485512730164 
1050	 0.69175765533018 
1051	 0.692036297252177 
1052	 0.692203839790398 
1053	 0.692450797650987 
1054	 0.692808896536065 
1055	 0.69304727086919 
1056	 0.693230373259662 
1057	 0.6933841612706 
1058	 0.693433570759692 
1059	 0.693495494551202 
1060	 0.693729587570561 
1061	 0.693882149232937 
1062	 0.693907441980378 
1063	 0.694056719233194 
1064	 0.694096949877864 
1065	 0.694069375374755 
1066	 0.693978304067496 
1067	 0.694048417372679 
1068	 0.693990900381768 
1069	 0.693881642093189 
1070	 0.69403711600623 
1071	 0.694191495881962 
1072	 0.694296472138842 
1073	 0.6945364580792 
1074	 0.694605496169122 
1075	 0.694483005448221 
1076	 0.694487940401395 
1077	 0.694449495137196 
1078	 0.694200615305026 
1079	 0.694111830853304 
1080	 0.694144893334084 
1081	 0.694070037458628 
1082	 0.693897003295886 
1083	 0.693878480548454 
1084	 0.693781003119411 
1085	 0.693467858751853 
1086	 0.693265630029793 
1087	 0.69310480875724 
1088	 0.692894752767143 
1089	 0.692798520161685 
1090	 0.692795188953979 
1091	 0.692601098040033 
1092	 0.69241631929758 
1093	 0.692276806008972 
1094	 0.691801779002149 
1095	 0.691248403196372 
1096	 0.690804462105727 
1097	 0.690309489440038 
1098	 0.689873762492151 
1099	 0.689540941140943 
1100	 0.689224554191442 
1101	 0.688769715465321 
1102	 0.68831091423971 
1103	 0.68769289984387 
1104	 0.687071079767779 
1105	 0.686557533202299 
1106	 0.685960825554881 
1107	 0.685291621288464 
1108	 0.684408686981988 
1109	 0.683380590567231 
1110	 0.68217655359737 
1111	 0.680876341433218 
1112	 0.679378097312253 
1113	 0.677907193453373 
1114	 0.676109435976747 
1115	 0.674456651698458 
1116	 0.672893654078677 
1117	 0.671217428507824 
1118	 0.669261476988206 
1119	 0.667340238593463 
1120	 0.665288324533481 
1121	 0.663377859856928 
1122	 0.662051679347412 
1123	 0.661102701873869 
1124	 0.660274919522746 
1125	 0.659622397403018 
1126	 0.658987019466745 
1127	 0.658287355808335 
1128	 0.657926666231209 
1129	 0.657982251967055 
1130	 0.657814833969588 
1131	 0.657940756355571 
1132	 0.657719276688549 
1133	 0.657346450955588 
1134	 0.656743598296476 
1135	 0.6562142496727 
1136	 0.655462406803782 
1137	 0.65479753678554 
1138	 0.65400438047702 
1139	 0.652641389827946 
1140	 0.651212351970743 
1141	 0.64978854061502 
1142	 0.648143319774846 
1143	 0.646485486449091 
1144	 0.644777812463629 
1145	 0.643202848457316 
1146	 0.641418323216192 
1147	 0.639979291843974 
1148	 0.638815172516919 
1149	 0.637817032471017 
1150	 0.636895084571322 
1151	 0.636277524351256 
1152	 0.635937241248826 
1153	 0.635746923990838 
1154	 0.635732723458076 
1155	 0.635901964358758 
1156	 0.636163485842514 
1157	 0.636449621468772 
1158	 0.636713926818636 
1159	 0.637038845621422 
1160	 0.63725393823979 
1161	 0.637397595219193 
1162	 0.637566229476262 
1163	 0.637718354387495 
1164	 0.63781284418905 
1165	 0.63794077864006 
1166	 0.637998809464267 
1167	 0.637898530685499 
1168	 0.637942431000339 
1169	 0.638082451571558 
1170	 0.638128005940484 
1171	 0.638099414877901 
1172	 0.638160167968946 
1173	 0.638205525594864 
1174	 0.638128623190533 
1175	 0.638096922440683 
1176	 0.638197068008116 
1177	 0.638189939456321 
1178	 0.638129561651981 
1179	 0.638008634180864 
1180	 0.637809642037451 
1181	 0.637683110237066 
1182	 0.637494443076058 
1183	 0.637394368328864 
1184	 0.637431330916422 
1185	 0.637380797911591 
1186	 0.637258584427856 
1187	 0.637215815745798 
1188	 0.637177574164694 
1189	 0.637163432282839 
1190	 0.637312226809742 
1191	 0.637438131231541 
1192	 0.637559282911768 
1193	 0.637662685200215 
1194	 0.637716527598738 
1195	 0.637689142513641 
1196	 0.637739052273712 
1197	 0.637786128333314 
1198	 0.637867416226939 
1199	 0.637946758192259 
1200	 0.638114516189479 
1201	 0.638315296069862 
1202	 0.638574284011301 
1203	 0.638947075157326 
1204	 0.639288075297405 
1205	 0.639721846725328 
1206	 0.640026081640809 
1207	 0.640202158421535 
1208	 0.640480494095214 
1209	 0.640703916809225 
1210	 0.640954904922857 
1211	 0.641473188591276 
1212	 0.641959936473634 
1213	 0.642402154804089 
1214	 0.642905459681726 
1215	 0.64330507443056 
1216	 0.643583257872253 
1217	 0.643972261976005 
1218	 0.64438532548689 
1219	 0.644767249505917 
1220	 0.645156457319353 
1221	 0.645578907606447 
1222	 0.64597201128506 
1223	 0.646420431029411 
1224	 0.646971843667372 
1225	 0.647460643655331 
1226	 0.647968533876241 
1227	 0.648416253345466 
1228	 0.648820756180866 
1229	 0.649195903487722 
1230	 0.649585831896342 
1231	 0.649885280229082 
1232	 0.650276155656602 
1233	 0.650714836551916 
1234	 0.651108807556914 
1235	 0.651538966524851 
1236	 0.651889606713146 
1237	 0.65214927148215 
1238	 0.652495391760856 
1239	 0.652851892212628 
1240	 0.653207026020861 
1241	 0.653636338035608 
1242	 0.653980907558934 
1243	 0.654267438456682 
1244	 0.654559210560567 
1245	 0.654812629020768 
1246	 0.655090329250563 
1247	 0.655417417705631 
1248	 0.655664220612626 
1249	 0.655834135668333 
1250	 0.656057771703812 
1251	 0.656253344394628 
1252	 0.656453522296653 
1253	 0.656699036308747 
1254	 0.657050327686813 
1255	 0.657272115454609 
1256	 0.657409529671731 
1257	 0.657657890160369 
1258	 0.657957613790725 
1259	 0.658159216888171 
1260	 0.658430425247121 
1261	 0.658568371491425 
1262	 0.658434177392035 
1263	 0.658551388404673 
1264	 0.658770836161798 
1265	 0.658959834468718 
1266	 0.659364369478062 
1267	 0.659533873883545 
1268	 0.659515213094546 
1269	 0.659545441058673 
1270	 0.659460955587083 
1271	 0.659419623736692 
1272	 0.659411761288342 
1273	 0.659428604029746 
1274	 0.659376566562836 
1275	 0.659292633758339 
1276	 0.659211035520395 
1277	 0.659114808970017 
1278	 0.658980818087552 
1279	 0.658861542213514 
1280	 0.658649497585195 
1281	 0.658334949288249 
1282	 0.658078327905988 
1283	 0.657774258695579 
1284	 0.657523247619811 
1285	 0.657408063999686 
1286	 0.657098932767227 
1287	 0.656742111632449 
1288	 0.656307926121966 
1289	 0.655680716922196 
1290	 0.655131502948207 
1291	 0.654610635580849 
1292	 0.654028191029404 
1293	 0.653388981581527 
1294	 0.652782702235161 
1295	 0.652246606225128 
1296	 0.651515184124468 
1297	 0.650846905900678 
1298	 0.650273585969474 
1299	 0.649411132799899 
1300	 0.648346014206617 
1301	 0.64739527302486 
1302	 0.646307927350578 
1303	 0.645307700509154 
1304	 0.644431113388333 
1305	 0.643422239521289 
1306	 0.642306986411392 
1307	 0.641245879350263 
1308	 0.640266014382256 
1309	 0.639089616067007 
1310	 0.637876983343507 
1311	 0.636526470928555 
1312	 0.634933326044046 
1313	 0.633392508979201 
1314	 0.63172269550692 
1315	 0.630186532529497 
1316	 0.628841542536251 
1317	 0.627279701804358 
1318	 0.625700410758383 
1319	 0.624038669568978 
1320	 0.622179101697396 
1321	 0.620212862522981 
1322	 0.61833225966248 
1323	 0.616483139678107 
1324	 0.614483615044059 
1325	 0.612393752318226 
1326	 0.610233063124596 
1327	 0.607921918708388 
1328	 0.605558747284138 
1329	 0.603104524786603 
1330	 0.600585956306948 
1331	 0.597871795341288 
1332	 0.595353293697751 
1333	 0.592862219471286 
1334	 0.590518605073116 
1335	 0.588391670604056 
1336	 0.586243544247676 
1337	 0.58414246918605 
1338	 0.58204018811851 
1339	 0.579919512903615 
1340	 0.57770110690543 
1341	 0.575139419070254 
1342	 0.572711580304469 
1343	 0.569968104893266 
1344	 0.567202758056801 
1345	 0.564135588151322 
1346	 0.561008628557804 
1347	 0.557625071320829 
1348	 0.553574523660762 
1349	 0.549820247027359 
1350	 0.546331821611634 
1351	 0.541856648947515 
1352	 0.537355976427397 
1353	 0.532120067362617 
1354	 0.526817647736518 
1355	 0.519680579355585 
1356	 0.516185931854678 
1357	 0.50776158855596 
1358	 0.497001385045103 
1359	 0.485474697519767 
1360	 0.487086890512547 
1361	 0.480589380051097 
1362	 0.499304857537712 
1363	 0.496774587124818 
1364	 0.466634734624126 
1365	 0.450299771331716 
1366	 0.427613682142073 
1367	 0.422651555347586 
1368	 0.445488642601268 
1369	 0.44718488235498 
1370	 0.4490728832647 
1371	 0.445211476589295 
1372	 0.432055981237716 
1373	 0.424001499982371 
1374	 0.415912626139131 
1375	 0.407854859720862 
1376	 0.405381423418663 
1377	 0.404198619110358 
1378	 0.40172283836433 
1379	 0.402244135480639 
1380	 0.396731116297469 
1381	 0.387912379028714 
1382	 0.379097345692578 
1383	 0.368830860676786 
1384	 0.358730622506579 
1385	 0.349365863499953 
1386	 0.340165726526906 
1387	 0.332748475372688 
1388	 0.323918616220904 
1389	 0.313270534180774 
1390	 0.307653099324771 
1391	 0.303567587824012 
1392	 0.2986948688149 
1393	 0.298243803320409 
1394	 0.292336391171532 
1395	 0.282114595444871 
1396	 0.274550658831644 
1397	 0.266029610668607 
1398	 0.258921634137563 
1399	 0.252708669157927 
1400	 0.247271817039075 
1401	 0.244040955819071 
1402	 0.238452812814988 
1403	 0.232560235739417 
1404	 0.227068044071439 
1405	 0.22115561037762 
1406	 0.215271284197986 
1407	 0.209851357090725 
1408	 0.205372980866883 
1409	 0.200672883231553 
1410	 0.196852542939087 
1411	 0.19367047795116 
1412	 0.19152269960515 
1413	 0.188863424747934 
1414	 0.186209005701487 
1415	 0.183972367322228 
1416	 0.181888770418497 
1417	 0.179979376949552 
1418	 0.178277530276568 
1419	 0.17668130000351 
1420	 0.175245294689507 
1421	 0.173711090088263 
1422	 0.172041426462315 
1423	 0.170844924120681 
1424	 0.16982353959229 
1425	 0.168650811829184 
1426	 0.167431632361057 
1427	 0.166655442745151 
1428	 0.165965589486116 
1429	 0.165182089195465 
1430	 0.1649130697408 
1431	 0.164090659616936 
1432	 0.162598630582533 
1433	 0.16151388752692 
1434	 0.160262008068758 
1435	 0.159453202560311 
1436	 0.159002533296665 
1437	 0.158577206441991 
1438	 0.158488997203618 
1439	 0.158283551532852 
1440	 0.158054927574723 
1441	 0.157848967574708 
1442	 0.157543600670217 
1443	 0.15738793220546 
1444	 0.157364202513111 
1445	 0.157560052798377 
1446	 0.157992445737373 
1447	 0.158497648590293 
1448	 0.158839698661199 
1449	 0.159183219530905 
1450	 0.159482136105597 
1451	 0.159675636623421 
1452	 0.159945988640876 
1453	 0.160224983220345 
1454	 0.160543376140652 
1455	 0.160909406317519 
1456	 0.161208403193851 
1457	 0.161489127642548 
1458	 0.161881861797977 
1459	 0.162360118673818 
1460	 0.162703440684127 
1461	 0.163123677364857 
1462	 0.163493985894791 
1463	 0.163579089681685 
1464	 0.164061440855373 
1465	 0.16473119159408 
1466	 0.165597093411792 
1467	 0.166823193274178 
1468	 0.167983259191717 
1469	 0.169066831431335 
1470	 0.170525770567238 
1471	 0.172155880320954 
1472	 0.173756249624182 
1473	 0.175578660957908 
1474	 0.177259432319881 
1475	 0.178572589258302 
1476	 0.180221810069435 
1477	 0.181992072097674 
1478	 0.183804907554855 
1479	 0.185637370927109 
1480	 0.187654534605882 
1481	 0.189799055493678 
1482	 0.191916991895073 
1483	 0.194047227239809 
1484	 0.196303963035613 
1485	 0.198540236152792 
1486	 0.200803003161777 
1487	 0.203160419834821 
1488	 0.205495751239136 
1489	 0.207752084187611 
1490	 0.210001156327043 
1491	 0.212091201096551 
1492	 0.214253841271744 
1493	 0.216373636917501 
1494	 0.218357896995468 
1495	 0.220514626842197 
1496	 0.222833265408495 
1497	 0.224980120699048 
1498	 0.227142943382807 
1499	 0.229328560085631 
1500	 0.231482338366233 
1501	 0.233713225225732 
1502	 0.236041361244529 
1503	 0.238378072912431 
1504	 0.240738317634799 
1505	 0.243084370251769 
1506	 0.245482353321308 
1507	 0.24780147941119 
1508	 0.250081005995435 
1509	 0.25231752826101 
1510	 0.254502093663598 
1511	 0.256711684292662 
1512	 0.258877655892406 
1513	 0.261107135149689 
1514	 0.263402896418737 
1515	 0.265675777686961 
1516	 0.268038188575873 
1517	 0.270263686890322 
1518	 0.272396826781682 
1519	 0.274619608006135 
1520	 0.276806794694379 
1521	 0.279035136703503 
1522	 0.281410466558243 
1523	 0.283643171586746 
1524	 0.285814374561744 
1525	 0.287969480068932 
1526	 0.290035186170845 
1527	 0.29217410911964 
1528	 0.294363998050975 
1529	 0.296501238265537 
1530	 0.298683644312089 
1531	 0.300786653488167 
1532	 0.302812815095765 
1533	 0.304842791246138 
1534	 0.306854653915062 
1535	 0.308846737760744 
1536	 0.310791764973179 
1537	 0.312772173553598 
1538	 0.314759202269631 
1539	 0.316736954681015 
1540	 0.318791544066047 
1541	 0.320732421949596 
1542	 0.322562636849992 
1543	 0.324443393535453 
1544	 0.326296812003473 
1545	 0.328147413815448 
1546	 0.330051798903678 
1547	 0.331906244866043 
1548	 0.3337175276918 
1549	 0.335508963291102 
1550	 0.337235584508079 
1551	 0.339033947320209 
1552	 0.340914013543596 
1553	 0.342701744252779 
1554	 0.344516703709086 
1555	 0.346267104441911 
1556	 0.347866217340719 
1557	 0.349512374346859 
1558	 0.351182645318308 
1559	 0.352825286583767 
1560	 0.354469545536484 
1561	 0.356100076276546 
1562	 0.357734291688354 
1563	 0.359323659433908 
1564	 0.360861410889376 
1565	 0.362434158332729 
1566	 0.363960956866949 
1567	 0.365581786556062 
1568	 0.367199383071777 
1569	 0.368911157223829 
1570	 0.370468524966563 
1571	 0.371981583559229 
1572	 0.373464809734286 
1573	 0.374810429820678 
1574	 0.376337571317318 
1575	 0.377917959780452 
1576	 0.379456246014354 
1577	 0.381070594883965 
1578	 0.38251077204746 
1579	 0.383828737606389 
1580	 0.38517860155887 
1581	 0.386449523119713 
1582	 0.387778318106322 
1583	 0.389137387164079 
1584	 0.390436708037473 
1585	 0.391696473591129 
1586	 0.393035444286591 
1587	 0.394416748683417 
1588	 0.39568738839107 
1589	 0.396948550800754 
1590	 0.398262085119714 
1591	 0.399513342081519 
1592	 0.400789456506023 
1593	 0.402197681203546 
1594	 0.403440746901995 
1595	 0.404570263941385 
1596	 0.405717938487256 
1597	 0.40680887508009 
1598	 0.408003025177454 
1599	 0.409236424930192 
1600	 0.410392930393128 
1601	 0.411580627862073 
1602	 0.41276582407063 
1603	 0.41387979361602 
1604	 0.415012027048292 
1605	 0.416223339221628 
1606	 0.417312155957116 
1607	 0.418282378721408 
1608	 0.419306254710817 
1609	 0.420311127249795 
1610	 0.421331067598437 
1611	 0.422353142765721 
1612	 0.42335569225205 
1613	 0.424399734607655 
1614	 0.425302853049686 
1615	 0.426085404488807 
1616	 0.426981210290861 
1617	 0.427831397395422 
1618	 0.42872871101097 
1619	 0.429759456995681 
1620	 0.430646733299792 
1621	 0.431461285301254 
1622	 0.432274040566854 
1623	 0.433036523539958 
1624	 0.433811737822998 
1625	 0.434580297165287 
1626	 0.43533045781042 
1627	 0.43611442138583 
1628	 0.436794088876772 
1629	 0.437388700324682 
1630	 0.438055125005577 
1631	 0.438724382701649 
1632	 0.439318896377587 
1633	 0.439891435206475 
1634	 0.440532947329293 
1635	 0.441100243986427 
1636	 0.441789106887286 
1637	 0.442669699717466 
1638	 0.443347345750978 
1639	 0.443999673538059 
1640	 0.444521849718157 
1641	 0.444931711947829 
1642	 0.445318885622422 
1643	 0.445558255681407 
1644	 0.445908645192109 
1645	 0.446240006372492 
1646	 0.446635971720864 
1647	 0.44710907684777 
1648	 0.447550362003139 
1649	 0.448069710658034 
1650	 0.448392772208255 
1651	 0.44858680598139 
1652	 0.448887867035217 
1653	 0.449118558205495 
1654	 0.449387079464421 
1655	 0.449855883536156 
1656	 0.449894801793037 
1657	 0.449686269962964 
1658	 0.449516334991117 
1659	 0.44936469034228 
1660	 0.449452989331534 
1661	 0.449441065764519 
1662	 0.449235095407959 
1663	 0.449073676486337 
1664	 0.449103730437861 
1665	 0.448990481587619 
1666	 0.448942553734256 
1667	 0.448935929512883 
1668	 0.448675031044008 
1669	 0.448554028101721 
1670	 0.448428452468206 
1671	 0.448252715028136 
1672	 0.448290532587279 
1673	 0.448226585732682 
1674	 0.448105910685197 
1675	 0.448105813335626 
1676	 0.448061676438945 
1677	 0.447927890515521 
1678	 0.44785269017241 
1679	 0.447776810665778 
1680	 0.447496211522142 
1681	 0.447206136187386 
1682	 0.447029897934343 
1683	 0.446865321192226 
1684	 0.446613984641941 
1685	 0.446347264658772 
1686	 0.4460794190646 
1687	 0.445723787839695 
1688	 0.445456629095977 
1689	 0.445255103672043 
1690	 0.445060679225897 
1691	 0.444729119591696 
1692	 0.444296472643336 
1693	 0.443871311669766 
1694	 0.443326114795752 
1695	 0.442817149273214 
1696	 0.442320153322483 
1697	 0.441885546232228 
1698	 0.441508689005588 
1699	 0.441019400868154 
1700	 0.440578683724646 
1701	 0.44006399551962 
1702	 0.439353825327678 
1703	 0.438752824498054 
1704	 0.438217531086405 
1705	 0.437616337377063 
1706	 0.437061403069755 
1707	 0.436442114792693 
1708	 0.435644153517236 
1709	 0.435003897643185 
1710	 0.434455518078748 
1711	 0.433820334738391 
1712	 0.433342601407124 
1713	 0.432703054877347 
1714	 0.431771503979729 
1715	 0.43106455735869 
1716	 0.430427821989913 
1717	 0.429784492104894 
1718	 0.429350147279405 
1719	 0.428663407498387 
1720	 0.427725285678278 
1721	 0.426971589517976 
1722	 0.426149335118603 
1723	 0.425493316593267 
1724	 0.425106701791015 
1725	 0.424470774372098 
1726	 0.423768269254682 
1727	 0.423071478009257 
1728	 0.422247552969784 
1729	 0.421616012261508 
1730	 0.421059065987707 
1731	 0.420569711393864 
1732	 0.420011973438855 
1733	 0.419235602982072 
1734	 0.418466354036988 
1735	 0.417568788504811 
1736	 0.416742743265117 
1737	 0.416055892651683 
1738	 0.415062916513548 
1739	 0.414176215032278 
1740	 0.413296719715675 
1741	 0.412073349913825 
1742	 0.411230605362052 
1743	 0.410327245059025 
1744	 0.409041081175909 
1745	 0.407930394539765 
1746	 0.406803400682448 
1747	 0.405586806128149 
1748	 0.404511581516036 
1749	 0.403577639344464 
1750	 0.402499377064825 
1751	 0.401446998275213 
1752	 0.400615587331064 
1753	 0.399559707902153 
1754	 0.398538063974391 
1755	 0.39745931133093 
1756	 0.39601642311172 
1757	 0.394593517004312 
1758	 0.393342351011724 
1759	 0.392279684250678 
1760	 0.391066690518681 
1761	 0.389793347388507 
1762	 0.388677421964442 
1763	 0.387458889810195 
1764	 0.386420079721131 
1765	 0.38563887979716 
1766	 0.384686405322971 
1767	 0.383796165902216 
1768	 0.382837388022108 
1769	 0.38180709225239 
1770	 0.380761875431728 
1771	 0.379584520455412 
1772	 0.378514859835141 
1773	 0.377298777511229 
1774	 0.376718392395881 
1775	 0.376212567304232 
1776	 0.375696829427913 
1777	 0.375198300961555 
1778	 0.374166585245638 
1779	 0.373062257522625 
1780	 0.372159696042024 
1781	 0.371379044792413 
1782	 0.370888661237543 
1783	 0.370262075704352 
1784	 0.369719876588383 
1785	 0.3696552012192 
1786	 0.369556440568836 
1787	 0.369592945441937 
1788	 0.369695642425643 
1789	 0.36896518298077 
1790	 0.368065872661092 
1791	 0.36754103574635 
1792	 0.366812295965447 
1793	 0.366359803429808 
1794	 0.366103816367392 
1795	 0.365341036240889 
1796	 0.364714946406396 
1797	 0.364014546861781 
1798	 0.362515681017338 
1799	 0.361845127225361 
1800	 0.360582593107479 
1801	 0.357089816063253 
1802	 0.356231305146031 
1803	 0.355710820547531 
1804	 0.355570110691606 
1805	 0.354781458949384 
1806	 0.353541021519289 
1807	 0.352845551084062 
1808	 0.352254085412941 
1809	 0.350948770422476 
1810	 0.350685132143092 
1811	 0.351994635558897 
1812	 0.351682682497317 
1813	 0.350323035287556 
1814	 0.350232714481326 
1815	 0.350930748510036 
1816	 0.350203336491011 
1817	 0.348345879424339 
1818	 0.348414964841559 
1819	 0.348893419180326 
1820	 0.348801154657625 
1821	 0.347896481618379 
1822	 0.351642031325583 
1823	 0.348530380580405 
1824	 0.333017728993918 
1825	 0.32618138880917 
1826	 0.319293022718599 
1827	 0.313384954917311 
1828	 0.310528534280267 
1829	 0.319831196147874 
1830	 0.325222857392935 
1831	 0.334871605670797 
1832	 0.343815101891419 
1833	 0.361173834357901 
1834	 0.377336440287862 
1835	 0.394746074913904 
1836	 0.396513116013464 
1837	 0.368944894932943 
1838	 0.341251542996539 
1839	 0.297967553719118 
1840	 0.196028897774176 
1841	 0.181708641966768 
1842	 0.224969850151774 
1843	 0.238814144859954 
1844	 0.284403496822425 
1845	 0.31033902012304 
1846	 0.330049859050428 
1847	 0.347374089661045 
1848	 0.362194858768848 
1849	 0.381891529102613 
1850	 0.377161321576512 
1851	 0.355681753394487 
1852	 0.335756768690973 
1853	 0.286699549693095 
1854	 0.281305266246344 
1855	 0.315309108130096 
1856	 0.30883979118338 
1857	 0.30977936054997 
1858	 0.296528053550331 
1859	 0.27107360929933 
1860	 0.205697214370777 
1861	 0.200495051837976 
1862	 0.212577947424381 
1863	 0.222091943572753 
1864	 0.281665038548564 
1865	 0.289513047610647 
1866	 0.23511305447318 
1867	 0.234096627637256 
1868	 0.248250942070008 
1869	 0.254469003458522 
1870	 0.257343008192118 
1871	 0.302293185475973 
1872	 0.304600754945014 
1873	 0.272972083353433 
1874	 0.246842883293458 
1875	 0.235883188669381 
1876	 0.212809646720412 
1877	 0.189723320761297 
1878	 0.161001039518169 
1879	 0.127306250410518 
1880	 0.121684969020263 
1881	 0.116085077307833 
1882	 0.110778591456077 
1883	 0.109047957915041 
1884	 0.116667332156153 
1885	 0.116968754583528 
1886	 0.116307212589246 
1887	 0.113981317814284 
1888	 0.105135697693137 
1889	 9.66844438501525E-02 
1890	 9.08096554824055E-02 
1891	 8.15480193698295E-02 
1892	 7.61946479093789E-02 
1893	 0.075037041834479 
1894	 7.16395549931343E-02 
1895	 6.46561223371309E-02 
1896	 0.062282017268544 
1897	 6.00651227768236E-02 
1898	 0.066593311564505 
1899	 8.00656086067622E-02 
1900	 0.101599014448602 
1901	 0.110259814085835 
1902	 0.116017165584598 
1903	 0.113444260606655 
1904	 7.55004769475447E-02 
1905	 6.21309124801585E-02 
1906	 5.83111064109937E-02 
1907	 6.16906496225342E-02 
1908	 5.13342956442327E-02 
1909	 0.059284314394464 
1910	 6.65716698040522E-02 
1911	 0.060228048206582 
1912	 5.46362380747573E-02 
1913	 5.44469507899327E-02 
1914	 5.32769911164023E-02 
1915	 4.83875547322126E-02 
1916	 4.47688212407615E-02 
1917	 0.04667178915763 
1918	 3.83356661166386E-02 
1919	 3.56848213726787E-02 
1920	 3.19142887818355E-02 
1921	 2.72233969620832E-02 
1922	 3.10968655273042E-02 
1923	 3.32629717613261E-02 
1924	 3.44884373778905E-02 
1925	 3.62534002168818E-02 
1926	 4.29017993325052E-02 
1927	 4.34428509819664E-02 
1928	 0.039501749774122 
1929	 4.01994548782013E-02 
1930	 3.72231600402174E-02 
1931	 2.89238182554141E-02 
1932	 2.91843379097313E-02 
1933	 2.78479744433527E-02 
1934	 2.72640763581613E-02 
1935	 2.94726770412647E-02 
1936	 0.032069914744024 
1937	 0.034290310832838 
1938	 3.53642384917735E-02 
1939	 3.76365236902318E-02 
1940	 3.84317994240877E-02 
1941	 3.67267270135027E-02 
1942	 3.57765301724991E-02 
1943	 3.60730902275348E-02 
1944	 3.60422424199008E-02 
1945	 0.036142327179143 
1946	 3.62602775905326E-02 
1947	 3.62586459894336E-02 
1948	 3.60931357221097E-02 
1949	 3.58989148190024E-02 
1950	 3.55658227121746E-02 
1951	 3.51961633651029E-02 
1952	 0.035419810605593 
1953	 3.68045913118157E-02 
1954	 0.037204363950455 
1955	 0.037562188091779 
1956	 3.85903097707969E-02 
1957	 3.83726281589852E-02 
1958	 3.85846373463854E-02 
1959	 3.95685414634248E-02 
1960	 4.01271127368426E-02 
1961	 4.04109231640476E-02 
1962	 4.02558791926458E-02 
1963	 4.02833224464236E-02 
1964	 4.02233277568572E-02 
1965	 4.05655663348166E-02 
1966	 4.08929045607134E-02 
1967	 4.19784186793907E-02 
1968	 4.29163720624754E-02 
1969	 4.32508957643057E-02 
1970	 4.31504745776512E-02 
1971	 4.35188772263318E-02 
1972	 4.36625768618214E-02 
1973	 4.39597984656103E-02 
1974	 4.49296661917911E-02 
1975	 4.59098025369087E-02 
1976	 4.68937509691797E-02 
1977	 0.047579144084079 
1978	 4.83324649818067E-02 
1979	 4.93345832344105E-02 
1980	 4.99903582969648E-02 
1981	 5.04965977961079E-02 
1982	 5.07740473046493E-02 
1983	 5.07279779371311E-02 
1984	 5.06163952077477E-02 
1985	 5.05373837125907E-02 
1986	 5.08611730958486E-02 
1987	 5.17664866094227E-02 
1988	 5.24404941559497E-02 
1989	 5.32996136613917E-02 
1990	 5.42811949496417E-02 
1991	 5.53607781477361E-02 
1992	 5.64530656715365E-02 
1993	 5.73598778003563E-02 
1994	 0.057809422873446 
1995	 5.82426950184611E-02 
1996	 5.80177618051103E-02 
1997	 5.83241313671733E-02 
1998	 5.91978049782615E-02 
1999	 6.05625985443594E-02 
2000	 6.22857305651819E-02 
2001	 6.37892585281782E-02 
2002	 6.43977552691237E-02 
2003	 6.49544386737566E-02 
2004	 6.55356145536808E-02 
2005	 6.57424372485036E-02 
2006	 6.64683474972387E-02 
2007	 6.74016246781196E-02 
2008	 6.85149092519569E-02 
2009	 7.03427427682689E-02 
2010	 7.21995627168113E-02 
2011	 7.37966439476423E-02 
2012	 7.54254986164977E-02 
2013	 7.65355630151392E-02 
2014	 7.76154904712994E-02 
2015	 7.82832060482197E-02 
2016	 0.078558974181391 
2017	 7.93234739046891E-02 
2018	 7.97332250961225E-02 
2019	 8.00752485335917E-02 
2020	 8.03061804602531E-02 
2021	 8.12137505788485E-02 
2022	 8.18273076061815E-02 
2023	 0.082399518141726 
2024	 8.37179528390951E-02 
2025	 8.47784376371181E-02 
2026	 8.53153412390515E-02 
2027	 8.62420450778446E-02 
2028	 8.70528764730319E-02 
2029	 8.77786592772478E-02 
2030	 8.89144084697937E-02 
2031	 8.97528212760286E-02 
2032	 9.05082510337161E-02 
2033	 9.11121138144123E-02 
2034	 9.18842160357795E-02 
2035	 9.27175086884885E-02 
2036	 9.36574831475942E-02 
2037	 9.46561074495603E-02 
2038	 9.55591753269174E-02 
2039	 9.63169647167084E-02 
2040	 9.69034817078816E-02 
2041	 9.73210957653151E-02 
2042	 9.82771109877635E-02 
2043	 9.94317481118848E-02 
2044	 0.100226636412018 
2045	 0.10097200104636 
2046	 0.101957615522237 
2047	 0.102274433629058 
2048	 0.101997344871823 
2049	 0.102473106109491 
2050	 0.103562486370771 
2051	 0.10458599642863 
2052	 0.106116005647448 
2053	 0.107586359472135 
2054	 0.107746425075439 
2055	 0.10796001111866 
2056	 0.108394688179053 
2057	 0.108854723858037 
2058	 0.109670392592625 
2059	 0.110601785279217 
2060	 0.111754374447445 
2061	 0.113230561496999 
2062	 0.114336552887265 
2063	 0.115581657309648 
2064	 0.116778487202541 
2065	 0.117115480687925 
2066	 0.117590982646218 
2067	 0.118247419456059 
2068	 0.119130990987741 
2069	 0.12005301654686 
2070	 0.1209232466755 
2071	 0.121927696825934 
2072	 0.122828165801173 
2073	 0.123613488189842 
2074	 0.124513251304899 
2075	 0.125342567683593 
2076	 0.126247109190229 
2077	 0.127471875790764 
2078	 0.128724895096031 
2079	 0.129937824426392 
2080	 0.130820656830582 
2081	 0.131321517594769 
2082	 0.131765683795529 
2083	 0.132214407133901 
2084	 0.132800246168582 
2085	 0.133819431812097 
2086	 0.134978953024721 
2087	 0.135991192322573 
2088	 0.137153891498857 
2089	 0.138197163475407 
2090	 0.138994115575679 
2091	 0.139958518367075 
2092	 0.140778506589289 
2093	 0.141755873442468 
2094	 0.142917495384055 
2095	 0.143634444899117 
2096	 0.144623227827779 
2097	 0.145656230487129 
2098	 0.146364144285597 
2099	 0.14745617101053 
2100	 0.148259261439908 
2101	 0.148903368222001 
2102	 0.149768683462647 
2103	 0.150871660836136 
2104	 0.151445908092327 
2105	 0.152083300845166 
2106	 0.152924153168424 
2107	 0.153468170064166 
2108	 0.154188634185162 
2109	 0.155516344989316 
2110	 0.156837570846179 
2111	 0.158111453876748 
2112	 0.159384115274844 
2113	 0.159812676902759 
2114	 0.160323590719856 
2115	 0.160977155409385 
2116	 0.161650085862237 
2117	 0.162401535231472 
2118	 0.163244612451896 
2119	 0.164102926467895 
2120	 0.165023798144824 
2121	 0.166005835091489 
2122	 0.166823450693415 
2123	 0.167991229628593 
2124	 0.1689273875657 
2125	 0.169540767095001 
2126	 0.170181072068735 
2127	 0.170835738412687 
2128	 0.171564488318557 
2129	 0.172224828973607 
2130	 0.17304836178718 
2131	 0.173925707349931 
2132	 0.174519670026561 
2133	 0.175572810947874 
2134	 0.176305651230098 
2135	 0.176877920804732 
2136	 0.177286496013965 
2137	 0.178200467084538 
2138	 0.178807300878018 
2139	 0.179624803861337 
2140	 0.180972918381611 
2141	 0.182057483942194 
2142	 0.182632087743154 
2143	 0.183418097418424 
2144	 0.184184749063548 
2145	 0.184713278423603 
2146	 0.185415853652476 
2147	 0.185750901510967 
2148	 0.185764556760099 
2149	 0.185937363269758 
2150	 0.186069675385893 
2151	 0.186436476868349 
2152	 0.187239259874445 
2153	 0.187878170387134 
2154	 0.188554163963608 
2155	 0.189191588124468 
2156	 0.189663136036077 
2157	 0.190021226706473 
2158	 0.190132598112218 
2159	 0.190559277588378 
2160	 0.191671995986916 
2161	 0.192095137294571 
2162	 0.192957534447499 
2163	 0.194060218112657 
2164	 0.194326807500625 
2165	 0.194691392011495 
2166	 0.194999513662828 
2167	 0.195531877869909 
2168	 0.196106295681838 
2169	 0.196858032058406 
2170	 0.197474512065252 
2171	 0.19829231611851 
2172	 0.198558248464693 
2173	 0.198675136451488 
2174	 0.198913435538125 
2175	 0.199134260474899 
2176	 0.199568001166589 
2177	 0.199956948166561 
2178	 0.200490293668284 
2179	 0.201131210034717 
2180	 0.201478211223743 
2181	 0.201935032647725 
2182	 0.202302569566145 
2183	 0.202780403513193 
2184	 0.203258373210799 
2185	 0.203477861711432 
2186	 0.204178024632672 
2187	 0.204868383162436 
2188	 0.205627548277048 
2189	 0.206416436338982 
2190	 0.207393850541125 
2191	 0.208186407991092 
2192	 0.208823398776051 
2193	 0.208947381097353 
2194	 0.209035060578657 
2195	 0.208803715496092 
2196	 0.208510089303853 
2197	 0.20865732481763 
2198	 0.20902699552852 
2199	 0.209736994415917 
2200	 0.210576015006404 
2201	 0.2111386189558 
2202	 0.211492046706326 
2203	 0.211563827850284 
2204	 0.211409015571719 
2205	 0.211704152690213 
2206	 0.212034085983324 
2207	 0.212755046490372 
2208	 0.213282659701602 
2209	 0.213778881933904 
2210	 0.213974942071105 
2211	 0.21420167900232 
2212	 0.213862061301465 
2213	 0.213243004913464 
2214	 0.213279555594509 
2215	 0.213118107825548 
2216	 0.213147396438276 
2217	 0.213437484559808 
2218	 0.213798353096411 
2219	 0.214120436379142 
2220	 0.214350413206613 
2221	 0.214150842677466 
2222	 0.213763114587573 
2223	 0.213111732848981 
2224	 0.212148819467833 
2225	 0.211743213800702 
2226	 0.211884183872286 
2227	 0.21207447931281 
2228	 0.211808755753178 
2229	 0.211080040547646 
2230	 0.209978988313818 
2231	 0.20933922798171 
2232	 0.208727629311957 
2233	 0.208548355676571 
2234	 0.209084648338419 
2235	 0.209169232635704 
2236	 0.208288520336351 
2237	 0.207553176334209 
2238	 0.206365165471445 
2239	 0.204807143017365 
2240	 0.204101518157526 
2241	 0.203234707663504 
2242	 0.202159434362727 
2243	 0.20188609290062 
2244	 0.201239641950215 
2245	 0.200290620812903 
2246	 0.199434079695886 
2247	 0.198480686443379 
2248	 0.198099892197389 
2249	 0.19773524960262 
2250	 0.196993540013258 
2251	 0.19593949510389 
2252	 0.194649631992987 
2253	 0.193233662173231 
2254	 0.191663422227092 
2255	 0.190263149166059 
2256	 0.189511718964786 
2257	 0.189098160784502 
2258	 0.188884483684765 
2259	 0.188463814686298 
2260	 0.187841392725529 
2261	 0.186277444696067 
2262	 0.184768926049275 
2263	 0.1838765382531 
2264	 0.182657960209087 
2265	 0.181727273810219 
2266	 0.18050084057845 
2267	 0.17904755222913 
2268	 0.178398468822005 
2269	 0.177947320714602 
2270	 0.176867243078837 
2271	 0.175463206329394 
2272	 0.174940186114964 
2273	 0.17403513970753 
2274	 0.173232460113885 
2275	 0.173118286479029 
2276	 0.17197408311303 
2277	 0.170841329362854 
2278	 0.169529134190044 
2279	 0.167944176839949 
2280	 0.167022059724417 
2281	 0.166312068757712 
2282	 0.165571799174481 
2283	 0.164776063168937 
2284	 0.16475077567814 
2285	 0.164308171317252 
2286	 0.16333220091319 
2287	 0.162062691387005 
2288	 0.161401455541969 
2289	 0.160023648934976 
2290	 0.15876317060889 
2291	 0.158196990589729 
2292	 0.157563529306419 
2293	 0.156575113754825 
2294	 0.155988643691567 
2295	 0.155893153950872 
2296	 0.155153500075931 
2297	 0.154505368613933 
2298	 0.153831015913217 
2299	 0.152415593417488 
2300	 0.151224660397011 
2301	 0.149772575915679 
2302	 0.147792827086047 
2303	 0.146559286960626 
2304	 0.146584389732951 
2305	 0.147477773385679 
2306	 0.147542604760714 
2307	 0.146548305680421 
2308	 0.145556433032803 
2309	 0.144401782500956 
2310	 0.143279144153733 
2311	 0.143408700049581 
2312	 0.143313515938433 
2313	 0.142607764587879 
2314	 0.142323933258001 
2315	 0.141313858532231 
2316	 0.141152986816193 
2317	 0.141090702607432 
2318	 0.14022053240472 
2319	 0.139376888553164 
2320	 0.138229500620425 
2321	 0.137804587295508 
2322	 0.138011022774193 
2323	 0.137439827692707 
2324	 0.13731609992389 
2325	 0.136413175641506 
2326	 0.134937716177572 
2327	 0.134344203359292 
2328	 0.133711253445267 
2329	 0.132916363097266 
2330	 0.132127143356679 
2331	 0.131106451635961 
2332	 0.130329652292555 
2333	 0.131559357586856 
2334	 0.132089879680766 
2335	 0.131153950929277 
2336	 0.131511779057699 
2337	 0.130289551338719 
2338	 0.128382151119871 
2339	 0.127452275103721 
2340	 0.125983265299824 
2341	 0.124846148238126 
2342	 0.124400263886301 
2343	 0.12430334424187 
2344	 0.124573350882791 
2345	 0.123488519706749 
2346	 0.120542422553183 
2347	 0.118570061199812 
2348	 0.116713737003707 
2349	 0.116951161548761 
2350	 0.11981674635329 
2351	 0.119571469201215 
2352	 0.118578802232141 
2353	 0.116670266041691 
2354	 0.114072290619267 
2355	 0.114654312351822 
2356	 0.113919024004673 
2357	 0.111940189267177 
2358	 0.110597077531462 
2359	 0.108929486316419 
2360	 0.107591664515253 
2361	 0.107984592298449 
2362	 0.109070641047077 
2363	 0.107041661819142 
2364	 0.104959985145129 
2365	 0.104984210039841 
2366	 0.104191745093087 
2367	 0.104176856556549 
2368	 0.107274190558921 
2369	 0.108741267543286 
2370	 0.106617481127206 
2371	 0.106125228833615 
2372	 0.105300099239964 
2373	 0.102194125662686 
2374	 0.100467585156581 
2375	 0.100837328587248 
2376	 9.85502958138261E-02 
2377	 9.38760390827073E-02 
2378	 9.23312286215645E-02 
2379	 9.17974511368875E-02 
2380	 9.15146647776932E-02 
2381	 9.36183415933411E-02 
2382	 0.093498184582979 
2383	 9.15271482298372E-02 
2384	 9.05872173279594E-02 
2385	 0.089925421880209 
2386	 8.92713981761471E-02 
2387	 8.90445160082304E-02 
2388	 8.88128297959731E-02 
2389	 8.74599131978426E-02 
2390	 8.72208665877893E-02 
2391	 8.82759216477505E-02 
2392	 8.78062503301595E-02 
2393	 0.088096557965456 
2394	 8.71083148877514E-02 
2395	 8.44523122502415E-02 
2396	 8.26866777158078E-02 
2397	 7.97899548770766E-02 
2398	 7.85768899300916E-02 
2399	 7.83237887220163E-02 
2400	 7.79414082375764E-02 
2401	 7.84628800213831E-02 
2402	 7.91592885920093E-02 
2403	 7.81766235077942E-02 
2404	 7.70180779672531E-02 
2405	 7.58695336365185E-02 
2406	 7.63701501041282E-02 
2407	 7.95724142607924E-02 
2408	 0.079799265473947 
2409	 7.76581970107398E-02 
2410	 0.073605053084294 
2411	 6.65980116728562E-02 
2412	 6.31438734751939E-02 
2413	 6.24020128231045E-02 
2414	 6.46348191952505E-02 
2415	 6.83714783582682E-02 
2416	 6.92094561124787E-02 
2417	 7.13344765653243E-02 
2418	 7.07768691282229E-02 
2419	 6.62921121570366E-02 
2420	 6.40240730406316E-02 
2421	 6.25073913392242E-02 
2422	 5.94287919757593E-02 
2423	 5.98193900537745E-02 
2424	 6.36324037287604E-02 
2425	 6.65477359979693E-02 
2426	 0.070735633617998 
2427	 7.31434008733522E-02 
2428	 6.91673214337184E-02 
2429	 6.51410685002646E-02 
2430	 6.02015052821079E-02 
2431	 5.33693558679165E-02 
2432	 5.21506077559608E-02 
2433	 4.84526853219643E-02 
2434	 4.64686549741101E-02 
2435	 4.75250172991174E-02 
2436	 4.69154984679874E-02 
2437	 4.56418328334993E-02 
2438	 4.62234068127845E-02 
2439	 4.98874294651021E-02 
2440	 5.06105673404154E-02 
2441	 5.07377679145689E-02 
2442	 5.19067368843391E-02 
2443	 5.06829071401108E-02 
2444	 4.75277875721973E-02 
2445	 0.041269853231975 
2446	 4.10122345311486E-02 
2447	 4.22963517951653E-02 
2448	 4.45112512583468E-02 
2449	 5.88381923978575E-02 
2450	 6.34874730242412E-02 
2451	 5.69513411262974E-02 
2452	 5.86408986149178E-02 
2453	 6.41392044064866E-02 
2454	 6.16537482491306E-02 
2455	 5.77320016235819E-02 
2456	 5.55572146519437E-02 
2457	 4.96815053728954E-02 
2458	 0.042683881666685 
2459	 3.39562455216361E-02 
2460	 3.58949243665603E-02 
2461	 3.88308903883305E-02 
2462	 4.03553358395592E-02 
2463	 5.96710504410823E-02 
2464	 5.94394555298343E-02 
2465	 0.038000032000299 
2466	 3.30544230153478E-02 
2467	 2.63765400132241E-02 
2468	 2.42699670053902E-02 
2469	 3.78444872052784E-02 
2470	 3.98514622617022E-02 
2471	 3.50446098143586E-02 
2472	 3.12185109990235E-02 
2473	 1.74545934066203E-02 
2474	 1.76672219129357E-02 
2475	 3.21360231849929E-02 
2476	 3.49926001049809E-02 
2477	 3.86462204247994E-02 
2478	 4.23343590995352E-02 
2479	 3.91006264498818E-02 
2480	 3.31076758820244E-02 
2481	 3.35100606080715E-02 
2482	 3.19119183307343E-02 
2483	 5.15719006692453E-03 
2484	 1.34313830313065E-02 
2485	 6.07903939477927E-02 
2486	 9.07180165602797E-02 
2487	 0.12057664899416 
2488	 0.111354219594014 
2489	 5.18467629685299E-02 
2490	 3.51904561356173E-02 
2491	 1.40137834294255E-02 
2492	 6.22451929851075E-03 
2493	 6.27188870922203E-02 
2494	 4.22411787269898E-02 
2495	 1.31788009755026E-02 
2496	 4.14196045366942E-03 
2497	-1.62309164333617E-02 
2498	 3.59625228173931E-02 
2499	 3.39778027309714E-02 
2500	 5.30925855017874E-03 
