Wavelength	ref00029.asd
350	 1.77214522652959E-02 
351	 1.74754281441699E-02 
352	 1.74449225824949E-02 
353	 1.76325589015749E-02 
354	 1.78556700674194E-02 
355	 0.017646004290621 
356	 1.70578966514843E-02 
357	 1.72882352522574E-02 
358	 1.73992765450976E-02 
359	 1.70794024911175E-02 
360	 0.016466572104941 
361	 1.66144758420936E-02 
362	 1.67121357411033E-02 
363	 1.65786122850826E-02 
364	 1.64803536543228E-02 
365	 1.61680419526722E-02 
366	 1.61556038768472E-02 
367	 1.64017664765432E-02 
368	 1.59867679997346E-02 
369	 1.61837375275323E-02 
370	 1.63116117710628E-02 
371	 1.58097619465124E-02 
372	 1.59510024317931E-02 
373	 1.61201097665746E-02 
374	 1.59960476632088E-02 
375	 1.55539806640704E-02 
376	 1.56621850418563E-02 
377	 1.56973106643721E-02 
378	 1.55551396312179E-02 
379	 1.58934749758781E-02 
380	 1.58787486233723E-02 
381	 1.57169745148835E-02 
382	 1.57116814700463E-02 
383	 1.57643475314398E-02 
384	 1.61179326684231E-02 
385	 1.63528833859782E-02 
386	 1.59740716027189E-02 
387	 1.60134749227047E-02 
388	 1.62136230138341E-02 
389	 1.62435465244123E-02 
390	 1.58611374484467E-02 
391	 1.60283462056027E-02 
392	 1.61544865266543E-02 
393	 1.59096231007394E-02 
394	 1.62171955944746E-02 
395	 1.65363527602898E-02 
396	 1.67333280671914E-02 
397	 1.68015478174316E-02 
398	 1.66098184400858E-02 
399	 0.016440400155551 
400	 1.64933842429727E-02 
401	 1.68296196046589E-02 
402	 0.016839670750419 
403	 1.68600165094508E-02 
404	 1.71056875182358E-02 
405	 1.72512997365182E-02 
406	 1.74901811207557E-02 
407	 1.77141440312686E-02 
408	 1.77993181001395E-02 
409	 1.80756148066701E-02 
410	 1.83161892394371E-02 
411	 1.84611203704601E-02 
412	 1.86268539634588E-02 
413	 1.89453172583704E-02 
414	 1.92314326177523E-02 
415	 1.93763986479289E-02 
416	 1.95242827568674E-02 
417	 1.97446567911531E-02 
418	 1.99942627165434E-02 
419	 2.01876418746257E-02 
420	 2.02521359691607E-02 
421	 2.05144667673481E-02 
422	 2.09001806724437E-02 
423	 2.09993186709063E-02 
424	 2.11115155924715E-02 
425	 2.12273270311132E-02 
426	 2.13381025581184E-02 
427	 2.15467988963845E-02 
428	 2.18372848497978E-02 
429	 2.20079910181129E-02 
430	 2.19174470560803E-02 
431	 2.20486313879037E-02 
432	 2.22032461807394E-02 
433	 2.22855694638233E-02 
434	 2.23229530212993E-02 
435	 2.22499260895532E-02 
436	 2.23214015729794E-02 
437	 2.25837019949792E-02 
438	 2.25609738258243E-02 
439	 2.25216083588724E-02 
440	 0.022525173056382 
441	 2.25568903156377E-02 
442	 2.25933941576396E-02 
443	 2.26373988373269E-02 
444	 2.27052440812438E-02 
445	 2.28189357302201E-02 
446	 2.28535739801315E-02 
447	 0.022835959082837 
448	 2.28194362229057E-02 
449	 2.28462577670308E-02 
450	 2.28840246565269E-02 
451	 2.29196253549793E-02 
452	 2.29563237065308E-02 
453	 2.30551612368354E-02 
454	 2.31050190084357E-02 
455	 2.31008983255752E-02 
456	 2.31733821812655E-02 
457	 2.32298332532381E-02 
458	 2.32088348838883E-02 
459	 2.31154408457276E-02 
460	 2.31162725412518E-02 
461	 2.31669586227371E-02 
462	 2.31978908304544E-02 
463	 2.31427806288228E-02 
464	 2.30948651147363E-02 
465	 2.31321279782361E-02 
466	 0.023230372529063 
467	 2.32210582208641E-02 
468	 2.31983472962204E-02 
469	 2.31710923975756E-02 
470	 2.31276739878358E-02 
471	 2.30498969296227E-02 
472	 2.30676902899637E-02 
473	 0.023158004844559 
474	 0.023192247111248 
475	 2.32077691681204E-02 
476	 2.31722660714347E-02 
477	 2.31054461176991E-02 
478	 2.31417929638722E-02 
479	 0.023142537945352 
480	 2.31263605102833E-02 
481	 2.31408051499106E-02 
482	 2.30839373825973E-02 
483	 2.30903112615502E-02 
484	 2.31791038466366E-02 
485	 2.32467922188265E-02 
486	 2.33504541661388E-02 
487	 2.33836264171734E-02 
488	 2.33213443522146E-02 
489	 2.34289222067551E-02 
490	 2.34751964425982E-02 
491	 2.34929476908365E-02 
492	 2.35951077366384E-02 
493	 2.36137955310825E-02 
494	 2.37224541577102E-02 
495	 2.39427926140031E-02 
496	 2.40822421031851E-02 
497	 2.41753579885574E-02 
498	 2.43385046296316E-02 
499	 2.46311967326508E-02 
500	 2.48473857120663E-02 
501	 2.50925853247151E-02 
502	 2.54119643261252E-02 
503	 0.02579549109285 
504	 2.60989340594284E-02 
505	 2.64364031755241E-02 
506	 2.68896132427954E-02 
507	 2.74363872490947E-02 
508	 2.80547168659107E-02 
509	 2.86658070138467E-02 
510	 2.92411899836933E-02 
511	 3.00303414045697E-02 
512	 3.09218384652814E-02 
513	 3.18409686825912E-02 
514	 3.27655059909248E-02 
515	 3.37831426503734E-02 
516	 3.49941816007493E-02 
517	 0.036378360925913 
518	 3.76347492215208E-02 
519	 3.90768143511028E-02 
520	 4.06091153330376E-02 
521	 4.20138608716458E-02 
522	 4.33512794011872E-02 
523	 0.044755874374292 
524	 0.04624920509515 
525	 0.04770451823854 
526	 4.90946212694738E-02 
527	 5.05233080149819E-02 
528	 0.052030797608673 
529	 5.33765290852174E-02 
530	 5.45105158402811E-02 
531	 5.55029093923911E-02 
532	 5.64917847960756E-02 
533	 5.74878759888604E-02 
534	 5.84009588968523E-02 
535	 5.91772748413542E-02 
536	 5.98516416096119E-02 
537	 6.04174505888287E-02 
538	 6.08606719831239E-02 
539	 6.12160570721018E-02 
540	 0.061747998789454 
541	 6.22511958872661E-02 
542	 6.26163810613146E-02 
543	 6.28508935542479E-02 
544	 6.31563664744939E-02 
545	 6.35233303819829E-02 
546	 6.38872972973415E-02 
547	 6.41407502366797E-02 
548	 6.44404395777856E-02 
549	 0.064760769239889 
550	 6.50034137099759E-02 
551	 0.065147191458689 
552	 6.52434612237847E-02 
553	 6.52812777863029E-02 
554	 6.51692301770568E-02 
555	 6.50261569555517E-02 
556	 6.48355651337225E-02 
557	 0.064546919628805 
558	 6.41226677192366E-02 
559	 6.35671808409483E-02 
560	 6.29059639305032E-02 
561	 6.21759319277929E-02 
562	 6.14089351257128E-02 
563	 6.05352075463463E-02 
564	 5.95505525560102E-02 
565	 0.058597341865889 
566	 5.76088489379158E-02 
567	 5.65988295160588E-02 
568	 5.55895433192011E-02 
569	 0.054526657547882 
570	 5.34334384457665E-02 
571	 5.23788280094248E-02 
572	 5.14546205139791E-02 
573	 5.04995886782456E-02 
574	 4.96930506134679E-02 
575	 4.91012418111359E-02 
576	 0.048371296070668 
577	 4.76251581791372E-02 
578	 4.69517435884212E-02 
579	 4.64087296464697E-02 
580	 4.59121474435762E-02 
581	 4.54077097219915E-02 
582	 4.48993925734212E-02 
583	 4.44608481930059E-02 
584	 4.40514932440721E-02 
585	 4.36693444404639E-02 
586	 4.33163760919977E-02 
587	 4.29606869673622E-02 
588	 4.26773673090194E-02 
589	 4.24421222324453E-02 
590	 0.042164233686492 
591	 0.041851335950483 
592	 4.16644953694147E-02 
593	 0.041613933208729 
594	 4.14189832492174E-02 
595	 4.12988344090776E-02 
596	 4.12104651229266E-02 
597	 4.10643085578647E-02 
598	 4.10090911725536E-02 
599	 4.09041337502678E-02 
600	 4.07536256732436E-02 
601	 4.07112161643792E-02 
602	 4.06534809813692E-02 
603	 4.05410777805497E-02 
604	 4.03690099338172E-02 
605	 4.01629351723504E-02 
606	 3.99805207807361E-02 
607	 3.97810301042612E-02 
608	 0.039496531234295 
609	 3.92604135580028E-02 
610	 0.039058741361613 
611	 3.88505871616805E-02 
612	 3.85793184089158E-02 
613	 3.82376148802292E-02 
614	 3.79271238639033E-02 
615	 3.77125177193436E-02 
616	 3.73963769396871E-02 
617	 3.71251462819272E-02 
618	 3.69111871490976E-02 
619	 0.036671765332784 
620	 3.64822500529062E-02 
621	 3.63356663663823E-02 
622	 3.62091605499109E-02 
623	 3.60658723366684E-02 
624	 3.59910616435225E-02 
625	 3.59585103558844E-02 
626	 3.59157107383735E-02 
627	 3.59091176379975E-02 
628	 3.59194198124368E-02 
629	 3.59182234963046E-02 
630	 3.58739538554156E-02 
631	 0.035816180373033 
632	 3.57563497876076E-02 
633	 3.56784116790578E-02 
634	 3.55093611899431E-02 
635	 3.52619366189292E-02 
636	 3.49511045631895E-02 
637	 3.46036893811448E-02 
638	 3.42830900347977E-02 
639	 3.38923899309726E-02 
640	 3.33924260516138E-02 
641	 3.28480314140216E-02 
642	 0.032431526690291 
643	 3.20293548214261E-02 
644	 3.15460820473945E-02 
645	 3.12354336792105E-02 
646	 3.08305723577375E-02 
647	 3.03845220631913E-02 
648	 3.01303403655078E-02 
649	 2.99590208821329E-02 
650	 2.97945321192303E-02 
651	 2.96276618784377E-02 
652	 2.95421033352806E-02 
653	 2.94932592396419E-02 
654	 2.94463749950117E-02 
655	 2.93848113033194E-02 
656	 2.93733817695362E-02 
657	 2.93493625574114E-02 
658	 2.92565467134647E-02 
659	 2.90677995609625E-02 
660	 2.89414428078995E-02 
661	 2.87736556986201E-02 
662	 2.85418979634117E-02 
663	 2.84371152833567E-02 
664	 0.028393559403684 
665	 2.83007248456778E-02 
666	 2.80964473902828E-02 
667	 2.80480815454681E-02 
668	 2.80214626109054E-02 
669	 2.80189741865549E-02 
670	 2.81618078575004E-02 
671	 2.81172832241745E-02 
672	 0.028128384852564 
673	 2.83278824475676E-02 
674	 2.83236794024344E-02 
675	 2.85213159450447E-02 
676	 2.88088339124561E-02 
677	 0.028935329619587 
678	 2.90996231757102E-02 
679	 2.94550120935192E-02 
680	 2.98976922299773E-02 
681	 3.00859324507388E-02 
682	 3.04624933336375E-02 
683	 3.10200972100885E-02 
684	 3.16694177932518E-02 
685	 3.23474177744954E-02 
686	 3.31955737484261E-02 
687	 0.034321836541824 
688	 3.56625638739142E-02 
689	 0.036909211802809 
690	 3.83950338749835E-02 
691	 4.03044490253917E-02 
692	 4.25062819812848E-02 
693	 4.53203999672167E-02 
694	 4.87017438596635E-02 
695	 5.25747485111846E-02 
696	 5.70710175035877E-02 
697	 0.062077122557492 
698	 6.75924654822034E-02 
699	 7.36461422587443E-02 
700	 8.02955545758404E-02 
701	 8.74857449457035E-02 
702	 9.50470029061322E-02 
703	 0.102674924416921 
704	 0.11058291391641 
705	 0.1186285509949 
706	 0.126805198818434 
707	 0.135437186965128 
708	 0.144238633564072 
709	 0.153170857031985 
710	 0.162258581702783 
711	 0.171635274649324 
712	 0.18116989958709 
713	 0.190802407595165 
714	 0.200584794201682 
715	 0.210578694643974 
716	 0.220533839749913 
717	 0.230569699140374 
718	 0.241035501432283 
719	 0.25206948978436 
720	 0.263354527658042 
721	 0.274421999515716 
722	 0.284719367587946 
723	 0.294815461869084 
724	 0.305346951140878 
725	 0.315697784612895 
726	 0.325982554887722 
727	 0.335942669176888 
728	 0.345658327452092 
729	 0.355313237373413 
730	 0.364391351414313 
731	 0.373053800975917 
732	 0.381653350922755 
733	 0.389608823145071 
734	 0.397217222909214 
735	 0.404559915179256 
736	 0.411311861676012 
737	 0.41778196412075 
738	 0.423875711629221 
739	 0.429609327540722 
740	 0.435105981880346 
741	 0.440182997752786 
742	 0.444782823493539 
743	 0.448911263663919 
744	 0.452804076103784 
745	 0.456301454330861 
746	 0.459445155931405 
747	 0.462411915255696 
748	 0.465038388820783 
749	 0.467450985890869 
750	 0.469698948395466 
751	 0.471640352454365 
752	 0.47342471182583 
753	 0.474998623835229 
754	 0.476325171407804 
755	 0.477630989807409 
756	 0.478695960588907 
757	 0.479535752906376 
758	 0.480486209418934 
759	 0.483284269377946 
760	 0.487241049373384 
761	 0.490518769832419 
762	 0.490132562471443 
763	 0.489592963988552 
764	 0.489101703221913 
765	 0.488275467188663 
766	 0.487241268877618 
767	 0.486475028685694 
768	 0.486147104456779 
769	 0.486247855765994 
770	 0.486326790162384 
771	 0.486447582831796 
772	 0.48659405917321 
773	 0.48667333532769 
774	 0.486727886535804 
775	 0.486837757043992 
776	 0.487007931097651 
777	 0.487107114695725 
778	 0.487311421354524 
779	 0.487505211469364 
780	 0.487570671344984 
781	 0.487680249176889 
782	 0.487773905670677 
783	 0.487884881161984 
784	 0.488071120647446 
785	 0.488222987563786 
786	 0.488245730604881 
787	 0.488163567137237 
788	 0.488124458054365 
789	 0.488243860156212 
790	 0.488368514265561 
791	 0.488434452844118 
792	 0.488681144218901 
793	 0.488982904453521 
794	 0.489204193054342 
795	 0.489263582984942 
796	 0.489296486433336 
797	 0.489330801582941 
798	 0.489459256800191 
799	 0.489757007260889 
800	 0.489926962794333 
801	 0.489974221962148 
802	 0.489997292100334 
803	 0.490152701894833 
804	 0.490373862021703 
805	 0.490574186345426 
806	 0.490711085861279 
807	 0.490850404500782 
808	 0.490866533775935 
809	 0.490821593683881 
810	 0.490754250765856 
811	 0.490351124890758 
812	 0.489998435846623 
813	 0.489720313643141 
814	 0.489335331392448 
815	 0.488890299884984 
816	 0.488729065546857 
817	 0.488966633613205 
818	 0.489392657724596 
819	 0.489578652990933 
820	 0.489745407758561 
821	 0.490040592478501 
822	 0.490289924067647 
823	 0.490404312401509 
824	 0.490434177740676 
825	 0.490557088061678 
826	 0.491226062975554 
827	 0.49146545247107 
828	 0.491332556074174 
829	 0.491295990848792 
830	 0.491356657931984 
831	 0.491573901861857 
832	 0.491867750403146 
833	 0.492093775395079 
834	 0.492495643387253 
835	 0.492805060813909 
836	 0.492996413099947 
837	 0.493378776753444 
838	 0.493723209854451 
839	 0.49402086092246 
840	 0.494297682640342 
841	 0.494571414908409 
842	 0.494685449099794 
843	 0.494875462224106 
844	 0.495281303827275 
845	 0.495334224072246 
846	 0.495519214333042 
847	 0.495795421383459 
848	 0.495935654395539 
849	 0.496093001960253 
850	 0.496350898934353 
851	 0.496553402476249 
852	 0.496481523457117 
853	 0.496902100101833 
854	 0.497410779866683 
855	 0.497570506701072 
856	 0.497175702302127 
857	 0.497264951724465 
858	 0.497551759660489 
859	 0.49775732461725 
860	 0.497980713289266 
861	 0.498182976931083 
862	 0.498312522176593 
863	 0.498371932010087 
864	 0.498479875844826 
865	 0.498879946195216 
866	 0.499174359327337 
867	 0.498999734323643 
868	 0.499088656798255 
869	 0.498835151229124 
870	 0.498671550793006 
871	 0.49919416221178 
872	 0.499215319645264 
873	 0.499336502075271 
874	 0.499664232622491 
875	 0.499861546987633 
876	 0.499556449374848 
877	 0.499524467267648 
878	 0.499840900469462 
879	 0.499817429628156 
880	 0.499706085389617 
881	 0.499787311313317 
882	 0.500022974114117 
883	 0.499960818856304 
884	 0.499766141681222 
885	 0.499757848459134 
886	 0.499910558533834 
887	 0.499541004080688 
888	 0.499302112373563 
889	 0.499204305196829 
890	 0.499101691737021 
891	 0.498899984704483 
892	 0.498786597410547 
893	 0.498438627903612 
894	 0.497647901447711 
895	 0.497218060522138 
896	 0.496520979979554 
897	 0.495988716853211 
898	 0.496173577116271 
899	 0.495975015781705 
900	 0.495665416844226 
901	 0.495521114345619 
902	 0.49564124417419 
903	 0.49534965008415 
904	 0.495389739175283 
905	 0.495619730892379 
906	 0.495465970825836 
907	 0.495772965631418 
908	 0.495476074088877 
909	 0.494682016677638 
910	 0.494434354008363 
911	 0.493660505926983 
912	 0.49327580559413 
913	 0.493524646180355 
914	 0.493791693504089 
915	 0.493829846764019 
916	 0.493804662370731 
917	 0.493784539447499 
918	 0.49366056935193 
919	 0.493484051017841 
920	 0.493352543977796 
921	 0.493439564439801 
922	 0.493889573436409 
923	 0.492783976947255 
924	 0.491806259816796 
925	 0.491633850883153 
926	 0.49038567780053 
927	 0.488205858511123 
928	 0.486218741338114 
929	 0.48505836805645 
930	 0.483897954349523 
931	 0.482075502234346 
932	 0.479919933176799 
933	 0.477835252306063 
934	 0.475550482521268 
935	 0.473316195736958 
936	 0.471744039351364 
937	 0.470962149373986 
938	 0.470148657569255 
939	 0.46941934810529 
940	 0.468853428954656 
941	 0.46856281367381 
942	 0.46871870071366 
943	 0.468079868365624 
944	 0.466902632264584 
945	 0.4655469333019 
946	 0.463694159633094 
947	 0.462907801037332 
948	 0.461998465146411 
949	 0.460159895035669 
950	 0.458927736149316 
951	 0.457543152971274 
952	 0.455823708165289 
953	 0.453950064265609 
954	 0.452483747075401 
955	 0.451893058940593 
956	 0.451041507769448 
957	 0.4495645206923 
958	 0.449332272978396 
959	 0.447962620095739 
960	 0.447492436078176 
961	 0.44881849170694 
962	 0.449015512093238 
963	 0.448955896251943 
964	 0.448534924646665 
965	 0.447963042720443 
966	 0.448158253398355 
967	 0.449102068578209 
968	 0.449729761999536 
969	 0.449675327030772 
970	 0.449947191113347 
971	 0.449673584144663 
972	 0.449973159485778 
973	 0.450874338147324 
974	 0.450494870258641 
975	 0.450387352000947 
976	 0.451266679827585 
977	 0.452254570605834 
978	 0.45114181678113 
979	 0.451642176637781 
980	 0.452075627453109 
981	 0.451877897455579 
982	 0.452494339296158 
983	 0.453275122805616 
984	 0.454212118968701 
985	 0.454650177669751 
986	 0.453832859056057 
987	 0.454997535644223 
988	 0.456133877944197 
989	 0.456595768396745 
990	 0.457188051980849 
991	 0.457620896344511 
992	 0.457925212919994 
993	 0.458647268474041 
994	 0.460114342919373 
995	 0.460237211811063 
996	 0.459915048833324 
997	 0.45946025892587 
998	 0.459254953913273 
999	 0.461536513158128 
1000	 0.462642901437836 
1001	 0.464715692484974 
1002	 0.46526436390272 
1003	 0.465911218983141 
1004	 0.466543775731762 
1005	 0.467208332583034 
1006	 0.46799746257068 
1007	 0.468714498330327 
1008	 0.469436765940723 
1009	 0.470148232708239 
1010	 0.470851327236807 
1011	 0.471542693460761 
1012	 0.472233630398656 
1013	 0.472818137943832 
1014	 0.473369400730903 
1015	 0.474068421826881 
1016	 0.474884663670556 
1017	 0.475674926217235 
1018	 0.476369422551347 
1019	 0.477043256342448 
1020	 0.477738806222067 
1021	 0.478321926726179 
1022	 0.478948928844268 
1023	 0.479637583286553 
1024	 0.480383452870811 
1025	 0.48097372849905 
1026	 0.481665737473159 
1027	 0.482472259802517 
1028	 0.483142463554287 
1029	 0.483656486479095 
1030	 0.484259045310612 
1031	 0.484782727496973 
1032	 0.485291197992435 
1033	 0.485871176416161 
1034	 0.486553715281225 
1035	 0.487108417197685 
1036	 0.487641439065003 
1037	 0.488168484080911 
1038	 0.488665055729888 
1039	 0.489191650622772 
1040	 0.489563840929355 
1041	 0.489924160224794 
1042	 0.490396988694317 
1043	 0.490790578174824 
1044	 0.49119115107648 
1045	 0.491719363759381 
1046	 0.492078160891255 
1047	 0.492390832502556 
1048	 0.492768158696601 
1049	 0.493144284301707 
1050	 0.493556915301216 
1051	 0.493986143107407 
1052	 0.494407170334191 
1053	 0.494890532372896 
1054	 0.495253377741458 
1055	 0.495454637041592 
1056	 0.495683762729974 
1057	 0.495949341878294 
1058	 0.496169613596173 
1059	 0.496356422769173 
1060	 0.496635151136608 
1061	 0.496845129537166 
1062	 0.49703409978875 
1063	 0.497342169418773 
1064	 0.497470330674375 
1065	 0.497534762311159 
1066	 0.497464338446079 
1067	 0.497543293686541 
1068	 0.497611635654586 
1069	 0.49775741951866 
1070	 0.49809276874881 
1071	 0.498174928980583 
1072	 0.498046655693785 
1073	 0.497972209372919 
1074	 0.497852405584251 
1075	 0.497789629131359 
1076	 0.497857409394228 
1077	 0.497834277865236 
1078	 0.497654082980139 
1079	 0.497460886293213 
1080	 0.497210780793013 
1081	 0.497034485825013 
1082	 0.496880678310448 
1083	 0.496843427842424 
1084	 0.496685304434499 
1085	 0.496538645209898 
1086	 0.496309714690275 
1087	 0.495972510735961 
1088	 0.495683543552251 
1089	 0.495325239321213 
1090	 0.495000682958011 
1091	 0.49470971546115 
1092	 0.494372733476942 
1093	 0.493944397448941 
1094	 0.493496899903078 
1095	 0.492960663371876 
1096	 0.492357522454138 
1097	 0.491647152025271 
1098	 0.491067197200149 
1099	 0.490492052425923 
1100	 0.489844010356537 
1101	 0.489306861386579 
1102	 0.488720322565849 
1103	 0.48807367747051 
1104	 0.487352349662931 
1105	 0.486510581819096 
1106	 0.485652658058386 
1107	 0.484712438095657 
1108	 0.48362052341967 
1109	 0.482631755963359 
1110	 0.481633149363731 
1111	 0.480511341375934 
1112	 0.47926458525957 
1113	 0.47800857893862 
1114	 0.47660817077367 
1115	 0.475084401041531 
1116	 0.473461126304154 
1117	 0.471678363866328 
1118	 0.469700252650716 
1119	 0.467774311660832 
1120	 0.46590154490522 
1121	 0.46412033491296 
1122	 0.462515904985631 
1123	 0.461030396168628 
1124	 0.459527768950995 
1125	 0.458045582199376 
1126	 0.456617994532541 
1127	 0.455360460812824 
1128	 0.453945493946986 
1129	 0.452779970291583 
1130	 0.4512760122315 
1131	 0.449773170406437 
1132	 0.447922381379402 
1133	 0.445837445635689 
1134	 0.443662813097287 
1135	 0.441416402044091 
1136	 0.439216719124848 
1137	 0.437009565849984 
1138	 0.434510053756683 
1139	 0.431905689922749 
1140	 0.429001955514268 
1141	 0.425826820044903 
1142	 0.422862154199573 
1143	 0.419912168005117 
1144	 0.416911486554734 
1145	 0.413905319569202 
1146	 0.410807978461774 
1147	 0.408026874320761 
1148	 0.405260361409034 
1149	 0.402915550934659 
1150	 0.400978182924666 
1151	 0.399356932710849 
1152	 0.39809261932466 
1153	 0.396983258788484 
1154	 0.396121436425887 
1155	 0.395466812781377 
1156	 0.394958782393697 
1157	 0.394554333821095 
1158	 0.394326253132072 
1159	 0.394157026076659 
1160	 0.393984151972287 
1161	 0.393847948595693 
1162	 0.393711874955009 
1163	 0.393591418535626 
1164	 0.39347063519108 
1165	 0.393367129318263 
1166	 0.393231029978319 
1167	 0.393033141451758 
1168	 0.392933686148478 
1169	 0.392896955696797 
1170	 0.392808858223606 
1171	 0.392690603203599 
1172	 0.392598099921278 
1173	 0.392460171733666 
1174	 0.392227910688255 
1175	 0.392046516696233 
1176	 0.391859699202985 
1177	 0.391682083522897 
1178	 0.391495096404493 
1179	 0.391295608371088 
1180	 0.391095307352614 
1181	 0.390921571775061 
1182	 0.390730341209896 
1183	 0.390525218053848 
1184	 0.39035668968461 
1185	 0.39017775481251 
1186	 0.389939364139476 
1187	 0.389763798647999 
1188	 0.389627073766601 
1189	 0.389505664071164 
1190	 0.389415777244102 
1191	 0.389306004606818 
1192	 0.3891906594892 
1193	 0.389114257092175 
1194	 0.389062884085642 
1195	 0.388986948313869 
1196	 0.389014959895866 
1197	 0.38914587638519 
1198	 0.389231266435191 
1199	 0.389337554609848 
1200	 0.389482016013731 
1201	 0.389621665246118 
1202	 0.389789438004021 
1203	 0.389993378168187 
1204	 0.390247615120501 
1205	 0.390539761313423 
1206	 0.390818741222869 
1207	 0.391139878511634 
1208	 0.391462375110439 
1209	 0.391747328268627 
1210	 0.392079317197111 
1211	 0.392450947723764 
1212	 0.392876778448872 
1213	 0.393293792217973 
1214	 0.393755198807147 
1215	 0.39414519249419 
1216	 0.3944918745815 
1217	 0.394903112502109 
1218	 0.395301266558063 
1219	 0.395739914614104 
1220	 0.39627640121188 
1221	 0.396730727492534 
1222	 0.397176591677564 
1223	 0.397567445231209 
1224	 0.397864528356106 
1225	 0.398242431677462 
1226	 0.398598267655392 
1227	 0.399006194357864 
1228	 0.399515710477649 
1229	 0.399980491556414 
1230	 0.400442921577758 
1231	 0.400897474806967 
1232	 0.401297323713998 
1233	 0.401635792639454 
1234	 0.402051855911645 
1235	 0.402472726445979 
1236	 0.402869058373439 
1237	 0.403331736481906 
1238	 0.403705007381883 
1239	 0.403985996561739 
1240	 0.4043215435431 
1241	 0.404660597134758 
1242	 0.404988663447996 
1243	 0.405315873233153 
1244	 0.405645062359355 
1245	 0.405977130096445 
1246	 0.406291021200714 
1247	 0.40665294990111 
1248	 0.406926253638419 
1249	 0.407069488605417 
1250	 0.407304393242833 
1251	 0.407548903940617 
1252	 0.407793134430269 
1253	 0.408033268185922 
1254	 0.408360537209091 
1255	 0.408577226903923 
1256	 0.408704008892691 
1257	 0.408877365553751 
1258	 0.409042180869492 
1259	 0.409216696500767 
1260	 0.409421360645447 
1261	 0.409564277396791 
1262	 0.409695324713837 
1263	 0.40979210610882 
1264	 0.409841107351345 
1265	 0.409864268881778 
1266	 0.409840239137975 
1267	 0.409828014606535 
1268	 0.409855096255866 
1269	 0.40976272015088 
1270	 0.409575246073166 
1271	 0.40942992428668 
1272	 0.409251005267833 
1273	 0.409004827431499 
1274	 0.408794045037829 
1275	 0.408665453960289 
1276	 0.408402806263007 
1277	 0.408042689720113 
1278	 0.407729521180513 
1279	 0.407417022512747 
1280	 0.40704195756079 
1281	 0.406672348061017 
1282	 0.406217168180648 
1283	 0.405679630427792 
1284	 0.405128723444049 
1285	 0.404525375230592 
1286	 0.403920370501008 
1287	 0.403285502953116 
1288	 0.402640680357128 
1289	 0.401998308287086 
1290	 0.401312630582975 
1291	 0.400667865021275 
1292	 0.399875223547792 
1293	 0.398937563631012 
1294	 0.398022651586501 
1295	 0.397038859366822 
1296	 0.395987493592738 
1297	 0.394953654904675 
1298	 0.393954438456255 
1299	 0.392858583363074 
1300	 0.391713965280323 
1301	 0.390483801787222 
1302	 0.389176229262615 
1303	 0.387847696090599 
1304	 0.386428741367546 
1305	 0.38500362471676 
1306	 0.383613509051486 
1307	 0.382064015917981 
1308	 0.380400232345135 
1309	 0.378705833448325 
1310	 0.376844247992427 
1311	 0.375070859708213 
1312	 0.373337304058623 
1313	 0.371537158453036 
1314	 0.369755387678358 
1315	 0.367913670595589 
1316	 0.366037716890536 
1317	 0.364085477687697 
1318	 0.36205347589577 
1319	 0.360013933112817 
1320	 0.357925318566519 
1321	 0.355740663595305 
1322	 0.353523999156228 
1323	 0.351242629284093 
1324	 0.348941477459713 
1325	 0.346498405195665 
1326	 0.344117231555287 
1327	 0.341721501835649 
1328	 0.339259433707664 
1329	 0.336743466431121 
1330	 0.334195170644851 
1331	 0.331547578394347 
1332	 0.32904462907091 
1333	 0.326650246216649 
1334	 0.324221014657131 
1335	 0.321798750263695 
1336	 0.319538506195878 
1337	 0.317201173063709 
1338	 0.315087190052668 
1339	 0.313221405368654 
1340	 0.31126156232371 
1341	 0.309130408709858 
1342	 0.307126432252429 
1343	 0.304945667967956 
1344	 0.302768423294108 
1345	 0.300457603499911 
1346	 0.298082478816478 
1347	 0.295514403771992 
1348	 0.292772346398013 
1349	 0.290141703909998 
1350	 0.287770203712183 
1351	 0.284839075328953 
1352	 0.282166017464568 
1353	 0.278920425921705 
1354	 0.276033749757444 
1355	 0.271684462454847 
1356	 0.268385109938631 
1357	 0.263147522939095 
1358	 0.258049195856815 
1359	 0.250561986844797 
1360	 0.249885459028185 
1361	 0.24480349349787 
1362	 0.246302064014709 
1363	 0.241491850527957 
1364	 0.237690074420786 
1365	 0.232929782597441 
1366	 0.231392928063085 
1367	 0.222677589172116 
1368	 0.214970597770027 
1369	 0.208622071184568 
1370	 0.195945771247996 
1371	 0.193439473087795 
1372	 0.197697604861155 
1373	 0.198690312769777 
1374	 0.203350438883568 
1375	 0.203642282983245 
1376	 0.199505384048119 
1377	 0.194263043918153 
1378	 0.191151089692904 
1379	 0.186960654189522 
1380	 0.182569238310396 
1381	 0.181301221132562 
1382	 0.174427498013688 
1383	 0.163964185134671 
1384	 0.155889145220747 
1385	 0.147042459325957 
1386	 0.140585259822658 
1387	 0.13567873271251 
1388	 0.132085143509131 
1389	 0.130326582507048 
1390	 0.127738365137186 
1391	 0.126374956144294 
1392	 0.123227153157835 
1393	 0.118323252821106 
1394	 0.114819652448449 
1395	 0.111289323885424 
1396	 0.108201719743022 
1397	 0.106597812333273 
1398	 0.103417390188312 
1399	 9.86118326122117E-02 
1400	 9.54440161857008E-02 
1401	 9.28336961720025E-02 
1402	 9.00423956061098E-02 
1403	 8.83715404203197E-02 
1404	 8.61686891656319E-02 
1405	 8.37422966100765E-02 
1406	 8.10506870955837E-02 
1407	 7.80104755189123E-02 
1408	 7.61796297499047E-02 
1409	 7.50154376288505E-02 
1410	 7.35251505050834E-02 
1411	 7.23939171079078E-02 
1412	 7.18846166723376E-02 
1413	 7.10242119357353E-02 
1414	 6.99161043274889E-02 
1415	 0.069154167576776 
1416	 0.068587641963719 
1417	 6.79461062496064E-02 
1418	 6.73220330549453E-02 
1419	 6.67056752026485E-02 
1420	 6.61626734829351E-02 
1421	 6.56003348546348E-02 
1422	 6.49524743785192E-02 
1423	 0.064434889859985 
1424	 6.38935482312829E-02 
1425	 6.35214531801461E-02 
1426	 6.32294444992274E-02 
1427	 6.30039461283591E-02 
1428	 6.29693567159582E-02 
1429	 6.27232099658101E-02 
1430	 6.24281283809787E-02 
1431	 6.21055062507769E-02 
1432	 6.15444902258842E-02 
1433	 6.12231540086977E-02 
1434	 6.10202321730114E-02 
1435	 6.08129690730076E-02 
1436	 6.07596528227888E-02 
1437	 6.06427072889758E-02 
1438	 6.04478573647532E-02 
1439	 6.03242119249366E-02 
1440	 0.060239023462846 
1441	 6.01445958554234E-02 
1442	 0.059960477389766 
1443	 5.99858016643533E-02 
1444	 6.02355156390284E-02 
1445	 6.02677211028872E-02 
1446	 6.02464549801339E-02 
1447	 6.03072465455494E-02 
1448	 6.03328795836855E-02 
1449	 6.02086130733451E-02 
1450	 6.02638350302173E-02 
1451	 6.04278393234682E-02 
1452	 6.05678893104826E-02 
1453	 6.07010962029478E-02 
1454	 0.060852544014665 
1455	 6.10465592333375E-02 
1456	 6.12338192092249E-02 
1457	 6.14796667458766E-02 
1458	 6.15905080999464E-02 
1459	 6.16567481221091E-02 
1460	 6.17464827002583E-02 
1461	 6.16944379696199E-02 
1462	 6.18206592911236E-02 
1463	 6.20547181581116E-02 
1464	 6.23485939321364E-02 
1465	 6.28002562411586E-02 
1466	 6.31801670510078E-02 
1467	 6.35517216809938E-02 
1468	 6.40135721774463E-02 
1469	 6.44389075224913E-02 
1470	 6.49708783732681E-02 
1471	 0.0655734250578 
1472	 6.62579090264981E-02 
1473	 6.70279892210804E-02 
1474	 6.77101115301636E-02 
1475	 6.84137060838928E-02 
1476	 6.90876713537666E-02 
1477	 6.95572747815633E-02 
1478	 7.02503944431355E-02 
1479	 7.10504323213072E-02 
1480	 7.18623803959592E-02 
1481	 7.27713267398528E-02 
1482	 7.36784537398645E-02 
1483	 7.45949438311453E-02 
1484	 7.54955514075728E-02 
1485	 7.63617928050658E-02 
1486	 7.72728679358923E-02 
1487	 7.81676866217987E-02 
1488	 7.90555558653635E-02 
1489	 8.00552168624553E-02 
1490	 8.11039221001754E-02 
1491	 8.20577907418589E-02 
1492	 8.29804118428889E-02 
1493	 8.38930788163056E-02 
1494	 8.47529973080852E-02 
1495	 8.56468651146058E-02 
1496	 8.66123558562842E-02 
1497	 8.74758350169242E-02 
1498	 8.82642552047498E-02 
1499	 8.91936041831252E-02 
1500	 9.01726239606804E-02 
1501	 9.11204200146041E-02 
1502	 9.21322227725955E-02 
1503	 9.31674746109264E-02 
1504	 9.41418426373954E-02 
1505	 9.52306742610068E-02 
1506	 9.64666669613979E-02 
1507	 9.75765959167793E-02 
1508	 9.86838309999157E-02 
1509	 9.97319371850598E-02 
1510	 0.100699680763297 
1511	 0.101715578885358 
1512	 0.102720069738791 
1513	 0.103737058320433 
1514	 0.104746069687016 
1515	 0.105840035157516 
1516	 0.107001338526737 
1517	 0.108119835579202 
1518	 0.109315637692599 
1519	 0.110439773270632 
1520	 0.111480046797518 
1521	 0.112577707279376 
1522	 0.113701963551833 
1523	 0.114809868015137 
1524	 0.115945479145938 
1525	 0.117036422260797 
1526	 0.118064237913908 
1527	 0.11917496239954 
1528	 0.120349727026679 
1529	 0.121444517319781 
1530	 0.122541463252688 
1531	 0.123641885490295 
1532	 0.124637094650199 
1533	 0.12574371569185 
1534	 0.126995799844157 
1535	 0.128138684356639 
1536	 0.12923639412878 
1537	 0.130377325641232 
1538	 0.131512575912411 
1539	 0.132622870083249 
1540	 0.133789921327274 
1541	 0.134889998979459 
1542	 0.135861705782392 
1543	 0.136920407348562 
1544	 0.138008522283585 
1545	 0.139101223167874 
1546	 0.140246941509668 
1547	 0.141375353766241 
1548	 0.142514518888902 
1549	 0.143624676359075 
1550	 0.14472687985425 
1551	 0.145821694478206 
1552	 0.146891131788049 
1553	 0.147956111704119 
1554	 0.14903183640317 
1555	 0.150080628359731 
1556	 0.151099972480125 
1557	 0.152116492307079 
1558	 0.153116735018898 
1559	 0.154111389210229 
1560	 0.155113649822711 
1561	 0.156094868480428 
1562	 0.157059717468138 
1563	 0.158021550314985 
1564	 0.158973138635119 
1565	 0.159908801019225 
1566	 0.160892261150785 
1567	 0.161894436626726 
1568	 0.162894351903492 
1569	 0.163940763684578 
1570	 0.164898657304172 
1571	 0.165802724894818 
1572	 0.166766046680351 
1573	 0.167695367324514 
1574	 0.168672956856642 
1575	 0.169708858128352 
1576	 0.170677642629521 
1577	 0.171637770027921 
1578	 0.17249931399137 
1579	 0.173271266809876 
1580	 0.174125807380878 
1581	 0.174940922732571 
1582	 0.175767546775907 
1583	 0.176640373906693 
1584	 0.177511738362696 
1585	 0.178353874456466 
1586	 0.179198875690152 
1587	 0.180115541799993 
1588	 0.180930019490704 
1589	 0.181669507605192 
1590	 0.182428444964649 
1591	 0.183183216312967 
1592	 0.183896833341388 
1593	 0.184568409018126 
1594	 0.185275685240147 
1595	 0.185949788354787 
1596	 0.186709492423968 
1597	 0.18756145634952 
1598	 0.188298375679285 
1599	 0.189025246806969 
1600	 0.18975445002694 
1601	 0.190413833170887 
1602	 0.191127788065734 
1603	 0.191905745968087 
1604	 0.192617050704452 
1605	 0.193283413201871 
1606	 0.193970218913121 
1607	 0.19465136535401 
1608	 0.195318466950275 
1609	 0.195977981263881 
1610	 0.196624643739226 
1611	 0.197250215442564 
1612	 0.197876346894629 
1613	 0.198500524107235 
1614	 0.199112696067591 
1615	 0.199700420597723 
1616	 0.20031830719769 
1617	 0.200965502085034 
1618	 0.201530246463571 
1619	 0.202066535616608 
1620	 0.202624699113053 
1621	 0.203133779032809 
1622	 0.203669439815465 
1623	 0.204283409562689 
1624	 0.20477299696661 
1625	 0.205179287446266 
1626	 0.205632620307824 
1627	 0.20602609638105 
1628	 0.206513088217488 
1629	 0.207064415353 
1630	 0.207591732323476 
1631	 0.208186620537242 
1632	 0.208673215403996 
1633	 0.209103219738912 
1634	 0.209573642108713 
1635	 0.21000718675542 
1636	 0.210458913395594 
1637	 0.210944756568693 
1638	 0.211405371776834 
1639	 0.211834437266014 
1640	 0.212284607512783 
1641	 0.212775088972704 
1642	 0.213186627430236 
1643	 0.213557179061979 
1644	 0.213912750194732 
1645	 0.214226960277823 
1646	 0.214521631917852 
1647	 0.214810167377079 
1648	 0.215047328158264 
1649	 0.215202534724696 
1650	 0.215458697194255 
1651	 0.215730911894748 
1652	 0.21598983370657 
1653	 0.216326066941589 
1654	 0.216546587628278 
1655	 0.216666833398556 
1656	 0.216889495054917 
1657	 0.217119886686281 
1658	 0.217292833935859 
1659	 0.217545028386895 
1660	 0.217680017149372 
1661	 0.217812441854641 
1662	 0.217991719949148 
1663	 0.218160531120093 
1664	 0.218273338605775 
1665	 0.218444504467044 
1666	 0.218653247333889 
1667	 0.218800659839018 
1668	 0.219006486898614 
1669	 0.219240500463932 
1670	 0.219350087551547 
1671	 0.219363013564854 
1672	 0.219399951451083 
1673	 0.219467465469412 
1674	 0.219576780528782 
1675	 0.219685266780733 
1676	 0.219604627364311 
1677	 0.219473480083971 
1678	 0.219462585276876 
1679	 0.219450035847473 
1680	 0.219392082421639 
1681	 0.219341799640165 
1682	 0.219157249651953 
1683	 0.218855645203084 
1684	 0.218714860349553 
1685	 0.218562069753416 
1686	 0.218354243612675 
1687	 0.218199118275667 
1688	 0.21795004464173 
1689	 0.217699097308916 
1690	 0.217556623650348 
1691	 0.217314175257368 
1692	 0.217105401864511 
1693	 0.216836169000668 
1694	 0.216397898441005 
1695	 0.216017859635161 
1696	 0.21560590501817 
1697	 0.215275012627666 
1698	 0.215037948472191 
1699	 0.21474946877266 
1700	 0.214510593066241 
1701	 0.214241288528467 
1702	 0.213955060611416 
1703	 0.213597304391973 
1704	 0.213132917324374 
1705	 0.212800155006711 
1706	 0.212406672377894 
1707	 0.212097245511948 
1708	 0.212095943255945 
1709	 0.211789022358246 
1710	 0.211297755875534 
1711	 0.210920159460354 
1712	 0.210433022717221 
1713	 0.209984947297343 
1714	 0.209659922673152 
1715	 0.209204752732212 
1716	 0.208631378703603 
1717	 0.208105872054349 
1718	 0.207557448675657 
1719	 0.207057722084672 
1720	 0.206607278913587 
1721	 0.2060856123458 
1722	 0.205536785946283 
1723	 0.205020412704226 
1724	 0.204500943821897 
1725	 0.203951502988416 
1726	 0.203399361067067 
1727	 0.202806885958997 
1728	 0.202135573712977 
1729	 0.201534495667353 
1730	 0.20101706467447 
1731	 0.200408055271599 
1732	 0.199735481507874 
1733	 0.199047448673373 
1734	 0.198405271515843 
1735	 0.197862799047244 
1736	 0.197199139494631 
1737	 0.196374402645413 
1738	 0.19547786609314 
1739	 0.194525365741654 
1740	 0.193700633046801 
1741	 0.193076895377851 
1742	 0.192436994955632 
1743	 0.191760055819122 
1744	 0.190987458776784 
1745	 0.190049477972839 
1746	 0.189111188669971 
1747	 0.188206507129588 
1748	 0.187387331696466 
1749	 0.186736367414851 
1750	 0.186099511839868 
1751	 0.185311254937091 
1752	 0.184511988572095 
1753	 0.183787772734514 
1754	 0.182874682068216 
1755	 0.181946994207238 
1756	 0.18114181306533 
1757	 0.180283886760582 
1758	 0.179438870620676 
1759	 0.178649068488097 
1760	 0.177943107059483 
1761	 0.17725569270007 
1762	 0.176420391950396 
1763	 0.175697156666002 
1764	 0.174860959989502 
1765	 0.173680351850895 
1766	 0.172827518253246 
1767	 0.172155486641924 
1768	 0.171545384207823 
1769	 0.171123269032748 
1770	 0.170597193052954 
1771	 0.170094231256459 
1772	 0.169439139847508 
1773	 0.168628827340291 
1774	 0.16793751118232 
1775	 0.167424625211733 
1776	 0.166903644015086 
1777	 0.166291447644732 
1778	 0.165733243623405 
1779	 0.165154971193224 
1780	 0.164689488132882 
1781	 0.164258367558984 
1782	 0.163873508977323 
1783	 0.163459149324184 
1784	 0.162932914152293 
1785	 0.162849930483542 
1786	 0.162782224907196 
1787	 0.16236821285696 
1788	 0.162194459041972 
1789	 0.161757516212784 
1790	 0.16113020262635 
1791	 0.160870002789738 
1792	 0.160445081553597 
1793	 0.160002657673418 
1794	 0.159547109000684 
1795	 0.159013902315758 
1796	 0.158828274163232 
1797	 0.158442625633846 
1798	 0.158148804519519 
1799	 0.15805953469463 
1800	 0.157904348467506 
1801	 0.156759457116124 
1802	 0.155863084851793 
1803	 0.15509283444273 
1804	 0.153925559336356 
1805	 0.153257351448207 
1806	 0.153186698723208 
1807	 0.152694398525798 
1808	 0.152251724956245 
1809	 0.151806731470669 
1810	 0.151483066596061 
1811	 0.150865139661938 
1812	 0.150250105999461 
1813	 0.150289561524941 
1814	 0.149622735969643 
1815	 0.147343795893677 
1816	 0.146518964547007 
1817	 0.146887594154057 
1818	 0.14657134304312 
1819	 0.146408941503979 
1820	 0.148118283792623 
1821	 0.147095388443037 
1822	 0.142286751946572 
1823	 0.14112612676159 
1824	 0.140502408702521 
1825	 0.140150393196757 
1826	 0.145023103214475 
1827	 0.147126257540068 
1828	 0.148201449527653 
1829	 0.145961032004242 
1830	 0.146103554494986 
1831	 0.145570508594124 
1832	 0.1443862198999 
1833	 0.140873751342516 
1834	 0.141875976476674 
1835	 0.146604106573115 
1836	 0.150824549180025 
1837	 0.171379775659645 
1838	 0.182221104770166 
1839	 0.185148216441387 
1840	 0.175187293836485 
1841	 0.161549085827822 
1842	 0.129534928992329 
1843	 0.116060411639813 
1844	 9.83271343148677E-02 
1845	 9.39177094706018E-02 
1846	 0.111228726397748 
1847	 0.11989352341983 
1848	 0.128103923522714 
1849	 0.146135277493411 
1850	 0.136816341125774 
1851	 9.81858848682579E-02 
1852	 9.23873333570314E-02 
1853	 7.85888359060048E-02 
1854	 8.52122733821917E-02 
1855	 0.136335691656443 
1856	 0.151297393308746 
1857	 0.160360778371403 
1858	 0.161585007687306 
1859	 0.143137024031798 
1860	 9.44946305108499E-02 
1861	 8.26157083011962E-02 
1862	 6.63478478741793E-02 
1863	 6.42394803916041E-02 
1864	 9.81204068088489E-02 
1865	 0.100473784347795 
1866	 8.01869203934285E-02 
1867	 7.46991662048803E-02 
1868	 7.88162166690701E-02 
1869	 0.084541214752432 
1870	 8.97064536177621E-02 
1871	 0.128660018455704 
1872	 0.127942948593219 
1873	 0.10772223263591 
1874	 8.08801348523171E-02 
1875	 3.57950974671095E-02 
1876	 2.22537009108876E-02 
1877	 9.02965665326563E-03 
1878	 1.19985222825269E-02 
1879	 2.26698369967333E-02 
1880	 2.51046548121197E-02 
1881	 2.62163826880335E-02 
1882	 2.14495802130049E-02 
1883	 2.25063554774485E-02 
1884	 3.01512280243191E-02 
1885	 2.91634835121617E-02 
1886	 2.44802642119137E-02 
1887	 2.07182083409189E-02 
1888	 1.98749086562161E-02 
1889	 1.60225978291316E-02 
1890	 1.63662843056958E-02 
1891	 2.56790187735974E-02 
1892	 2.79001201127071E-02 
1893	 0.02668429383475 
1894	 2.55502185893955E-02 
1895	 2.09751595384199E-02 
1896	 2.02838946925305E-02 
1897	 2.08021632413586E-02 
1898	 2.02501836092148E-02 
1899	 2.69239069260304E-02 
1900	 2.40839144623567E-02 
1901	 1.99491561724577E-02 
1902	 1.70836845242058E-03 
1903	 2.26948109547953E-03 
1904	 0.012916830787748 
1905	 1.83690587968326E-02 
1906	 3.58155598230364E-02 
1907	 4.53198027814716E-02 
1908	 2.30989534755305E-02 
1909	 2.16957333092811E-02 
1910	 2.08228522168782E-02 
1911	 1.66664524221746E-02 
1912	 1.74438600610055E-02 
1913	 2.31282800973058E-02 
1914	 2.32913565905552E-02 
1915	 2.30264668233247E-02 
1916	 0.020500972612884 
1917	 1.51038586961207E-02 
1918	 1.61363114600518E-02 
1919	 1.31632077094426E-02 
1920	 9.88013586293935E-03 
1921	 1.06130757651059E-02 
1922	 0.011100772525983 
1923	 1.18995470423296E-02 
1924	 0.014652395884495 
1925	 1.53975486324262E-02 
1926	 1.48663109551664E-02 
1927	 1.46937854756841E-02 
1928	 1.38250886420027E-02 
1929	 1.34786337415765E-02 
1930	 1.55796477207086E-02 
1931	 1.72440612058939E-02 
1932	 1.53561934570315E-02 
1933	 1.51713730597002E-02 
1934	 1.52644955429037E-02 
1935	 1.37228381611889E-02 
1936	 1.39685116021559E-02 
1937	 1.72254368935032E-02 
1938	 1.75639329304883E-02 
1939	 1.69632940549172E-02 
1940	 1.57499418388197E-02 
1941	 1.48865359015081E-02 
1942	 1.38723366905609E-02 
1943	 1.35545245325657E-02 
1944	 1.42307299070962E-02 
1945	 0.015418354618456 
1946	 1.59054548675251E-02 
1947	 1.57783217942891E-02 
1948	 1.47729159482066E-02 
1949	 1.48639437606115E-02 
1950	 1.46901296330653E-02 
1951	 1.50716966857737E-02 
1952	 0.016519387174517 
1953	 0.017164735098866 
1954	 1.69602118318938E-02 
1955	 1.67022765833237E-02 
1956	 1.68042764476312E-02 
1957	 1.75069473175137E-02 
1958	 1.79327473029857E-02 
1959	 0.01901795727086 
1960	 1.90373508956352E-02 
1961	 1.83638435909949E-02 
1962	 1.79638174136315E-02 
1963	 1.79068277392197E-02 
1964	 1.76088848911001E-02 
1965	 1.78278334458613E-02 
1966	 1.82659958952849E-02 
1967	 1.82309706437408E-02 
1968	 1.86940574572098E-02 
1969	 1.90288983102105E-02 
1970	 1.93808310738586E-02 
1971	 1.94966614471356E-02 
1972	 1.96374159179732E-02 
1973	 0.019578604313834 
1974	 1.94436477570917E-02 
1975	 0.019463184950429 
1976	 1.96407805610588E-02 
1977	 2.01114538814646E-02 
1978	 0.020364520298513 
1979	 2.05643346693725E-02 
1980	 2.08972454591708E-02 
1981	 2.11036260622449E-02 
1982	 2.13620385890236E-02 
1983	 2.16274454134592E-02 
1984	 2.21321698024327E-02 
1985	 2.26145120609356E-02 
1986	 2.28978902541957E-02 
1987	 2.31224197937854E-02 
1988	 2.32384758499113E-02 
1989	 2.31953567592976E-02 
1990	 2.33672133864547E-02 
1991	 0.023715709978378 
1992	 2.40528860450319E-02 
1993	 2.43826545298445E-02 
1994	 2.44596563850029E-02 
1995	 0.024610855829618 
1996	 2.46468879277077E-02 
1997	 2.47989629380055E-02 
1998	 2.49607694337294E-02 
1999	 0.025081959856834 
2000	 2.47150148146111E-02 
2001	 2.47982070356494E-02 
2002	 2.51973438397545E-02 
2003	 2.59487435657627E-02 
2004	 2.76405214887159E-02 
2005	 0.028079426804302 
2006	 2.82927583041268E-02 
2007	 2.78707965491833E-02 
2008	 0.027916814940897 
2009	 2.77699383056125E-02 
2010	 2.83033851569094E-02 
2011	 2.95604300561684E-02 
2012	 2.99691864286995E-02 
2013	 3.00275369547564E-02 
2014	 3.07187397669011E-02 
2015	 3.09177007313114E-02 
2016	 3.09525521057718E-02 
2017	 3.11917113693531E-02 
2018	 3.11425752275134E-02 
2019	 3.11773783269785E-02 
2020	 3.11425981755881E-02 
2021	 3.14912948590329E-02 
2022	 3.19050463225462E-02 
2023	 3.20718804044908E-02 
2024	 3.22780567019721E-02 
2025	 3.26415872696111E-02 
2026	 3.30184696114189E-02 
2027	 3.34489403688295E-02 
2028	 3.40538746902677E-02 
2029	 3.46952591561691E-02 
2030	 3.50239131147339E-02 
2031	 3.53340955478025E-02 
2032	 3.56965757222254E-02 
2033	 3.61266292435907E-02 
2034	 3.63022280447482E-02 
2035	 3.63708988622408E-02 
2036	 3.64715178896437E-02 
2037	 3.62964254345968E-02 
2038	 3.61335722865983E-02 
2039	 3.63729077029011E-02 
2040	 3.65394931412107E-02 
2041	 3.70524265383297E-02 
2042	 3.81179368036837E-02 
2043	 3.89637705545752E-02 
2044	 3.97619387535518E-02 
2045	 4.03464554397315E-02 
2046	 4.08096559176822E-02 
2047	 4.06620820978945E-02 
2048	 4.07116319655895E-02 
2049	 4.11370570288022E-02 
2050	 4.16756665071064E-02 
2051	 4.21087079410328E-02 
2052	 4.24432560878688E-02 
2053	 4.28221570230741E-02 
2054	 4.31432028340172E-02 
2055	 4.37647532057294E-02 
2056	 0.044294301747765 
2057	 4.44035609293411E-02 
2058	 4.45007714844604E-02 
2059	 4.46708786302815E-02 
2060	 4.47080783360337E-02 
2061	 4.49559980412722E-02 
2062	 4.53667668219619E-02 
2063	 4.58789965985845E-02 
2064	 4.65322643968189E-02 
2065	 4.69446187062487E-02 
2066	 4.75414830378334E-02 
2067	 4.81103935824376E-02 
2068	 4.80957109303086E-02 
2069	 4.83777305187938E-02 
2070	 4.89390879477052E-02 
2071	 4.90698563826954E-02 
2072	 4.93470978851382E-02 
2073	 4.97350882281303E-02 
2074	 5.03158648960328E-02 
2075	 5.06633677952956E-02 
2076	 5.11815071316678E-02 
2077	 5.17345618194946E-02 
2078	 5.20075581321971E-02 
2079	 5.22611521179255E-02 
2080	 5.28474262260373E-02 
2081	 5.36056102664611E-02 
2082	 5.43794764050089E-02 
2083	 5.51024890714008E-02 
2084	 5.53594912263093E-02 
2085	 0.055545377509886 
2086	 5.59151642616684E-02 
2087	 0.056237096127833 
2088	 5.65180373383622E-02 
2089	 0.057043488809658 
2090	 0.057514079638399 
2091	 0.057569067516175 
2092	 5.78022289904388E-02 
2093	 5.81408500427309E-02 
2094	 5.85225605334786E-02 
2095	 5.92705614325829E-02 
2096	 5.99943817578917E-02 
2097	 6.04754734901369E-02 
2098	 6.09335556116799E-02 
2099	 6.15095957976597E-02 
2100	 6.20354363927636E-02 
2101	 6.24957412113791E-02 
2102	 6.28726176974068E-02 
2103	 6.30893413936329E-02 
2104	 6.34521335248588E-02 
2105	 0.064064417066773 
2106	 6.44518575714111E-02 
2107	 6.50876264298759E-02 
2108	 6.55057424259049E-02 
2109	 6.54183579712752E-02 
2110	 6.57460626862302E-02 
2111	 6.64918263171815E-02 
2112	 6.70230495272937E-02 
2113	 6.76103978205186E-02 
2114	 6.83874422706867E-02 
2115	 6.85398605557281E-02 
2116	 6.86152376111854E-02 
2117	 6.89517407117209E-02 
2118	 6.93296372980835E-02 
2119	 6.96604310609458E-02 
2120	 7.02127612898337E-02 
2121	 7.05641769659825E-02 
2122	 7.06899056836739E-02 
2123	 7.11091944635454E-02 
2124	 7.15983168583528E-02 
2125	 7.22625002022666E-02 
2126	 7.27618670247037E-02 
2127	 7.29307799633711E-02 
2128	 7.32033466700273E-02 
2129	 7.36059217565317E-02 
2130	 7.40850280090923E-02 
2131	 7.46384443047326E-02 
2132	 7.51358686135851E-02 
2133	 7.54093487778841E-02 
2134	 7.57054617721836E-02 
2135	 7.59612923141504E-02 
2136	 7.64524800761683E-02 
2137	 7.68084133269553E-02 
2138	 7.71222405298355E-02 
2139	 7.77747991049788E-02 
2140	 7.82506170808867E-02 
2141	 7.84049093804109E-02 
2142	 7.84999695436308E-02 
2143	 7.83640372695816E-02 
2144	 7.80935148233684E-02 
2145	 7.81493121672742E-02 
2146	 7.84867787623202E-02 
2147	 7.91307538551078E-02 
2148	 7.96509076788766E-02 
2149	 7.96930450935258E-02 
2150	 7.98477687869779E-02 
2151	 7.99583096088133E-02 
2152	 7.96163390362264E-02 
2153	 7.98827667870815E-02 
2154	 8.06118891089039E-02 
2155	 8.10893901844707E-02 
2156	 8.15211248940788E-02 
2157	 8.16765253004306E-02 
2158	 8.17487025638895E-02 
2159	 8.19434958177693E-02 
2160	 8.23776875949899E-02 
2161	 8.33407112994613E-02 
2162	 0.08384919989577 
2163	 8.37112582661166E-02 
2164	 8.38543230154134E-02 
2165	 8.39964083210857E-02 
2166	 0.083958128208968 
2167	 8.43642134275474E-02 
2168	 8.46752647751603E-02 
2169	 8.48039220931643E-02 
2170	 0.08483691560954 
2171	 8.48750173847586E-02 
2172	 8.51525665744341E-02 
2173	 8.49945576584249E-02 
2174	 8.50867442024159E-02 
2175	 8.53819268100424E-02 
2176	 0.085520540278705 
2177	 0.085760793385495 
2178	 8.59020129215264E-02 
2179	 8.63137033090579E-02 
2180	 8.66637775044026E-02 
2181	 8.67615490114236E-02 
2182	 8.68429131640509E-02 
2183	 8.64991171276851E-02 
2184	 8.61791943963259E-02 
2185	 8.59535091558229E-02 
2186	 8.58106046344475E-02 
2187	 8.59131056718501E-02 
2188	 0.086232995364299 
2189	 8.64843269831039E-02 
2190	 8.69101347012753E-02 
2191	 8.74077338520376E-02 
2192	 8.75293092292252E-02 
2193	 8.73232075673545E-02 
2194	 8.68968788931803E-02 
2195	 8.67947343270572E-02 
2196	 8.66744275524006E-02 
2197	 8.67621229126311E-02 
2198	 0.087322140855091 
2199	 8.75736680323152E-02 
2200	 8.77014153056035E-02 
2201	 8.80989747425086E-02 
2202	 8.85571577395418E-02 
2203	 0.088633609739347 
2204	 8.85695331660314E-02 
2205	 8.84197375759298E-02 
2206	 8.81317784388796E-02 
2207	 8.81456261374132E-02 
2208	 8.82747118480916E-02 
2209	 8.89053002210679E-02 
2210	 8.91780604894094E-02 
2211	 8.94952388242291E-02 
2212	 0.089216042939458 
2213	 8.89780395295503E-02 
2214	 8.88562872593497E-02 
2215	 8.88651787197541E-02 
2216	 8.93296205126252E-02 
2217	 0.08972283784752 
2218	 8.96550537255443E-02 
2219	 8.90570917143752E-02 
2220	 8.85114059822866E-02 
2221	 8.81883520757014E-02 
2222	 8.81007511514345E-02 
2223	 8.82806464035184E-02 
2224	 8.83972826419951E-02 
2225	 8.86154368423133E-02 
2226	 8.87840084292312E-02 
2227	 8.91493611633472E-02 
2228	 8.92625351595354E-02 
2229	 8.90418018228332E-02 
2230	 8.88628465738345E-02 
2231	 8.82891969182771E-02 
2232	 8.70462089936081E-02 
2233	 8.65314498685194E-02 
2234	 8.61019088639363E-02 
2235	 8.55194420753498E-02 
2236	 8.60132673391138E-02 
2237	 8.64349376681456E-02 
2238	 8.63314065503835E-02 
2239	 8.62468490205164E-02 
2240	 8.60905692439438E-02 
2241	 8.56754580467954E-02 
2242	 8.53554473003406E-02 
2243	 0.085180133302273 
2244	 8.46097284989066E-02 
2245	 8.43092556788502E-02 
2246	 8.43300634649689E-02 
2247	 8.45649804993135E-02 
2248	 8.45625892366237E-02 
2249	 8.43159523622379E-02 
2250	 8.42819240588084E-02 
2251	 8.38424601600333E-02 
2252	 8.33781659611071E-02 
2253	 0.082728361461908 
2254	 8.16871330614338E-02 
2255	 8.11218647421784E-02 
2256	 8.06775680596217E-02 
2257	 8.03958310382989E-02 
2258	 8.04071282814365E-02 
2259	 8.07919511124096E-02 
2260	 8.04422084534153E-02 
2261	 7.98040798340403E-02 
2262	 7.94501693193978E-02 
2263	 7.85197836987679E-02 
2264	 7.75501846591289E-02 
2265	 7.77494665186104E-02 
2266	 7.75704287196776E-02 
2267	 7.70601783037481E-02 
2268	 7.68786134262074E-02 
2269	 7.61166076427392E-02 
2270	 7.57009481675227E-02 
2271	 7.53217087949213E-02 
2272	 7.53771896862508E-02 
2273	 7.55499102650513E-02 
2274	 7.47958856700901E-02 
2275	 7.44915885081186E-02 
2276	 7.45483559056849E-02 
2277	 7.38471420555103E-02 
2278	 7.29201732366384E-02 
2279	 0.072773601912919 
2280	 7.24245796548493E-02 
2281	 7.21015116170237E-02 
2282	 7.24421130791031E-02 
2283	 7.21588119445184E-02 
2284	 7.18087690202559E-02 
2285	 7.16043114530455E-02 
2286	 7.11131535808669E-02 
2287	 7.05323920999931E-02 
2288	 7.00800453970312E-02 
2289	 6.92340927981542E-02 
2290	 6.87036753376733E-02 
2291	 6.89177435950086E-02 
2292	 6.89005009265285E-02 
2293	 6.86459233274186E-02 
2294	 6.84952161338708E-02 
2295	 6.79844084786196E-02 
2296	 6.74585806828409E-02 
2297	 6.70681152604553E-02 
2298	 6.64064492475435E-02 
2299	 6.55580637472934E-02 
2300	 6.45025713247013E-02 
2301	 0.064104102851832 
2302	 6.37658879902901E-02 
2303	 6.32931606759379E-02 
2304	 6.31960908844165E-02 
2305	 0.063018866681223 
2306	 6.27186691862682E-02 
2307	 6.22990103178914E-02 
2308	 6.25126789863327E-02 
2309	 6.23560119381885E-02 
2310	 6.20972239225414E-02 
2311	 6.20500911668705E-02 
2312	 6.06388476571569E-02 
2313	 5.97474614754315E-02 
2314	 5.98444104607731E-02 
2315	 6.01528863424086E-02 
2316	 0.060814080755427 
2317	 6.16080447471152E-02 
2318	 6.15126407638327E-02 
2319	 6.01932602053243E-02 
2320	 5.90427038008794E-02 
2321	 5.80786017207686E-02 
2322	 5.67039959549353E-02 
2323	 5.64478203277942E-02 
2324	 5.70435901345069E-02 
2325	 5.70637963979258E-02 
2326	 5.72961132405392E-02 
2327	 5.57226900189805E-02 
2328	 5.44240230594882E-02 
2329	 5.40805103360503E-02 
2330	 5.35662250377289E-02 
2331	 5.43152198263359E-02 
2332	 5.42345080296186E-02 
2333	 0.053805843727295 
2334	 5.42108347326197E-02 
2335	 5.41962516742585E-02 
2336	 5.38153640171855E-02 
2337	 5.34614193422238E-02 
2338	 5.28583388898266E-02 
2339	 5.18611472208464E-02 
2340	 5.23897546176654E-02 
2341	 5.28390783783474E-02 
2342	 5.23146893607677E-02 
2343	 5.26978239743078E-02 
2344	 5.23662793155366E-02 
2345	 5.11270364170354E-02 
2346	 5.12212028130821E-02 
2347	 5.15538936935203E-02 
2348	 5.05912660524346E-02 
2349	 5.03397353923156E-02 
2350	 4.95347066343183E-02 
2351	 4.74573485889628E-02 
2352	 4.58211347074835E-02 
2353	 4.47105211430044E-02 
2354	 4.46673074544646E-02 
2355	 4.52762034126852E-02 
2356	 4.64365093592139E-02 
2357	 4.72773879806275E-02 
2358	 4.74032258855801E-02 
2359	 0.046878783895666 
2360	 4.61399128079058E-02 
2361	 4.61407248043025E-02 
2362	 4.51888034393768E-02 
2363	 4.39312054547218E-02 
2364	 4.26561246471961E-02 
2365	 4.07300411415871E-02 
2366	 4.00343359165965E-02 
2367	 3.99729413471894E-02 
2368	 4.06909800498671E-02 
2369	 4.27086624249986E-02 
2370	 4.34099477789719E-02 
2371	 4.25274862968295E-02 
2372	 4.19039543862117E-02 
2373	 4.02540996086863E-02 
2374	 3.83428309090578E-02 
2375	 3.58165944608784E-02 
2376	 0.035457636836068 
2377	 3.55417746824272E-02 
2378	 3.59777525853222E-02 
2379	 3.86223811625484E-02 
2380	 3.94262911680623E-02 
2381	 3.97484671780232E-02 
2382	 3.92168119405763E-02 
2383	 3.69556036189309E-02 
2384	 3.66057676266664E-02 
2385	 3.63963162136091E-02 
2386	 3.62756173525033E-02 
2387	 3.74197930818286E-02 
2388	 3.83220245715117E-02 
2389	 3.89997503316576E-02 
2390	 3.86588343160504E-02 
2391	 3.83621573126184E-02 
2392	 3.82273834654961E-02 
2393	 3.65732085737989E-02 
2394	 3.67750925032122E-02 
2395	 3.96601241051135E-02 
2396	 3.99686858229469E-02 
2397	 3.93267955452099E-02 
2398	 3.82708983846949E-02 
2399	 3.41148580567404E-02 
2400	 3.28598856892409E-02 
2401	 3.27753994833357E-02 
2402	 3.45215075608667E-02 
2403	 3.45556066689924E-02 
2404	 3.46284914588958E-02 
2405	 3.35352122047759E-02 
2406	 3.13698984429024E-02 
2407	 0.031530228647899 
2408	 3.23492208421087E-02 
2409	 3.32489133874288E-02 
2410	 3.31608692632773E-02 
2411	 3.41675583592953E-02 
2412	 3.51591170640959E-02 
2413	 3.36176823671569E-02 
2414	 3.34346334229523E-02 
2415	 3.20280476183817E-02 
2416	 2.98097970310431E-02 
2417	 2.82526665435588E-02 
2418	 2.61918339736592E-02 
2419	 2.72670355210204E-02 
2420	 2.76206455097282E-02 
2421	 2.73553544061748E-02 
2422	 2.85343278662483E-02 
2423	 2.68180964818106E-02 
2424	 2.52957661495554E-02 
2425	 2.37122325716652E-02 
2426	 2.45473841990327E-02 
2427	 0.027053209120049 
2428	 2.80578311900763E-02 
2429	 3.16667557191043E-02 
2430	 2.96456806751623E-02 
2431	 0.026386833878114 
2432	 2.58821352310867E-02 
2433	 2.38112645145899E-02 
2434	 0.022467431700554 
2435	 2.16012814174905E-02 
2436	 0.019319387493634 
2437	 1.40764090312053E-02 
2438	 0.013084011537503 
2439	 1.51649011928192E-02 
2440	 1.52082424300901E-02 
2441	 0.015905926199725 
2442	 1.87906051608333E-02 
2443	 2.19264096769407E-02 
2444	 2.33373528826985E-02 
2445	 3.04648271269652E-02 
2446	 3.15857258933653E-02 
2447	 2.30879214760235E-02 
2448	 1.96837949542091E-02 
2449	 1.60873624169161E-02 
2450	 1.22764545594802E-02 
2451	 1.08401935934731E-02 
2452	 0.010784945224439 
2453	 1.23147474205319E-02 
2454	 1.15846256137327E-02 
2455	 1.03948785286176E-02 
2456	 1.09338154180402E-02 
2457	 1.05150178185555E-02 
2458	 9.8057435684004E-03 
2459	 9.01917497000721E-03 
2460	 0.011656181013257 
2461	 1.61754953941905E-02 
2462	 1.88809442813814E-02 
2463	 2.77412573498807E-02 
2464	 3.00265849157586E-02 
2465	 2.15184091640614E-02 
2466	 2.16827396990956E-02 
2467	 2.64328643096543E-02 
2468	 2.65865370112724E-02 
2469	 2.86874948187278E-02 
2470	 3.20016169806433E-02 
2471	 2.97840837703497E-02 
2472	 3.06251224381448E-02 
2473	 4.21095073012217E-02 
2474	 4.27587501528225E-02 
2475	 3.53827292296581E-02 
2476	 0.029439552564015 
2477	 1.26841952754099E-02 
2478	 7.69546485415902E-03 
2479	 9.03131070149158E-03 
2480	 1.39574405085036E-02 
2481	 0.038511836332908 
2482	 4.55195497984159E-02 
2483	 4.54262719496194E-02 
2484	 3.82421028459204E-02 
2485	-5.43871562919438E-03 
2486	 1.14852082174122E-02 
2487	 4.14280867173467E-02 
2488	 5.55626159635483E-02 
2489	 9.75034755809781E-02 
2490	 9.91536906606048E-02 
2491	 8.16412697149291E-02 
2492	 6.27136164199716E-02 
2493	 3.15436274193492E-02 
2494	 5.73343849687365E-03 
2495	-2.44406525932206E-03 
2496	 3.28412557580892E-02 
2497	 8.58324778773699E-02 
2498	 0.109365359922824 
2499	 0.100442725847054 
2500	 8.31559068737145E-02 
