Wavelength	ref00081.asd
350	 0.168553235457481 
351	 0.170741801430979 
352	 0.173255608375558 
353	 0.17522575590576 
354	 0.176159731429506 
355	 0.177842597098306 
356	 0.180827836548449 
357	 0.182341419360692 
358	 0.184044333064538 
359	 0.186030480729636 
360	 0.188054437862117 
361	 0.190676217996452 
362	 0.192319056404274 
363	 0.193337868659654 
364	 0.195147519490432 
365	 0.195922861209037 
366	 0.196947427086613 
367	 0.198629383261064 
368	 0.199703708974428 
369	 0.200082444373684 
370	 0.200774583711679 
371	 0.202374130783497 
372	 0.203485278468715 
373	 0.204012642090432 
374	 0.204518565918414 
375	 0.20569700293453 
376	 0.206461020159927 
377	 0.207376821364101 
378	 0.208653300929295 
379	 0.209895579322789 
380	 0.211084353874997 
381	 0.212512793362266 
382	 0.214400187683898 
383	 0.216616312741197 
384	 0.21891930376272 
385	 0.221439745902542 
386	 0.224360026912484 
387	 0.227067137722783 
388	 0.230135040770386 
389	 0.233355583679881 
390	 0.235727144417262 
391	 0.238813158736863 
392	 0.241720273390616 
393	 0.244155908260302 
394	 0.248196498779139 
395	 0.252407325764484 
396	 0.256495972192519 
397	 0.260648057441049 
398	 0.265261229453649 
399	 0.270196238030779 
400	 0.275415376099171 
401	 0.281024726062452 
402	 0.28718646213496 
403	 0.294209745559285 
404	 0.302259974297952 
405	 0.311262563154749 
406	 0.321605808224146 
407	 0.333294108776206 
408	 0.34608428304889 
409	 0.359659501997806 
410	 0.373542265909292 
411	 0.387531996653295 
412	 0.401636199701807 
413	 0.415377591908158 
414	 0.428615388103518 
415	 0.441261829877938 
416	 0.453204127503343 
417	 0.464562764672737 
418	 0.475028880699559 
419	 0.484264341282796 
420	 0.492523700334834 
421	 0.499961918056357 
422	 0.506651931611291 
423	 0.512605858507127 
424	 0.517548741218309 
425	 0.522044640506525 
426	 0.526361446498113 
427	 0.529793451292684 
428	 0.533026033110503 
429	 0.535935062134104 
430	 0.538207703372368 
431	 0.540145950898987 
432	 0.541580496674061 
433	 0.542383968007726 
434	 0.542525064978304 
435	 0.542483385214753 
436	 0.541848529894504 
437	 0.540562798101595 
438	 0.539569582421949 
439	 0.538523628174241 
440	 0.537314606691696 
441	 0.535856115736029 
442	 0.533827564629393 
443	 0.531665206005406 
444	 0.529473758913779 
445	 0.527008294876652 
446	 0.524505906095233 
447	 0.522072805101398 
448	 0.519736318584131 
449	 0.517426313880655 
450	 0.515095725673345 
451	 0.5129139840178 
452	 0.511093722793179 
453	 0.509479104112722 
454	 0.508075655201609 
455	 0.506855807993499 
456	 0.50574147651984 
457	 0.504974059498885 
458	 0.504369119253496 
459	 0.503740555840806 
460	 0.503167194548312 
461	 0.502952529722842 
462	 0.503043551013457 
463	 0.503199006993775 
464	 0.503482435542824 
465	 0.503861151919902 
466	 0.504370870803545 
467	 0.505157917318913 
468	 0.506047926723747 
469	 0.50701636102381 
470	 0.508074485479399 
471	 0.509197599254206 
472	 0.510425208925114 
473	 0.51174476170118 
474	 0.513108525054455 
475	 0.514523158586804 
476	 0.515995910138723 
477	 0.517541822244478 
478	 0.51917741398977 
479	 0.520992205400329 
480	 0.522926900149737 
481	 0.524882349767973 
482	 0.526846304666177 
483	 0.528853921331832 
484	 0.530933906567784 
485	 0.5330885975639 
486	 0.535177839442349 
487	 0.537271219607313 
488	 0.539351868226565 
489	 0.541125395460564 
490	 0.542486216495594 
491	 0.543408882317571 
492	 0.544000720248388 
493	 0.544717804127048 
494	 0.545546683282258 
495	 0.546370731722536 
496	 0.547006024300432 
497	 0.547352593834059 
498	 0.547545219731954 
499	 0.547731024295331 
500	 0.547850815207395 
501	 0.548104640372395 
502	 0.548372836246759 
503	 0.548362746980242 
504	 0.548235232053693 
505	 0.547960343315368 
506	 0.547515488309083 
507	 0.546914080711369 
508	 0.546268547743727 
509	 0.545668358302113 
510	 0.545151991106362 
511	 0.544609441853884 
512	 0.544005547339303 
513	 0.543325463699356 
514	 0.542572745089045 
515	 0.541802843067179 
516	 0.540911258281676 
517	 0.539884980057026 
518	 0.538945335846551 
519	 0.538336766756182 
520	 0.537798467593757 
521	 0.536957170666547 
522	 0.536174911502504 
523	 0.535286855633787 
524	 0.534318616525186 
525	 0.533547161869453 
526	 0.532556692067619 
527	 0.531692755901523 
528	 0.531195554461942 
529	 0.530467948912 
530	 0.529758894609284 
531	 0.528993326639987 
532	 0.527972077310456 
533	 0.52710563940881 
534	 0.526398838050397 
535	 0.525775168593299 
536	 0.525116761651669 
537	 0.524329943823427 
538	 0.523504409866087 
539	 0.522754183419303 
540	 0.521984783493767 
541	 0.521244812354027 
542	 0.52052308313347 
543	 0.519757277774873 
544	 0.518942118973179 
545	 0.518057308852207 
546	 0.517083896926184 
547	 0.515981861243489 
548	 0.515055727660246 
549	 0.514151561454014 
550	 0.513009699179923 
551	 0.512042736353168 
552	 0.511188908001728 
553	 0.510378601631097 
554	 0.509581405016038 
555	 0.508761425702583 
556	 0.507959530978129 
557	 0.507200408544201 
558	 0.506372442372072 
559	 0.505688731835208 
560	 0.505046266007278 
561	 0.504183503432315 
562	 0.50355316057802 
563	 0.502863234901266 
564	 0.501995944733921 
565	 0.501318480755896 
566	 0.500557560733016 
567	 0.499830465695792 
568	 0.499279377116252 
569	 0.498540470317312 
570	 0.497798776216336 
571	 0.497214331954829 
572	 0.496879438927498 
573	 0.496624456479496 
574	 0.49638386274446 
575	 0.496168590554182 
576	 0.496122613535935 
577	 0.496251292194945 
578	 0.496345207544594 
579	 0.496131508216841 
580	 0.495734568294331 
581	 0.495310419840798 
582	 0.494955307987046 
583	 0.494679262601461 
584	 0.494409039189866 
585	 0.494173384489233 
586	 0.494031340220313 
587	 0.494068880355907 
588	 0.493969247162945 
589	 0.493682249215139 
590	 0.493379847476759 
591	 0.493188761741138 
592	 0.492816822440133 
593	 0.49217597360105 
594	 0.491637205451955 
595	 0.491261897331171 
596	 0.490969469428528 
597	 0.490677766810118 
598	 0.490630771660935 
599	 0.490881041727145 
600	 0.491175719957442 
601	 0.491005121978912 
602	 0.490937195147651 
603	 0.490924725438691 
604	 0.490847980032098 
605	 0.490722912719309 
606	 0.490665253688541 
607	 0.490671225399589 
608	 0.490678203766146 
609	 0.490702160453267 
610	 0.490737393592224 
611	 0.49073531284133 
612	 0.490590821328847 
613	 0.490497824633327 
614	 0.490497695737052 
615	 0.490567327752987 
616	 0.490609064893232 
617	 0.490790297611281 
618	 0.49111858592528 
619	 0.491477333140598 
620	 0.491737837278078 
621	 0.492067397770664 
622	 0.492527030987756 
623	 0.49287951551568 
624	 0.493380614685571 
625	 0.494044140732938 
626	 0.494779002911284 
627	 0.49548112334867 
628	 0.496231574915497 
629	 0.497000457152266 
630	 0.497650298181667 
631	 0.498458205934585 
632	 0.499403590423987 
633	 0.500391018013146 
634	 0.501305861277886 
635	 0.502235704895132 
636	 0.503274707204285 
637	 0.504476157599599 
638	 0.505655971384689 
639	 0.506719075191038 
640	 0.507785372423477 
641	 0.509197530420019 
642	 0.510642738940254 
643	 0.512090224408305 
644	 0.513592929928108 
645	 0.515170591195784 
646	 0.516923029395817 
647	 0.51880373021113 
648	 0.520656439792414 
649	 0.522297845029164 
650	 0.523842726719551 
651	 0.525422156097173 
652	 0.527199679918389 
653	 0.52905584285484 
654	 0.530837460478916 
655	 0.532500177633939 
656	 0.534267258612723 
657	 0.53625922299276 
658	 0.538242406804943 
659	 0.540103927120568 
660	 0.541827087709691 
661	 0.543637405673179 
662	 0.545564930234247 
663	 0.547332120453747 
664	 0.549169484684119 
665	 0.550999471622543 
666	 0.552705912046088 
667	 0.554436961882843 
668	 0.556250043067016 
669	 0.558085149302879 
670	 0.559816956385847 
671	 0.561511214319553 
672	 0.563207082383752 
673	 0.564898678840728 
674	 0.566544341878518 
675	 0.568202516216804 
676	 0.569830628222251 
677	 0.571363411196782 
678	 0.57289879166963 
679	 0.574418858217305 
680	 0.575894645756699 
681	 0.577294652133062 
682	 0.57870642065469 
683	 0.580193733308469 
684	 0.581736269349167 
685	 0.583114945734422 
686	 0.584338519872615 
687	 0.585695240478595 
688	 0.587368841459421 
689	 0.5886894283626 
690	 0.590025728777288 
691	 0.591662363683259 
692	 0.593570793385926 
693	 0.595753922551581 
694	 0.597758840414884 
695	 0.59914399195861 
696	 0.599775772647612 
697	 0.600266668833729 
698	 0.601167419892604 
699	 0.602785403258288 
700	 0.604214923191712 
701	 0.605306438411264 
702	 0.60609899937598 
703	 0.606776464171919 
704	 0.607512457957264 
705	 0.608267622538648 
706	 0.608984704284585 
707	 0.609684276552042 
708	 0.610449937401216 
709	 0.611242831587704 
710	 0.611970867743209 
711	 0.612669181538385 
712	 0.613391318917999 
713	 0.61418078796124 
714	 0.615075826287281 
715	 0.616450885412216 
716	 0.618789209757167 
717	 0.622154329445594 
718	 0.62520919786204 
719	 0.626810164074747 
720	 0.626509221434672 
721	 0.624969876803919 
722	 0.623906819007947 
723	 0.624638507254297 
724	 0.626797794546539 
725	 0.628090364765683 
726	 0.628438280258876 
727	 0.628527304570447 
728	 0.628850693498893 
729	 0.628910752559294 
730	 0.628998653212651 
731	 0.628827740811069 
732	 0.628055811476475 
733	 0.627087648996923 
734	 0.626636636915688 
735	 0.626688706244228 
736	 0.626628501405778 
737	 0.626900643489405 
738	 0.627138740228213 
739	 0.627096407728449 
740	 0.627025333373963 
741	 0.627036422053847 
742	 0.627089306414401 
743	 0.627143222590627 
744	 0.627467929080284 
745	 0.627756270193499 
746	 0.627983423148056 
747	 0.628331657861176 
748	 0.628589060060303 
749	 0.628814300767696 
750	 0.629046372775445 
751	 0.629224939772829 
752	 0.629460607075694 
753	 0.629745898289681 
754	 0.63001567056724 
755	 0.630118463121333 
756	 0.630373255101511 
757	 0.630743579054483 
758	 0.630948522534396 
759	 0.63046250857174 
760	 0.630100683541877 
761	 0.630780240613306 
762	 0.63210293320705 
763	 0.632317473854409 
764	 0.632249395080236 
765	 0.632467631679979 
766	 0.63226447651057 
767	 0.632201161069027 
768	 0.632260130989497 
769	 0.632278582709495 
770	 0.632169781290836 
771	 0.632282994813458 
772	 0.632483786390021 
773	 0.632292797250912 
774	 0.63246757823441 
775	 0.632647434017414 
776	 0.632591762537552 
777	 0.632546809503093 
778	 0.632769692579087 
779	 0.633004868851552 
780	 0.632998340760095 
781	 0.633079033844113 
782	 0.633028613083496 
783	 0.633005302779032 
784	 0.633283799015034 
785	 0.633444335477407 
786	 0.633684532544207 
787	 0.634036664308677 
788	 0.634315303289542 
789	 0.634756061475097 
790	 0.63512576164134 
791	 0.63520004817422 
792	 0.634934424697801 
793	 0.634796879898878 
794	 0.634810593357429 
795	 0.634887420021838 
796	 0.635205668894086 
797	 0.635435425018163 
798	 0.635482086240184 
799	 0.6354473622543 
800	 0.635642978707694 
801	 0.635851171625743 
802	 0.6359245282771 
803	 0.635876047039594 
804	 0.635876271837963 
805	 0.635866528568881 
806	 0.635784213756958 
807	 0.635636092115021 
808	 0.635772845801894 
809	 0.636227731613632 
810	 0.636933255129032 
811	 0.637914463741858 
812	 0.639180896811589 
813	 0.640722831621626 
814	 0.642427794159032 
815	 0.643693548430612 
816	 0.644464875691541 
817	 0.644706997827367 
818	 0.644396501386283 
819	 0.643751914608805 
820	 0.643094707061084 
821	 0.642718410450455 
822	 0.642869203780184 
823	 0.643186332230252 
824	 0.64323129959462 
825	 0.642757352338917 
826	 0.641985801477754 
827	 0.641776776293211 
828	 0.641968323599724 
829	 0.64202730295506 
830	 0.642186421431487 
831	 0.641953127186283 
832	 0.641387844951669 
833	 0.640960562349094 
834	 0.640653326829288 
835	 0.640279156143945 
836	 0.639866628851265 
837	 0.639699906136738 
838	 0.639437410238635 
839	 0.639166772017664 
840	 0.638982060896982 
841	 0.638820566548566 
842	 0.638695850219717 
843	 0.638537195657526 
844	 0.638349537699577 
845	 0.63845090402228 
846	 0.63860447946554 
847	 0.638617931775546 
848	 0.638422828271414 
849	 0.638426441913805 
850	 0.63838902741056 
851	 0.63835349684198 
852	 0.638528622940215 
853	 0.638469426166118 
854	 0.638346444126851 
855	 0.63841817094426 
856	 0.638879914034531 
857	 0.639011247925902 
858	 0.638788944267185 
859	 0.638504171129805 
860	 0.638708233836722 
861	 0.638721614794985 
862	 0.638659721651887 
863	 0.638688240900352 
864	 0.638557433201944 
865	 0.638615611930215 
866	 0.638754801776066 
867	 0.638875183990339 
868	 0.639585534663587 
869	 0.640113462725672 
870	 0.640207040504028 
871	 0.640044061649854 
872	 0.640340257468709 
873	 0.640657364529055 
874	 0.640855703878658 
875	 0.641045722845083 
876	 0.641145698939189 
877	 0.641316047542426 
878	 0.641485820613553 
879	 0.641402493730158 
880	 0.641708528144707 
881	 0.641960343727704 
882	 0.641980198995699 
883	 0.642160130820855 
884	 0.642446329369461 
885	 0.642502217955943 
886	 0.64232779757131 
887	 0.642608764853583 
888	 0.643158402028214 
889	 0.64375001737804 
890	 0.644240109087284 
891	 0.644716537109506 
892	 0.645695001602809 
893	 0.646814210093818 
894	 0.647658777237593 
895	 0.648775265114927 
896	 0.65001573627932 
897	 0.651445453733441 
898	 0.652959275858066 
899	 0.65341473676774 
900	 0.653618433773097 
901	 0.653675735573329 
902	 0.653418724080941 
903	 0.65352660159321 
904	 0.653301753880053 
905	 0.653065421581368 
906	 0.653602881621962 
907	 0.653952438939174 
908	 0.655393830462252 
909	 0.657073631287107 
910	 0.656720427698434 
911	 0.657092981272178 
912	 0.657937034460107 
913	 0.658395517268528 
914	 0.657679730943029 
915	 0.658016197375034 
916	 0.657714291318083 
917	 0.656636751820176 
918	 0.656707153473085 
919	 0.656119771490612 
920	 0.655227146297128 
921	 0.654663078552786 
922	 0.654899650572247 
923	 0.655271479542343 
924	 0.655841504474023 
925	 0.656860489350827 
926	 0.65861183639766 
927	 0.660007597350447 
928	 0.662007290309632 
929	 0.665064200727762 
930	 0.667730848492593 
931	 0.67164605201484 
932	 0.675538824181905 
933	 0.678142121943971 
934	 0.680428860857386 
935	 0.684138242189044 
936	 0.686856606832114 
937	 0.686981973613296 
938	 0.686665932707716 
939	 0.684956448406834 
940	 0.684042189501126 
941	 0.684437168236096 
942	 0.68251866424011 
943	 0.682231597854345 
944	 0.682776883891693 
945	 0.6829841232773 
946	 0.683543248846196 
947	 0.684430331326815 
948	 0.685551460359152 
949	 0.686349461589429 
950	 0.685532949350875 
951	 0.684085605806535 
952	 0.683958959607441 
953	 0.685397048185219 
954	 0.684939573731691 
955	 0.683915026215796 
956	 0.683550389602189 
957	 0.683880707515351 
958	 0.682786591173724 
959	 0.681181335666182 
960	 0.680393197261828 
961	 0.680111250689824 
962	 0.677175952977706 
963	 0.676495216989966 
964	 0.675361107667201 
965	 0.672544589751131 
966	 0.671878575624585 
967	 0.671941189557678 
968	 0.67113891346507 
969	 0.669217614833551 
970	 0.667970359916886 
971	 0.666610551007338 
972	 0.666287375515798 
973	 0.667043808644285 
974	 0.666986183802942 
975	 0.666549129014746 
976	 0.666362012293292 
977	 0.666306272011502 
978	 0.665448874436908 
979	 0.666105342307726 
980	 0.665749276363819 
981	 0.66381919607828 
982	 0.662625527911847 
983	 0.662778014006629 
984	 0.661560891129942 
985	 0.659891561908492 
986	 0.661320773885088 
987	 0.660015781123249 
988	 0.658592441605246 
989	 0.658617022361319 
990	 0.659644112332039 
991	 0.659175158853687 
992	 0.659137205836249 
993	 0.659194667933449 
994	 0.658066077846205 
995	 0.658476816310907 
996	 0.6581841182278 
997	 0.657388736671563 
998	 0.657466290180447 
999	 0.658800303912185 
1000	 0.65753758931046 
1001	 0.635796820920589 
1002	 0.635816908767565 
1003	 0.635782196400069 
1004	 0.63573292730788 
1005	 0.635718778678374 
1006	 0.635798186950917 
1007	 0.635722602309473 
1008	 0.635640987616962 
1009	 0.635458421172452 
1010	 0.634994212214937 
1011	 0.634889534556289 
1012	 0.634869021960663 
1013	 0.6346925710969 
1014	 0.634784843914188 
1015	 0.634643762218673 
1016	 0.634419539560913 
1017	 0.634271510863597 
1018	 0.634162744927398 
1019	 0.634077898210826 
1020	 0.6340162350263 
1021	 0.634057851739199 
1022	 0.634097729956855 
1023	 0.634118307058522 
1024	 0.634094222073335 
1025	 0.634448235207129 
1026	 0.634474856469184 
1027	 0.634341087848972 
1028	 0.634428526609378 
1029	 0.634252840860621 
1030	 0.63414962721682 
1031	 0.634331611989988 
1032	 0.634419247070851 
1033	 0.634526140998852 
1034	 0.634695745865903 
1035	 0.634823042021734 
1036	 0.634922298361409 
1037	 0.635051391996099 
1038	 0.6352139818031 
1039	 0.635281388770429 
1040	 0.635449445007363 
1041	 0.635630999323881 
1042	 0.635739412143031 
1043	 0.635769328768766 
1044	 0.635668130165201 
1045	 0.635545932821304 
1046	 0.635515127983923 
1047	 0.63545867270888 
1048	 0.635347877616566 
1049	 0.63526717419418 
1050	 0.635183052096549 
1051	 0.635043098763901 
1052	 0.634974464550323 
1053	 0.635029496784157 
1054	 0.635099407805312 
1055	 0.635117431025359 
1056	 0.634993496809504 
1057	 0.634775379991561 
1058	 0.634660376446584 
1059	 0.634623461269595 
1060	 0.634622659004855 
1061	 0.634692917621307 
1062	 0.634611414690715 
1063	 0.634333038712353 
1064	 0.634123270901145 
1065	 0.634060160990197 
1066	 0.634104371324092 
1067	 0.63411910117843 
1068	 0.634072545532459 
1069	 0.634137801580859 
1070	 0.634135601724975 
1071	 0.63394953427855 
1072	 0.63396593928301 
1073	 0.634110655312059 
1074	 0.633954427909988 
1075	 0.633757217707357 
1076	 0.633725979633425 
1077	 0.633659534841088 
1078	 0.633588145640725 
1079	 0.633557145111268 
1080	 0.633555377226707 
1081	 0.633620298930627 
1082	 0.633637343892818 
1083	 0.633775191342709 
1084	 0.633983498247832 
1085	 0.634131712541898 
1086	 0.634270207887532 
1087	 0.63431175827735 
1088	 0.634486314102346 
1089	 0.634788347519912 
1090	 0.634995639715004 
1091	 0.635297570896031 
1092	 0.63565621766141 
1093	 0.636034355880861 
1094	 0.636541801644398 
1095	 0.637071881495917 
1096	 0.637597845818179 
1097	 0.638164106614067 
1098	 0.63878046354018 
1099	 0.63942642536866 
1100	 0.640049835039551 
1101	 0.640624878743365 
1102	 0.641066368023702 
1103	 0.641746429056271 
1104	 0.642416854277743 
1105	 0.64314072491936 
1106	 0.644190423809194 
1107	 0.645105215880214 
1108	 0.646071299045847 
1109	 0.647365239100854 
1110	 0.648657730681997 
1111	 0.6501754630899 
1112	 0.651958036515618 
1113	 0.653886258771079 
1114	 0.656356665323993 
1115	 0.658662091969428 
1116	 0.661117154892222 
1117	 0.663506666541145 
1118	 0.66575548015493 
1119	 0.667773559981595 
1120	 0.669855075958935 
1121	 0.671615214678209 
1122	 0.672732955085769 
1123	 0.673407290788184 
1124	 0.673622213180042 
1125	 0.673599635528187 
1126	 0.673359031003963 
1127	 0.673029481108461 
1128	 0.67230789875837 
1129	 0.670872776359741 
1130	 0.670015336684055 
1131	 0.669174443003105 
1132	 0.668588780579187 
1133	 0.668128613053699 
1134	 0.668089958506896 
1135	 0.668206959769364 
1136	 0.668305984282478 
1137	 0.668630886748063 
1138	 0.669019119175532 
1139	 0.669516047530436 
1140	 0.670064497626334 
1141	 0.670794136839123 
1142	 0.671566847105178 
1143	 0.672156395491386 
1144	 0.672780440660115 
1145	 0.673047455674078 
1146	 0.673286956149222 
1147	 0.673045271785058 
1148	 0.672617104856385 
1149	 0.671637842385772 
1150	 0.670322037283503 
1151	 0.668641269804644 
1152	 0.666610778113646 
1153	 0.664303517548464 
1154	 0.661972649616494 
1155	 0.659636735828831 
1156	 0.657200130465894 
1157	 0.65491300116429 
1158	 0.652684371364154 
1159	 0.650402583364822 
1160	 0.648404060104532 
1161	 0.646531460291649 
1162	 0.644817818853593 
1163	 0.643182399444825 
1164	 0.641770335400616 
1165	 0.640431225542077 
1166	 0.639253072954959 
1167	 0.638219385140556 
1168	 0.637295586995495 
1169	 0.636387156869396 
1170	 0.635799518848132 
1171	 0.635292382544508 
1172	 0.634890748173539 
1173	 0.634539191759944 
1174	 0.634028417456049 
1175	 0.633586398469449 
1176	 0.633176208659722 
1177	 0.632901246548477 
1178	 0.632811605831221 
1179	 0.632648616016599 
1180	 0.632570684448962 
1181	 0.632366312028503 
1182	 0.632109476378184 
1183	 0.631829793560838 
1184	 0.631428950330744 
1185	 0.631164786038864 
1186	 0.630955110845006 
1187	 0.630723091158429 
1188	 0.630546209687073 
1189	 0.630405916032923 
1190	 0.630123255331596 
1191	 0.629722543355972 
1192	 0.629324618834433 
1193	 0.628845714663406 
1194	 0.628427320153938 
1195	 0.628061064264406 
1196	 0.627597886119602 
1197	 0.627091188726256 
1198	 0.626599249417679 
1199	 0.626020235038865 
1200	 0.625495770005396 
1201	 0.625039636150304 
1202	 0.624517916274792 
1203	 0.623989206793789 
1204	 0.623443264564027 
1205	 0.62283766685438 
1206	 0.622275761124921 
1207	 0.62167881421823 
1208	 0.621160402000636 
1209	 0.620724692708 
1210	 0.620266588797526 
1211	 0.619803343071835 
1212	 0.619432884015567 
1213	 0.619240041355158 
1214	 0.619107338469784 
1215	 0.619146011912315 
1216	 0.619389716766552 
1217	 0.619656133318469 
1218	 0.620049752025254 
1219	 0.620430649181703 
1220	 0.620826945807789 
1221	 0.621366463952389 
1222	 0.621986776700927 
1223	 0.622621641123569 
1224	 0.62342316416927 
1225	 0.624178609944429 
1226	 0.62494376119703 
1227	 0.625655556334504 
1228	 0.626380171506905 
1229	 0.627031397308236 
1230	 0.627782160951063 
1231	 0.628479292432286 
1232	 0.629069317512783 
1233	 0.629642468698773 
1234	 0.630221345410506 
1235	 0.630652240959185 
1236	 0.631201690410731 
1237	 0.631843685185874 
1238	 0.632479873825717 
1239	 0.633162017543585 
1240	 0.633731055449786 
1241	 0.634334110915721 
1242	 0.6348455305628 
1243	 0.635192583420815 
1244	 0.635608485962474 
1245	 0.635980125472368 
1246	 0.636431095430459 
1247	 0.636999199478345 
1248	 0.637444345189125 
1249	 0.637876192210113 
1250	 0.638302653836413 
1251	 0.638635808562936 
1252	 0.638950569642685 
1253	 0.639329074468021 
1254	 0.639788782668285 
1255	 0.640169060272713 
1256	 0.640561801357427 
1257	 0.640866513665862 
1258	 0.641080410149427 
1259	 0.641381308937633 
1260	 0.641648670359925 
1261	 0.641955111358702 
1262	 0.642355862385307 
1263	 0.642685856623228 
1264	 0.642974662804315 
1265	 0.643274986041349 
1266	 0.643567233275711 
1267	 0.643847383075908 
1268	 0.644178976484548 
1269	 0.644384685037883 
1270	 0.644540377788615 
1271	 0.644623289403671 
1272	 0.644543197257847 
1273	 0.644491936496125 
1274	 0.644462500126163 
1275	 0.644394856596581 
1276	 0.644403302134122 
1277	 0.644467928168838 
1278	 0.644513130150856 
1279	 0.644604144138086 
1280	 0.644626450452777 
1281	 0.644640731163848 
1282	 0.644609448040852 
1283	 0.644480902979935 
1284	 0.644450870243594 
1285	 0.644422458995485 
1286	 0.644433733444856 
1287	 0.644477481885242 
1288	 0.644582162169106 
1289	 0.644760985140102 
1290	 0.644902358992666 
1291	 0.645040285953773 
1292	 0.645250933191182 
1293	 0.645441805389556 
1294	 0.645702694737533 
1295	 0.645976971692048 
1296	 0.646499920726873 
1297	 0.646841977840417 
1298	 0.64715138068933 
1299	 0.647537413457961 
1300	 0.64791127258717 
1301	 0.648333848862497 
1302	 0.648868446971268 
1303	 0.649302030460927 
1304	 0.649673667688425 
1305	 0.650117820769124 
1306	 0.650505722356494 
1307	 0.651046181635692 
1308	 0.651761542564741 
1309	 0.65235632320416 
1310	 0.652971610696801 
1311	 0.653594098762751 
1312	 0.654161481493912 
1313	 0.654744573607463 
1314	 0.65535097510182 
1315	 0.655986421688913 
1316	 0.656594905302193 
1317	 0.657238238970151 
1318	 0.657937408368133 
1319	 0.658656881153042 
1320	 0.659329816911271 
1321	 0.660121291075266 
1322	 0.660999982020464 
1323	 0.661971471238974 
1324	 0.663005247888272 
1325	 0.664202464482432 
1326	 0.665346908977656 
1327	 0.666501823498894 
1328	 0.667806610979132 
1329	 0.669301730281299 
1330	 0.670591308205373 
1331	 0.672001400415768 
1332	 0.673141315895475 
1333	 0.673986902905159 
1334	 0.674827270649503 
1335	 0.675467795439048 
1336	 0.676194275567207 
1337	 0.676678891249478 
1338	 0.677540452921885 
1339	 0.678633924192953 
1340	 0.679890927601123 
1341	 0.681523398173578 
1342	 0.683411026600664 
1343	 0.685978499568897 
1344	 0.688605896388574 
1345	 0.691899668036072 
1346	 0.695817563889442 
1347	 0.700131414439147 
1348	 0.705197274220588 
1349	 0.71069052705249 
1350	 0.717565790475377 
1351	 0.724992951139163 
1352	 0.733159562456029 
1353	 0.742661643337715 
1354	 0.75156489225776 
1355	 0.764715404329034 
1356	 0.775710300333788 
1357	 0.79351383931554 
1358	 0.808430706231772 
1359	 0.836863655340813 
1360	 0.854723939609556 
1361	 0.89228147248246 
1362	 0.922924274184847 
1363	 0.965560014916261 
1364	 0.968684595028373 
1365	 0.972268622126792 
1366	 0.933630075377089 
1367	 0.930982020833606 
1368	 0.932312418338848 
1369	 0.93616538214082 
1370	 0.962662596946864 
1371	 0.965959772946406 
1372	 0.948388390886368 
1373	 0.94799397834238 
1374	 0.950253336384727 
1375	 0.955987793488283 
1376	 0.953393366801108 
1377	 0.956050026178001 
1378	 0.952329076706109 
1379	 0.935622953932986 
1380	 0.928632411588068 
1381	 0.929025882532656 
1382	 0.922570124127989 
1383	 0.911401801623897 
1384	 0.908890814654629 
1385	 0.908794990941303 
1386	 0.908480280595912 
1387	 0.915313313493469 
1388	 0.911769548920167 
1389	 0.904236235016258 
1390	 0.898062422226272 
1391	 0.88885243234109 
1392	 0.881793354732053 
1393	 0.876630995288281 
1394	 0.869425144307034 
1395	 0.861669366171687 
1396	 0.854130635009161 
1397	 0.844406557183244 
1398	 0.837874198535711 
1399	 0.832026033193398 
1400	 0.827217422504925 
1401	 0.826427486656826 
1402	 0.822558239267317 
1403	 0.81973311527897 
1404	 0.813896636944202 
1405	 0.807255013601754 
1406	 0.797871768841304 
1407	 0.789013358603142 
1408	 0.781205686710972 
1409	 0.773234054744111 
1410	 0.766215842386979 
1411	 0.760046611212273 
1412	 0.754747537931007 
1413	 0.748821300084512 
1414	 0.743304134092851 
1415	 0.738217889837216 
1416	 0.732725300863183 
1417	 0.728441693816353 
1418	 0.725074277405457 
1419	 0.7214163650917 
1420	 0.71810333972471 
1421	 0.714467461434631 
1422	 0.710657387380628 
1423	 0.707293841955912 
1424	 0.703336385897835 
1425	 0.700751035144728 
1426	 0.698735588309327 
1427	 0.696890675866608 
1428	 0.695423907838576 
1429	 0.694370247712627 
1430	 0.693515134904028 
1431	 0.692821363844994 
1432	 0.692631532994143 
1433	 0.692356068481361 
1434	 0.692137830222835 
1435	 0.691863758852669 
1436	 0.691957484067739 
1437	 0.691534195476894 
1438	 0.690942933774687 
1439	 0.690011154974172 
1440	 0.688781647516678 
1441	 0.687370711789996 
1442	 0.685625401174905 
1443	 0.684034502575431 
1444	 0.682333182804986 
1445	 0.680455092849345 
1446	 0.678646645898036 
1447	 0.676691321461171 
1448	 0.674714688464366 
1449	 0.672697762602098 
1450	 0.670769467855261 
1451	 0.668829216744629 
1452	 0.667012654147992 
1453	 0.665216217558211 
1454	 0.663624886855316 
1455	 0.661838816331899 
1456	 0.660850489354103 
1457	 0.660119105368632 
1458	 0.659650544801434 
1459	 0.659669844350291 
1460	 0.659647041499688 
1461	 0.659664352189677 
1462	 0.659938076685518 
1463	 0.660510831580883 
1464	 0.661111233152022 
1465	 0.662165267054506 
1466	 0.662748021510641 
1467	 0.663452631950877 
1468	 0.663509270510197 
1469	 0.663066038014142 
1470	 0.662332670325091 
1471	 0.661305225482039 
1472	 0.659764391220231 
1473	 0.657681804119726 
1474	 0.655649264188453 
1475	 0.653338599661893 
1476	 0.651007379942767 
1477	 0.648707043865448 
1478	 0.646361884626337 
1479	 0.643797028717574 
1480	 0.641417693031982 
1481	 0.639140373682804 
1482	 0.636989459233072 
1483	 0.635004594340377 
1484	 0.632998829982876 
1485	 0.630994062026328 
1486	 0.629173444622585 
1487	 0.627383856829523 
1488	 0.625773423196516 
1489	 0.624387652719194 
1490	 0.623208047883988 
1491	 0.622119839788336 
1492	 0.621208552811607 
1493	 0.620578564483189 
1494	 0.620011606996587 
1495	 0.61960454489927 
1496	 0.619337474255199 
1497	 0.619263925708157 
1498	 0.619292755434336 
1499	 0.619493946220983 
1500	 0.619953698588408 
1501	 0.620305737262151 
1502	 0.620715631993963 
1503	 0.621134651643807 
1504	 0.621523326447937 
1505	 0.622067615849362 
1506	 0.622750722536808 
1507	 0.623303844404341 
1508	 0.623896520329539 
1509	 0.624441359194473 
1510	 0.62490648030277 
1511	 0.625375089010909 
1512	 0.625889707863939 
1513	 0.62632939632369 
1514	 0.626660491936775 
1515	 0.627074129784505 
1516	 0.627534182177823 
1517	 0.627939237667001 
1518	 0.628399462606557 
1519	 0.628719815603345 
1520	 0.628932515848391 
1521	 0.629167819037497 
1522	 0.629289514329313 
1523	 0.629525202118046 
1524	 0.629872473519532 
1525	 0.630098670264226 
1526	 0.63029917827482 
1527	 0.630514250665262 
1528	 0.630617506314514 
1529	 0.630828599014795 
1530	 0.63115473609235 
1531	 0.63141825090267 
1532	 0.631668503588932 
1533	 0.631953246927339 
1534	 0.632282552971638 
1535	 0.632524585194754 
1536	 0.632694347707661 
1537	 0.632954504756204 
1538	 0.633152652810439 
1539	 0.633456050731759 
1540	 0.633959853606793 
1541	 0.63434677533887 
1542	 0.634646112786666 
1543	 0.635040200948283 
1544	 0.635496461106231 
1545	 0.635881419310089 
1546	 0.636248952984577 
1547	 0.636686771984529 
1548	 0.637156423911267 
1549	 0.637537707622947 
1550	 0.637952423258645 
1551	 0.638349793730221 
1552	 0.638584160568346 
1553	 0.638914930022467 
1554	 0.639375756139976 
1555	 0.639770456670855 
1556	 0.640209636069607 
1557	 0.640539078227994 
1558	 0.640703718194892 
1559	 0.640975727520653 
1560	 0.641262410205385 
1561	 0.641519176910667 
1562	 0.641876134675216 
1563	 0.642156253691036 
1564	 0.64232585030615 
1565	 0.642485874465165 
1566	 0.642725416323587 
1567	 0.643021188263468 
1568	 0.64328106667177 
1569	 0.64360639662578 
1570	 0.643836910287816 
1571	 0.64399693738496 
1572	 0.644194698036811 
1573	 0.644403497812967 
1574	 0.644532293065484 
1575	 0.64463557651888 
1576	 0.644699265346507 
1577	 0.64466382575162 
1578	 0.644739997227824 
1579	 0.644828563398505 
1580	 0.644961176046213 
1581	 0.645187199588707 
1582	 0.645271511494512 
1583	 0.64530580351971 
1584	 0.645389577271409 
1585	 0.645399461414745 
1586	 0.645521831966307 
1587	 0.645747856468047 
1588	 0.645908469871882 
1589	 0.646088016867857 
1590	 0.646204352410114 
1591	 0.646306606296946 
1592	 0.646347958406892 
1593	 0.64632053351049 
1594	 0.64632295746136 
1595	 0.646315816595958 
1596	 0.646257835014573 
1597	 0.646181330674668 
1598	 0.646094419971027 
1599	 0.64596995539844 
1600	 0.645808392952746 
1601	 0.645657385351696 
1602	 0.645420150709877 
1603	 0.645086883662428 
1604	 0.644787520688624 
1605	 0.644540749821667 
1606	 0.644058850669438 
1607	 0.643461555762293 
1608	 0.642875880107631 
1609	 0.642100393283353 
1610	 0.641483313784533 
1611	 0.640951919977581 
1612	 0.640389075038865 
1613	 0.639867280001538 
1614	 0.639257839267506 
1615	 0.638596925958289 
1616	 0.638020052407042 
1617	 0.637380225540641 
1618	 0.636870085729947 
1619	 0.636555240380872 
1620	 0.636008554816574 
1621	 0.635435196661783 
1622	 0.634750368415344 
1623	 0.633947394997492 
1624	 0.633075120179397 
1625	 0.63210285799556 
1626	 0.631168757600819 
1627	 0.630145795341058 
1628	 0.629136421738809 
1629	 0.628304055909911 
1630	 0.626969267649155 
1631	 0.625544074402763 
1632	 0.623552718123294 
1633	 0.621095161246485 
1634	 0.618377188648982 
1635	 0.615247109379688 
1636	 0.611864153241439 
1637	 0.608160852882781 
1638	 0.604179158805172 
1639	 0.59991183848115 
1640	 0.595224445688082 
1641	 0.590192077488689 
1642	 0.584921812155504 
1643	 0.579204469007794 
1644	 0.573509731562614 
1645	 0.567732097597523 
1646	 0.561630807912166 
1647	 0.555236281232124 
1648	 0.548984218471927 
1649	 0.542461820076988 
1650	 0.536285292003888 
1651	 0.530284847726648 
1652	 0.524361754995043 
1653	 0.518345384553614 
1654	 0.513100648426498 
1655	 0.507957894736614 
1656	 0.503984075302247 
1657	 0.500704147355025 
1658	 0.498254393734872 
1659	 0.496738124501994 
1660	 0.496152015339622 
1661	 0.496490284855046 
1662	 0.497837329662224 
1663	 0.49988164229617 
1664	 0.502683061067467 
1665	 0.505986990890512 
1666	 0.509412015421332 
1667	 0.512986162037661 
1668	 0.516558517565788 
1669	 0.520120390950935 
1670	 0.523640835598144 
1671	 0.527067130937092 
1672	 0.530099549847831 
1673	 0.532829935835961 
1674	 0.535529516246014 
1675	 0.538030527699253 
1676	 0.540227460904669 
1677	 0.542421302404163 
1678	 0.544384249137546 
1679	 0.54624163390245 
1680	 0.548424439210817 
1681	 0.550481412112018 
1682	 0.552361278162865 
1683	 0.554375599013558 
1684	 0.556083328680269 
1685	 0.557821219416122 
1686	 0.559800823288069 
1687	 0.561483393056787 
1688	 0.563224650278761 
1689	 0.564736663552203 
1690	 0.565826358237017 
1691	 0.566597479229953 
1692	 0.567064414030833 
1693	 0.567052234716502 
1694	 0.566594467547622 
1695	 0.565905533030886 
1696	 0.564722350583447 
1697	 0.563346623657257 
1698	 0.561504489877363 
1699	 0.559809477851844 
1700	 0.557843789700069 
1701	 0.556132575385757 
1702	 0.5545449129992 
1703	 0.553123362903797 
1704	 0.551750876022516 
1705	 0.550587196505898 
1706	 0.549759811573489 
1707	 0.548949075969271 
1708	 0.548209848133428 
1709	 0.547651087746244 
1710	 0.547279162444577 
1711	 0.546820889963525 
1712	 0.546575936334587 
1713	 0.546205720369757 
1714	 0.545733575312912 
1715	 0.545262345141025 
1716	 0.544657701673266 
1717	 0.544194550797325 
1718	 0.543700787528336 
1719	 0.543441628832951 
1720	 0.543438191503867 
1721	 0.543345151244287 
1722	 0.543383940135092 
1723	 0.543323576622945 
1724	 0.543139165044475 
1725	 0.543159972232708 
1726	 0.543132659696222 
1727	 0.543383279382102 
1728	 0.543799421548099 
1729	 0.544451900732899 
1730	 0.54534745109837 
1731	 0.546355309762364 
1732	 0.547734171134485 
1733	 0.549349677749082 
1734	 0.551155899807742 
1735	 0.553402030685277 
1736	 0.555565657072567 
1737	 0.557757916825903 
1738	 0.560096138074806 
1739	 0.56226006809299 
1740	 0.564426094041198 
1741	 0.566519388174995 
1742	 0.568446738097234 
1743	 0.570237663146158 
1744	 0.571858710366158 
1745	 0.573142970682339 
1746	 0.574242161083664 
1747	 0.575187673121405 
1748	 0.575820934761602 
1749	 0.576367160715028 
1750	 0.576941195189336 
1751	 0.577402011594352 
1752	 0.577912877227408 
1753	 0.578419725549626 
1754	 0.57864654990947 
1755	 0.578726152128196 
1756	 0.578709869571471 
1757	 0.578827291756869 
1758	 0.579140136092287 
1759	 0.579620943696306 
1760	 0.580146354720899 
1761	 0.580918828250267 
1762	 0.581446917771252 
1763	 0.581704347534905 
1764	 0.582471447872232 
1765	 0.583220844842207 
1766	 0.58421556585276 
1767	 0.585903104281768 
1768	 0.587290357119789 
1769	 0.588606302804766 
1770	 0.590092802973638 
1771	 0.591535298484146 
1772	 0.593193431616644 
1773	 0.595121150608803 
1774	 0.597140957309263 
1775	 0.599081149452189 
1776	 0.600883356528535 
1777	 0.602711507759769 
1778	 0.604176321483469 
1779	 0.605445698939465 
1780	 0.606721744978949 
1781	 0.60781510537433 
1782	 0.60934346352826 
1783	 0.611004104627527 
1784	 0.612292644268797 
1785	 0.613304464653032 
1786	 0.614115980594425 
1787	 0.615085741816418 
1788	 0.615993184324031 
1789	 0.617115170497378 
1790	 0.6187751992303 
1791	 0.620229200892544 
1792	 0.621705935896996 
1793	 0.623241702177296 
1794	 0.624148410088216 
1795	 0.6250996791122 
1796	 0.626689327187753 
1797	 0.629250219503334 
1798	 0.632760067958286 
1799	 0.63637095851606 
1800	 0.639881891864996 
1801	 0.634213598304951 
1802	 0.640014772615128 
1803	 0.643864514117033 
1804	 0.64709731782503 
1805	 0.651178445833719 
1806	 0.655007137160844 
1807	 0.659093297532065 
1808	 0.664401299373226 
1809	 0.668771229600714 
1810	 0.673648397205161 
1811	 0.678303351662481 
1812	 0.683377908472717 
1813	 0.688733484554102 
1814	 0.694392435269702 
1815	 0.699898374169563 
1816	 0.70588795503501 
1817	 0.71348673088399 
1818	 0.719960496531095 
1819	 0.72584080339222 
1820	 0.731306380917318 
1821	 0.735002839559715 
1822	 0.736018293098392 
1823	 0.736203835795817 
1824	 0.727034616202719 
1825	 0.728287008659312 
1826	 0.739110269779277 
1827	 0.744738295302795 
1828	 0.752434447814222 
1829	 0.777812999883115 
1830	 0.787203630277052 
1831	 0.764311391781042 
1832	 0.768634643717659 
1833	 0.78973283784195 
1834	 0.808230808525892 
1835	 0.852265918405021 
1836	 0.896405723916374 
1837	 0.920776073410653 
1838	 0.932063863943348 
1839	 0.927193002835997 
1840	 0.914095444307488 
1841	 0.878311736285417 
1842	 0.789074655159014 
1843	 0.764251734362319 
1844	 0.755328558160647 
1845	 0.751317630112472 
1846	 0.783892391086904 
1847	 0.79196611962754 
1848	 0.793369779424044 
1849	 0.778959673833248 
1850	 0.796153174614883 
1851	 0.808606909337406 
1852	 0.848752198863089 
1853	 0.962312041388563 
1854	 1.0051286835479 
1855	 1.04386200222925 
1856	 1.04282277130886 
1857	 0.958856676899065 
1858	 0.926101782563175 
1859	 0.919800243196311 
1860	 0.929135586986341 
1861	 0.91601636951453 
1862	 0.901915494740088 
1863	 0.911303040971411 
1864	 0.927848510614514 
1865	 0.926206524146576 
1866	 0.933989406736518 
1867	 0.973436731536482 
1868	 0.926582347495739 
1869	 0.889117344011513 
1870	 0.870002520277831 
1871	 0.865140014453133 
1872	 0.86031385811246 
1873	 0.876291680625764 
1874	 0.869312484234515 
1875	 0.845649523239903 
1876	 0.852073063532316 
1877	 0.864789233504967 
1878	 0.868057028803928 
1879	 0.894925865006403 
1880	 0.901543692974125 
1881	 0.903386022446389 
1882	 0.900996821096511 
1883	 0.896649372644662 
1884	 0.888118497892535 
1885	 0.880377579897628 
1886	 0.871824479716101 
1887	 0.859093661759811 
1888	 0.852176056242361 
1889	 0.841132828312666 
1890	 0.831691349828116 
1891	 0.825909525708944 
1892	 0.813946412988072 
1893	 0.788721038985305 
1894	 0.779258847978688 
1895	 0.77327585609175 
1896	 0.768392229938801 
1897	 0.775048912731036 
1898	 0.784500573764267 
1899	 0.790943177903338 
1900	 0.807415523627016 
1901	 0.81947136697115 
1902	 0.834957716123541 
1903	 0.860647183571908 
1904	 0.898524781736945 
1905	 0.908111359187627 
1906	 0.910724671853093 
1907	 0.913478803143099 
1908	 0.855754905330762 
1909	 0.794752327619018 
1910	 0.787030680515513 
1911	 0.757207945842349 
1912	 0.754098816780074 
1913	 0.778108957493342 
1914	 0.7748956409444 
1915	 0.770503946078459 
1916	 0.76172449348216 
1917	 0.749711930597433 
1918	 0.731852502424826 
1919	 0.721821329793791 
1920	 0.711040575532851 
1921	 0.699326685489931 
1922	 0.697002525745416 
1923	 0.691655144511883 
1924	 0.682853860254127 
1925	 0.681296543934473 
1926	 0.68796824617617 
1927	 0.684362284624097 
1928	 0.679157606033061 
1929	 0.674176465837911 
1930	 0.66731609245394 
1931	 0.656743882554598 
1932	 0.653334755615714 
1933	 0.653725216009016 
1934	 0.647381629834547 
1935	 0.63888105393287 
1936	 0.631493916052521 
1937	 0.620560317401002 
1938	 0.613276602083805 
1939	 0.607228724725912 
1940	 0.603059632654016 
1941	 0.600755405333931 
1942	 0.599994358118607 
1943	 0.599486611760814 
1944	 0.59703817776326 
1945	 0.593205577366559 
1946	 0.590299172444963 
1947	 0.586972279867349 
1948	 0.583047120182084 
1949	 0.580192434702206 
1950	 0.577805044226669 
1951	 0.57443665958368 
1952	 0.572177097004275 
1953	 0.570581487604145 
1954	 0.568655387936632 
1955	 0.566891614597895 
1956	 0.566211847465205 
1957	 0.56600577955656 
1958	 0.564609358713864 
1959	 0.562917429608075 
1960	 0.561546703715818 
1961	 0.560198104828818 
1962	 0.557803359244086 
1963	 0.555910417856207 
1964	 0.554805449858327 
1965	 0.553319598080048 
1966	 0.552560617916225 
1967	 0.551415420479354 
1968	 0.550073239906713 
1969	 0.549091342200708 
1970	 0.547407777497341 
1971	 0.546686238833011 
1972	 0.546718483563084 
1973	 0.54666788663883 
1974	 0.546143592261388 
1975	 0.54600521348112 
1976	 0.545365976853517 
1977	 0.54430155063489 
1978	 0.543633143233296 
1979	 0.54276233187475 
1980	 0.541595099666136 
1981	 0.540893815208698 
1982	 0.540077219605084 
1983	 0.539285543396527 
1984	 0.538253320192476 
1985	 0.537396951088243 
1986	 0.536657043713148 
1987	 0.536074662110462 
1988	 0.535475014948561 
1989	 0.53508611210961 
1990	 0.534754177771351 
1991	 0.533825337998715 
1992	 0.533211081987705 
1993	 0.532602532737325 
1994	 0.531368025700752 
1995	 0.530452718644657 
1996	 0.529786025369497 
1997	 0.529017484053323 
1998	 0.528029271265974 
1999	 0.527169086795417 
2000	 0.5257804687894 
2001	 0.524124075197178 
2002	 0.523342679592742 
2003	 0.523329887896477 
2004	 0.523647191883714 
2005	 0.524069036961473 
2006	 0.523981526737967 
2007	 0.523255778341423 
2008	 0.522418596797128 
2009	 0.52222840137004 
2010	 0.522468080991132 
2011	 0.52303372411399 
2012	 0.523533902487156 
2013	 0.524104905810337 
2014	 0.524263836475231 
2015	 0.524449569499725 
2016	 0.524433608266737 
2017	 0.523853716121176 
2018	 0.523810199805952 
2019	 0.523550039326413 
2020	 0.523140027470157 
2021	 0.522831962175601 
2022	 0.522606138661355 
2023	 0.522103125384439 
2024	 0.52225890368217 
2025	 0.522212546618505 
2026	 0.521963284818002 
2027	 0.521832403076135 
2028	 0.521258044955998 
2029	 0.520900353456305 
2030	 0.520946696419634 
2031	 0.521060381040256 
2032	 0.521208203574699 
2033	 0.521551288351688 
2034	 0.521743959794884 
2035	 0.521715168779138 
2036	 0.521537371454951 
2037	 0.521214321538913 
2038	 0.521181927350431 
2039	 0.521328753046572 
2040	 0.521693120499739 
2041	 0.522568226446042 
2042	 0.523093025428084 
2043	 0.52322160178904 
2044	 0.523035495557429 
2045	 0.522918290456989 
2046	 0.52231628672495 
2047	 0.522418322821216 
2048	 0.522949370177594 
2049	 0.523794969035329 
2050	 0.525121079012561 
2051	 0.525422853066678 
2052	 0.525013663606221 
2053	 0.525116939592993 
2054	 0.525213210951079 
2055	 0.525315571989447 
2056	 0.525906669027108 
2057	 0.526483511387357 
2058	 0.526464735345154 
2059	 0.526202985191319 
2060	 0.525680262042085 
2061	 0.525162778005217 
2062	 0.524506214471235 
2063	 0.523963494556775 
2064	 0.523497453337828 
2065	 0.523020505630641 
2066	 0.522100596589634 
2067	 0.520414178292176 
2068	 0.518981764860002 
2069	 0.5177722576936 
2070	 0.516357308180681 
2071	 0.514993878333023 
2072	 0.513569500257713 
2073	 0.512023346568967 
2074	 0.510505158181024 
2075	 0.509621617680945 
2076	 0.508965851309125 
2077	 0.508544859143554 
2078	 0.507968593709863 
2079	 0.5068048593973 
2080	 0.506054357520712 
2081	 0.505632603064206 
2082	 0.505489731615755 
2083	 0.505895356407286 
2084	 0.506444764460351 
2085	 0.506830269225619 
2086	 0.507457573230573 
2087	 0.508059116577452 
2088	 0.508710428349187 
2089	 0.508940919257776 
2090	 0.509856119966286 
2091	 0.510814085117041 
2092	 0.511102412949538 
2093	 0.512131381337231 
2094	 0.512821741854295 
2095	 0.512676708121243 
2096	 0.513318736720051 
2097	 0.513919935046869 
2098	 0.513909162483283 
2099	 0.51392062959416 
2100	 0.513492051684176 
2101	 0.512546157726781 
2102	 0.511551846047511 
2103	 0.510394215389691 
2104	 0.509082123144949 
2105	 0.50757018394626 
2106	 0.505598748274426 
2107	 0.503156118834324 
2108	 0.500729300544008 
2109	 0.498263873099781 
2110	 0.495496597471481 
2111	 0.492276385388027 
2112	 0.489163660684836 
2113	 0.486202318816056 
2114	 0.48290398052674 
2115	 0.479755999990249 
2116	 0.4772501859995 
2117	 0.474240861078404 
2118	 0.470418794298197 
2119	 0.467271569400953 
2120	 0.464608214324644 
2121	 0.461374586477842 
2122	 0.458170882971256 
2123	 0.455801078550871 
2124	 0.452841853195996 
2125	 0.448957406000038 
2126	 0.445292608455478 
2127	 0.441832254673255 
2128	 0.438784796904988 
2129	 0.437090508017524 
2130	 0.436098565502135 
2131	 0.435669328660088 
2132	 0.435676831725157 
2133	 0.435773589759818 
2134	 0.437150347264752 
2135	 0.439394739511065 
2136	 0.442456049527193 
2137	 0.44613187400612 
2138	 0.450649779259194 
2139	 0.454182372032807 
2140	 0.457480210601946 
2141	 0.460994351138289 
2142	 0.463756409952529 
2143	 0.466817939858755 
2144	 0.469192841246613 
2145	 0.470049685216221 
2146	 0.470484289580819 
2147	 0.470162042082772 
2148	 0.468652208795626 
2149	 0.467589334107822 
2150	 0.466476541456695 
2151	 0.464674200920515 
2152	 0.461982825902156 
2153	 0.460159579635593 
2154	 0.457963367773674 
2155	 0.456280848429273 
2156	 0.456265262140356 
2157	 0.456871590519127 
2158	 0.457816274993617 
2159	 0.459305651352749 
2160	 0.461084462672943 
2161	 0.464175945153202 
2162	 0.467955745858891 
2163	 0.471560154325972 
2164	 0.474899250447524 
2165	 0.478260145359463 
2166	 0.481685671114299 
2167	 0.483964599240254 
2168	 0.48569602994894 
2169	 0.487061435237169 
2170	 0.487563903180989 
2171	 0.486801883999886 
2172	 0.486494467011501 
2173	 0.486159641989118 
2174	 0.484638757301342 
2175	 0.482911700541889 
2176	 0.480955640417442 
2177	 0.478215947275167 
2178	 0.475429170263473 
2179	 0.473139933197494 
2180	 0.471672841896742 
2181	 0.471019756251726 
2182	 0.47095825391143 
2183	 0.471437897397657 
2184	 0.47235935114501 
2185	 0.473496614919465 
2186	 0.4747142626512 
2187	 0.476407353991416 
2188	 0.478877683153904 
2189	 0.480787105033078 
2190	 0.482432028290847 
2191	 0.485125591236309 
2192	 0.48749655815719 
2193	 0.488618302045501 
2194	 0.490834786690999 
2195	 0.492364000717793 
2196	 0.492557806980575 
2197	 0.493320113099804 
2198	 0.493595801680237 
2199	 0.492657163465899 
2200	 0.492329153372446 
2201	 0.492078472131587 
2202	 0.49061096451488 
2203	 0.490003390346438 
2204	 0.489385676408571 
2205	 0.487806605646434 
2206	 0.487182385079588 
2207	 0.486302374775787 
2208	 0.484682312690312 
2209	 0.482586363683997 
2210	 0.480499725729218 
2211	 0.477847454308133 
2212	 0.475166640011088 
2213	 0.472744807065907 
2214	 0.470422639716321 
2215	 0.467952170867511 
2216	 0.464994383120365 
2217	 0.461987123394072 
2218	 0.458802634464742 
2219	 0.454973173037738 
2220	 0.450536778578529 
2221	 0.445330825885472 
2222	 0.439886496809712 
2223	 0.434836993881805 
2224	 0.430064001639236 
2225	 0.425783945683857 
2226	 0.421390013309887 
2227	 0.41657992959809 
2228	 0.411496011545831 
2229	 0.406099820064384 
2230	 0.401043016064128 
2231	 0.396038959561472 
2232	 0.391473600602946 
2233	 0.386159877093964 
2234	 0.380753111443552 
2235	 0.374551427161962 
2236	 0.36825213480456 
2237	 0.362326613276299 
2238	 0.356005631421147 
2239	 0.350435913441386 
2240	 0.3450334334022 
2241	 0.339014510188876 
2242	 0.334064230570739 
2243	 0.328989413481889 
2244	 0.324467460868643 
2245	 0.322429421047776 
2246	 0.320551497595649 
2247	 0.318981514842006 
2248	 0.317936382595998 
2249	 0.315674146583633 
2250	 0.313851124884965 
2251	 0.313213015139908 
2252	 0.312756377584377 
2253	 0.312820611145413 
2254	 0.31297937562486 
2255	 0.312851445162554 
2256	 0.31309811633221 
2257	 0.313487864704064 
2258	 0.314116422429465 
2259	 0.315782502232688 
2260	 0.318275817048449 
2261	 0.320924084736718 
2262	 0.323639274562245 
2263	 0.325930115171415 
2264	 0.328191766617812 
2265	 0.330556831739167 
2266	 0.333114905543171 
2267	 0.335282352212552 
2268	 0.337337161381321 
2269	 0.339815596316901 
2270	 0.341716747814487 
2271	 0.344043388105904 
2272	 0.346779509295821 
2273	 0.348490777573441 
2274	 0.350455029694767 
2275	 0.352949904324335 
2276	 0.354074712714877 
2277	 0.355548110633136 
2278	 0.357669198205482 
2279	 0.357968608155303 
2280	 0.35869787638877 
2281	 0.359754277984765 
2282	 0.360383224282568 
2283	 0.362156612008812 
2284	 0.363247734888441 
2285	 0.363348339801406 
2286	 0.363501397188175 
2287	 0.363192921435067 
2288	 0.362240924460355 
2289	 0.361794328479053 
2290	 0.362170305626089 
2291	 0.362066387071006 
2292	 0.361877971438331 
2293	 0.361683012906014 
2294	 0.361217736924107 
2295	 0.360760628121249 
2296	 0.359618060399358 
2297	 0.358326096687226 
2298	 0.357638428084422 
2299	 0.35688319328231 
2300	 0.355647894112153 
2301	 0.354759894713435 
2302	 0.354450574464607 
2303	 0.353982279133838 
2304	 0.354783500313719 
2305	 0.355927452603336 
2306	 0.354531478583802 
2307	 0.353525830872402 
2308	 0.353119396465191 
2309	 0.350546222295682 
2310	 0.348994736945948 
2311	 0.349067443855447 
2312	 0.347720293223219 
2313	 0.347144892673562 
2314	 0.348172731907637 
2315	 0.347887779379198 
2316	 0.346270149396575 
2317	 0.344696549401327 
2318	 0.343216596907188 
2319	 0.341996175767231 
2320	 0.342111468378064 
2321	 0.341648354296232 
2322	 0.342137797762853 
2323	 0.341167363945736 
2324	 0.339291225966932 
2325	 0.336768771166271 
2326	 0.334390001202553 
2327	 0.333215038528469 
2328	 0.333507634219678 
2329	 0.333509726328116 
2330	 0.332735777886675 
2331	 0.332580249373721 
2332	 0.332158233563424 
2333	 0.330848579330228 
2334	 0.330896536671546 
2335	 0.332518243440928 
2336	 0.332999294275403 
2337	 0.333625192674187 
2338	 0.336841924479971 
2339	 0.339004250000075 
2340	 0.339061374586928 
2341	 0.341100248792358 
2342	 0.343132267107029 
2343	 0.343451575856753 
2344	 0.345523187828141 
2345	 0.347930428205179 
2346	 0.347838337478486 
2347	 0.347686849200641 
2348	 0.349465938672584 
2349	 0.350563543995519 
2350	 0.350184810052454 
2351	 0.350297378806499 
2352	 0.349272201391332 
2353	 0.347677736296818 
2354	 0.348938211412902 
2355	 0.350994273178288 
2356	 0.351459217732433 
2357	 0.35198692737691 
2358	 0.351525683707669 
2359	 0.350336747891878 
2360	 0.352428466378328 
2361	 0.354397154314711 
2362	 0.354593545046512 
2363	 0.355959215782969 
2364	 0.356298576569836 
2365	 0.356913136200909 
2366	 0.358137612691793 
2367	 0.358938559133529 
2368	 0.358938351035934 
2369	 0.357617049994763 
2370	 0.359768616078702 
2371	 0.362083280965553 
2372	 0.363768359399331 
2373	 0.367127616362221 
2374	 0.369433708151114 
2375	 0.369794548913347 
2376	 0.370804804783316 
2377	 0.371934375663941 
2378	 0.372301979319337 
2379	 0.371791514612392 
2380	 0.372796263118056 
2381	 0.375175490437103 
2382	 0.376601426491897 
2383	 0.379113249720394 
2384	 0.378136804946752 
2385	 0.373830486473952 
2386	 0.370835434155175 
2387	 0.366238985661771 
2388	 0.363282220086531 
2389	 0.361824556190196 
2390	 0.360665709629261 
2391	 0.359509197245575 
2392	 0.358489891295799 
2393	 0.358254290281939 
2394	 0.358493217595438 
2395	 0.358080388145226 
2396	 0.359626292501978 
2397	 0.364467933349921 
2398	 0.366366968362586 
2399	 0.367812698533158 
2400	 0.368730214843273 
2401	 0.368426034204295 
2402	 0.366351379125925 
2403	 0.365082356374162 
2404	 0.368381674619521 
2405	 0.373942890894594 
2406	 0.375471606373619 
2407	 0.376743734228134 
2408	 0.379782289712402 
2409	 0.377752068424726 
2410	 0.380180309804895 
2411	 0.383684558985968 
2412	 0.379414787799158 
2413	 0.379584679207557 
2414	 0.377071393844807 
2415	 0.369058496802176 
2416	 0.367172954497395 
2417	 0.364083755934937 
2418	 0.359099710587286 
2419	 0.35852862593041 
2420	 0.357784735239763 
2421	 0.355354891962881 
2422	 0.353942521378813 
2423	 0.353699660650129 
2424	 0.352177989866992 
2425	 0.345988284501076 
2426	 0.336457516894048 
2427	 0.330109596519573 
2428	 0.328699302807582 
2429	 0.335455472234865 
2430	 0.342754437552564 
2431	 0.340992058913048 
2432	 0.339343751119695 
2433	 0.326532736240177 
2434	 0.31880422918668 
2435	 0.315054866053417 
2436	 0.309890909065877 
2437	 0.30683510829052 
2438	 0.3008025151099 
2439	 0.291167938589308 
2440	 0.286337606202654 
2441	 0.280378173900368 
2442	 0.278728821687456 
2443	 0.284253982776194 
2444	 0.286426108769275 
2445	 0.286714040972874 
2446	 0.289882159275946 
2447	 0.294141742783159 
2448	 0.302713172664188 
2449	 0.321487426367606 
2450	 0.328558485439134 
2451	 0.333208776229051 
2452	 0.335682453969149 
2453	 0.322195570693889 
2454	 0.322326567454667 
2455	 0.330554883687044 
2456	 0.333537177035998 
2457	 0.34367799734742 
2458	 0.346238926023846 
2459	 0.337686193084222 
2460	 0.338549951045178 
2461	 0.341766491108189 
2462	 0.342622854176748 
2463	 0.348834572136536 
2464	 0.352415588838256 
2465	 0.352657911356315 
2466	 0.354870838352089 
2467	 0.358801683426105 
2468	 0.361911982399322 
2469	 0.362889456598928 
2470	 0.362752163733927 
2471	 0.359133813147749 
2472	 0.365525898500283 
2473	 0.379651260723393 
2474	 0.385154802718392 
2475	 0.397377676434893 
2476	 0.405819391048537 
2477	 0.400097482690741 
2478	 0.403995905145492 
2479	 0.418476301187756 
2480	 0.42376525311189 
2481	 0.414764158401655 
2482	 0.426431175460125 
2483	 0.459455272450158 
2484	 0.467567649221619 
2485	 0.487066553223409 
2486	 0.455761801654985 
2487	 0.380830228637944 
2488	 0.381648077017049 
2489	 0.386054853453149 
2490	 0.330343358961996 
2491	 0.373916125462937 
2492	 0.408546323614479 
2493	 0.344392319642906 
2494	 0.396114294320698 
2495	 0.445996008662463 
2496	 0.405652505872684 
2497	 0.431909393387557 
2498	 0.422730296763109 
2499	 0.365076183079283 
2500	 0.404426973031679 
