Wavelength	ref00012.asd
350	 1.44019188516212E-02 
351	 1.40884371488902E-02 
352	 1.30545462900914E-02 
353	 1.38706195963141E-02 
354	 1.36352488712213E-02 
355	 1.30993219526318E-02 
356	 1.30661540729587E-02 
357	 1.30619803716861E-02 
358	 1.30056411283664E-02 
359	 1.31410767627977E-02 
360	 1.35586872783266E-02 
361	 1.32339496088075E-02 
362	 1.31742763322464E-02 
363	 1.32801056755769E-02 
364	 1.27909931793213E-02 
365	 1.24092242824596E-02 
366	 1.25860018646309E-02 
367	 0.013055593870821 
368	 1.26472059005332E-02 
369	 1.25755150944114E-02 
370	 1.25856973664491E-02 
371	 1.23556094870051E-02 
372	 1.25027219315147E-02 
373	 1.24949818715959E-02 
374	 1.23602750176348E-02 
375	 1.23864622417096E-02 
376	 1.24300162543099E-02 
377	 1.23678777996747E-02 
378	 1.22843395109718E-02 
379	 1.24907150750777E-02 
380	 1.24249206384049E-02 
381	 1.25076297675313E-02 
382	 0.01290762572376 
383	 1.24811478846422E-02 
384	 1.24663918053322E-02 
385	 1.26775102873039E-02 
386	 1.24443179933381E-02 
387	 0.012401444340675 
388	 0.012708070669609 
389	 1.30507921155882E-02 
390	 1.27396499973942E-02 
391	 1.27057123343647E-02 
392	 1.27812164173136E-02 
393	 1.27693433936793E-02 
394	 1.28927751344743E-02 
395	 1.30195381729759E-02 
396	 1.31350940178311E-02 
397	 1.32312184153412E-02 
398	 1.31095911613194E-02 
399	 1.30332363124669E-02 
400	 0.013116937271897 
401	 1.33068613050643E-02 
402	 1.32631013873838E-02 
403	 0.013142604501443 
404	 1.31511653225335E-02 
405	 1.34623969448544E-02 
406	 1.37248290626392E-02 
407	 1.37674182483817E-02 
408	 1.36001918718642E-02 
409	 1.37355655475026E-02 
410	 0.013918533064933 
411	 1.40496007600511E-02 
412	 1.41945377108466E-02 
413	 1.42389002544394E-02 
414	 1.42621863729875E-02 
415	 1.43465496973034E-02 
416	 1.45213579896698E-02 
417	 1.47057637200922E-02 
418	 1.47326355908954E-02 
419	 1.45458719116858E-02 
420	 1.47329873905033E-02 
421	 1.49770649670354E-02 
422	 1.51025645744444E-02 
423	 1.51214282392263E-02 
424	 0.015344164756802 
425	 1.54588074356178E-02 
426	 1.53191265252821E-02 
427	 1.53470402842324E-02 
428	 1.55348959739754E-02 
429	 1.57126888284874E-02 
430	 1.57193917271558E-02 
431	 1.58214084632036E-02 
432	 1.59225524953106E-02 
433	 0.015998554592319 
434	 1.61027550892231E-02 
435	 1.62550334951493E-02 
436	 1.63698604270545E-02 
437	 1.64087144113107E-02 
438	 1.64540499936636E-02 
439	 0.016516032716306 
440	 1.66185823078538E-02 
441	 1.67618422678508E-02 
442	 1.68166842886375E-02 
443	 0.016903123413221 
444	 1.70267057466718E-02 
445	 1.70792735829415E-02 
446	 1.71850424511316E-02 
447	 1.73041573752141E-02 
448	 1.74011422952425E-02 
449	 1.75326039055167E-02 
450	 1.76110176715514E-02 
451	 1.76369557926024E-02 
452	 1.76627866516092E-02 
453	 1.77974171417617E-02 
454	 0.017907148089478 
455	 1.79786033924165E-02 
456	 1.81575584384073E-02 
457	 1.82888765917561E-02 
458	 1.83428841859508E-02 
459	 1.83501089801666E-02 
460	 1.84147090758703E-02 
461	 1.85334417935014E-02 
462	 1.86083449590954E-02 
463	 1.85331082178004E-02 
464	 1.86108159995616E-02 
465	 1.87030713782814E-02 
466	 1.87338637570531E-02 
467	 1.87923228702129E-02 
468	 1.88488407092517E-02 
469	 1.88955154114706E-02 
470	 1.89321072140994E-02 
471	 1.89607401154479E-02 
472	 1.90457030171904E-02 
473	 0.019148253193407 
474	 1.91706862371655E-02 
475	 1.92426534649283E-02 
476	 1.93162151559198E-02 
477	 1.93565018493194E-02 
478	 1.93957429218549E-02 
479	 1.94721342360011E-02 
480	 1.95966286075712E-02 
481	 1.97431112175916E-02 
482	 1.97747322907617E-02 
483	 0.019780583155968 
484	 1.98340715308743E-02 
485	 1.99730433243023E-02 
486	 2.00559389933741E-02 
487	 2.01122031206526E-02 
488	 0.020209584169488 
489	 2.04331342997153E-02 
490	 2.05532388452451E-02 
491	 2.06214161663312E-02 
492	 2.07885082127338E-02 
493	 2.09496856761349E-02 
494	 2.11489212094444E-02 
495	 0.021371647261412 
496	 2.15230898863168E-02 
497	 0.02187196823511 
498	 2.22173800624241E-02 
499	 2.23879462973215E-02 
500	 2.27056700143823E-02 
501	 2.30681957463508E-02 
502	 2.34717898517033E-02 
503	 2.39574578057537E-02 
504	 2.44006777972286E-02 
505	 2.48571546898266E-02 
506	 2.53660099997304E-02 
507	 2.59007251448155E-02 
508	 2.64868839731967E-02 
509	 2.71411757237716E-02 
510	 2.78645749575593E-02 
511	 0.028602795035145 
512	 0.029431286380774 
513	 3.03021224572184E-02 
514	 3.10818228133789E-02 
515	 3.20757992834298E-02 
516	 3.32027150148671E-02 
517	 3.43392546681329E-02 
518	 3.54463208659489E-02 
519	 3.66811275116168E-02 
520	 3.79443629982343E-02 
521	 3.90823925516229E-02 
522	 4.02513191349522E-02 
523	 0.041480496258018 
524	 4.27146724129669E-02 
525	 4.38028913154047E-02 
526	 4.49644340504002E-02 
527	 4.61462286912611E-02 
528	 4.72683763754199E-02 
529	 4.83684388442501E-02 
530	 4.94109395509006E-02 
531	 5.03609532448863E-02 
532	 5.12102321520007E-02 
533	 5.21419005571254E-02 
534	 5.30177231270421E-02 
535	 5.37696044494969E-02 
536	 5.45154620178876E-02 
537	 5.51750727043773E-02 
538	 5.57737368162823E-02 
539	 5.63555687293462E-02 
540	 5.68968153862787E-02 
541	 5.74794211715309E-02 
542	 5.80431772863861E-02 
543	 5.84252673221761E-02 
544	 5.88843167956469E-02 
545	 5.94037774146625E-02 
546	 5.99111503987782E-02 
547	 6.03114682875718E-02 
548	 6.07098960227674E-02 
549	 6.11101491437908E-02 
550	 0.061471856125108 
551	 6.17679764106217E-02 
552	 6.20146068688611E-02 
553	 6.22237203140174E-02 
554	 0.062396342810051 
555	 6.24694057206579E-02 
556	 6.24760586592091E-02 
557	 6.24563099469592E-02 
558	 6.23922197742349E-02 
559	 6.22540196069218E-02 
560	 6.20305564866087E-02 
561	 6.17250643488347E-02 
562	 6.13380944545457E-02 
563	 6.08838993074455E-02 
564	 6.03705013810731E-02 
565	 5.97871396135691E-02 
566	 5.93106630361066E-02 
567	 5.87970992510475E-02 
568	 5.80838162703698E-02 
569	 0.057484721832526 
570	 5.68350240913374E-02 
571	 5.61250834639909E-02 
572	 5.55002560849263E-02 
573	 5.48935631966858E-02 
574	 5.43320466096454E-02 
575	 5.38222647303718E-02 
576	 5.32938809188959E-02 
577	 5.27808830675651E-02 
578	 5.22894780113322E-02 
579	 5.18163800514289E-02 
580	 5.13959749909471E-02 
581	 0.050980733418524 
582	 5.05684605557735E-02 
583	 5.02245641961368E-02 
584	 4.99225511231385E-02 
585	 4.96362698069729E-02 
586	 4.93479779467456E-02 
587	 4.90712844418134E-02 
588	 4.87907166582817E-02 
589	 0.048489274684751 
590	 0.048165219555809 
591	 4.79122136357804E-02 
592	 4.77165417781332E-02 
593	 4.75432644363879E-02 
594	 4.73672770275034E-02 
595	 4.72085029653937E-02 
596	 4.70507982479129E-02 
597	 4.68805805432128E-02 
598	 4.67709427917976E-02 
599	 4.66080331199551E-02 
600	 0.046409076379494 
601	 4.63204978876438E-02 
602	 4.61580328776465E-02 
603	 4.59507362539762E-02 
604	 4.57460632895809E-02 
605	 4.55228523253523E-02 
606	 4.52299656965126E-02 
607	 4.48916708834106E-02 
608	 4.45673439592734E-02 
609	 4.42367643947756E-02 
610	 4.38999316624627E-02 
611	 4.35620035496406E-02 
612	 4.32311307299017E-02 
613	 4.28647229954287E-02 
614	 0.042460702508508 
615	 4.20429453054634E-02 
616	 4.16739174654794E-02 
617	 4.13063253076603E-02 
618	 4.09654312292691E-02 
619	 4.07105276436626E-02 
620	 4.04496655711703E-02 
621	 4.02549639619919E-02 
622	 4.01380295039161E-02 
623	 3.99484557767105E-02 
624	 3.97860990596773E-02 
625	 3.96972807870353E-02 
626	 3.96822668322818E-02 
627	 0.039613032715145 
628	 3.95568218372183E-02 
629	 3.95543595591472E-02 
630	 3.96024368123483E-02 
631	 3.95105323779376E-02 
632	 3.94068091691899E-02 
633	 0.039372631885248 
634	 3.92019504206281E-02 
635	 3.89791017469498E-02 
636	 3.87050428525293E-02 
637	 3.83556693289703E-02 
638	 3.79704174694117E-02 
639	 0.037502312268043 
640	 3.69625046723346E-02 
641	 3.64570598336091E-02 
642	 3.58408750818349E-02 
643	 3.52000478854558E-02 
644	 3.46288182590564E-02 
645	 3.40834301759802E-02 
646	 3.34926997875917E-02 
647	 3.29140663174955E-02 
648	 3.24723646552334E-02 
649	 3.20938695714004E-02 
650	 3.17692481427906E-02 
651	 3.15005231571128E-02 
652	 3.12802846850849E-02 
653	 3.11468083461259E-02 
654	 3.10243130343152E-02 
655	 3.08263462982592E-02 
656	 3.05997298784086E-02 
657	 3.03637567770606E-02 
658	 0.030088710247853 
659	 2.96874896588208E-02 
660	 2.93381454828389E-02 
661	 0.028916251334577 
662	 2.84086734827368E-02 
663	 2.80674369662706E-02 
664	 2.77543926395408E-02 
665	 2.73954485340028E-02 
666	 0.026982660436022 
667	 2.67389614991512E-02 
668	 2.65299928022851E-02 
669	 2.62870632471837E-02 
670	 2.60250157812449E-02 
671	 2.59181224182333E-02 
672	 2.58740994397935E-02 
673	 2.58130664188042E-02 
674	 2.58063731835234E-02 
675	 2.58045896723137E-02 
676	 2.58262681632974E-02 
677	 2.58939612338394E-02 
678	 2.58773310968472E-02 
679	 2.60130507009254E-02 
680	 2.63069139022467E-02 
681	 2.65136779405556E-02 
682	 2.68387370376363E-02 
683	 2.72919596496018E-02 
684	 0.027865968802556 
685	 2.86031559437985E-02 
686	 2.95774937963584E-02 
687	 3.08461623070031E-02 
688	 3.23106107984781E-02 
689	 0.033823607467841 
690	 3.55844161860739E-02 
691	 3.77652258356909E-02 
692	 4.03381112136583E-02 
693	 4.31891294700764E-02 
694	 4.63561946012567E-02 
695	 4.98434074780503E-02 
696	 5.35393939188389E-02 
697	 5.75021257561274E-02 
698	 6.17257804066339E-02 
699	 6.61539887241048E-02 
700	 7.08371139927286E-02 
701	 7.55124552910631E-02 
702	 8.01496704414474E-02 
703	 8.49939260341301E-02 
704	 0.089632182123245 
705	 9.41735411907415E-02 
706	 0.098790128268553 
707	 0.103375836252742 
708	 0.107890234149332 
709	 0.11233335359738 
710	 0.116709732639834 
711	 0.121149959618612 
712	 0.125500689630899 
713	 0.129768352353569 
714	 0.134161181285867 
715	 0.138367725076515 
716	 0.142538489215733 
717	 0.146905357868064 
718	 0.151197922174211 
719	 0.155436103421475 
720	 0.159528147592936 
721	 0.163442959981453 
722	 0.167250999474717 
723	 0.17107793594764 
724	 0.175019085734542 
725	 0.178666151360336 
726	 0.182240025830496 
727	 0.185740201709028 
728	 0.189170307278192 
729	 0.192315910149475 
730	 0.195471902271907 
731	 0.198513077641245 
732	 0.201249480938193 
733	 0.203932263462464 
734	 0.206481368583694 
735	 0.208936728501967 
736	 0.211375850214708 
737	 0.213526815424722 
738	 0.215571683692593 
739	 0.217640441436523 
740	 0.219489471872795 
741	 0.221245408372219 
742	 0.222894607463106 
743	 0.224406390861465 
744	 0.225957538798325 
745	 0.227321519519705 
746	 0.228470705213052 
747	 0.229545348616674 
748	 0.230658612052465 
749	 0.231687136850376 
750	 0.232575240685661 
751	 0.233440443875586 
752	 0.23422664835112 
753	 0.234916661404613 
754	 0.235531869165646 
755	 0.236186434465653 
756	 0.236771962113966 
757	 0.237343946225012 
758	 0.238105761948025 
759	 0.239655461084531 
760	 0.241016624200868 
761	 0.241228811645897 
762	 0.241049573651647 
763	 0.241060401657886 
764	 0.241046208391297 
765	 0.240874293130329 
766	 0.240926533883986 
767	 0.241020644603713 
768	 0.241193494382351 
769	 0.241490986879069 
770	 0.241697941938746 
771	 0.241889080053167 
772	 0.242116070687536 
773	 0.242388839271752 
774	 0.242555768607495 
775	 0.242748720297981 
776	 0.243010911708413 
777	 0.243161015284631 
778	 0.243400014996369 
779	 0.243619236056762 
780	 0.243712922970607 
781	 0.243899644804647 
782	 0.244076489955617 
783	 0.244239522920665 
784	 0.244432907428124 
785	 0.24464088066702 
786	 0.244803948950561 
787	 0.244912129839269 
788	 0.245017328079625 
789	 0.245280999171821 
790	 0.245531992875492 
791	 0.245680691705322 
792	 0.245950777221036 
793	 0.246161215108667 
794	 0.246324388898174 
795	 0.246490070525157 
796	 0.246587074986468 
797	 0.24673727699303 
798	 0.246939423777122 
799	 0.247117358434659 
800	 0.247261623513468 
801	 0.247409651133136 
802	 0.247594306353286 
803	 0.247829562265046 
804	 0.247952728357409 
805	 0.248086402951777 
806	 0.248317131160677 
807	 0.248546714097236 
808	 0.248698472009414 
809	 0.24884507626925 
810	 0.249057180077502 
811	 0.249178245075937 
812	 0.249380155752426 
813	 0.249657145769363 
814	 0.249883516431798 
815	 0.249945834127223 
816	 0.250041244374595 
817	 0.250235063692585 
818	 0.250409059203755 
819	 0.250503261432823 
820	 0.25059021231368 
821	 0.250751685923061 
822	 0.251050142190137 
823	 0.251052819964713 
824	 0.251027047505209 
825	 0.25127545239042 
826	 0.251605864383822 
827	 0.251825242490926 
828	 0.251943383182407 
829	 0.252042782310601 
830	 0.252053620795108 
831	 0.252156463104084 
832	 0.252365297505787 
833	 0.252559984749621 
834	 0.252728179896616 
835	 0.252797971637921 
836	 0.252824298765836 
837	 0.252999932552979 
838	 0.253215099772514 
839	 0.253483471723284 
840	 0.253747803870724 
841	 0.253766684080079 
842	 0.253937120050576 
843	 0.254206063903353 
844	 0.254420910622503 
845	 0.254591657604812 
846	 0.254706961449784 
847	 0.254826375546208 
848	 0.255019897145305 
849	 0.25523143711181 
850	 0.255461255139738 
851	 0.255673889190105 
852	 0.255816315517044 
853	 0.255914463815162 
854	 0.256010232618746 
855	 0.256138752320196 
856	 0.256321173251308 
857	 0.256636271770234 
858	 0.256807325147177 
859	 0.256793431346183 
860	 0.256982732453331 
861	 0.257223181001783 
862	 0.257378456608548 
863	 0.257450444252679 
864	 0.257793114994564 
865	 0.258146414321905 
866	 0.258179176335138 
867	 0.257822676477728 
868	 0.258035966768293 
869	 0.258228805797514 
870	 0.258234397383435 
871	 0.258212849089506 
872	 0.258776264299905 
873	 0.259130565995467 
874	 0.259117463236239 
875	 0.259110109564654 
876	 0.259305405646789 
877	 0.259437542598443 
878	 0.259477177904024 
879	 0.259659253842571 
880	 0.259849071522166 
881	 0.259989334260878 
882	 0.260058721482216 
883	 0.260081909727494 
884	 0.260356100335704 
885	 0.260521694951695 
886	 0.26042109430676 
887	 0.26050139200633 
888	 0.260536686668529 
889	 0.260628341624427 
890	 0.260835568292749 
891	 0.26091895882618 
892	 0.261019780437643 
893	 0.261239417812665 
894	 0.261541241310491 
895	 0.261441152624028 
896	 0.261587341530716 
897	 0.261674461059207 
898	 0.261291465615281 
899	 0.261629210288037 
900	 0.261538615838333 
901	 0.26122730929594 
902	 0.261438662074279 
903	 0.261420825083813 
904	 0.261703542581479 
905	 0.262163277183846 
906	 0.262287884736116 
907	 0.262136387961988 
908	 0.261890645806883 
909	 0.261772039840459 
910	 0.261954250767372 
911	 0.262161473942701 
912	 0.262389371777326 
913	 0.26251142180882 
914	 0.262346903781834 
915	 0.262567455781498 
916	 0.262668685643145 
917	 0.262466689063727 
918	 0.262329646523349 
919	 0.26260487940932 
920	 0.262707327571421 
921	 0.262594000545811 
922	 0.263016111852023 
923	 0.263209252083095 
924	 0.263045377371262 
925	 0.262717908689509 
926	 0.262697638242379 
927	 0.262618388474672 
928	 0.262455361173914 
929	 0.262371401516341 
930	 0.262723806675887 
931	 0.262648940957691 
932	 0.262105590141695 
933	 0.261486624160626 
934	 0.261478216756342 
935	 0.261191308995979 
936	 0.260775620977511 
937	 0.260466100704848 
938	 0.260071101746831 
939	 0.260462828702787 
940	 0.260811116574766 
941	 0.260306978179321 
942	 0.258904941432964 
943	 0.258571734770938 
944	 0.258765523405768 
945	 0.258730589474276 
946	 0.25877917555851 
947	 0.25911452598087 
948	 0.258729472621738 
949	 0.257405999995638 
950	 0.257069521190818 
951	 0.256758117793137 
952	 0.256193442597285 
953	 0.255556209717304 
954	 0.255576036631934 
955	 0.255450567445153 
956	 0.254962401355014 
957	 0.25416562054064 
958	 0.253309530279913 
959	 0.252304863103491 
960	 0.252013425047122 
961	 0.252677274790655 
962	 0.253112925866027 
963	 0.253306175875822 
964	 0.253402475531876 
965	 0.253482837028658 
966	 0.253410661280133 
967	 0.252572187445465 
968	 0.252086956467923 
969	 0.252455414456232 
970	 0.252671377211245 
971	 0.252687264018479 
972	 0.252727234857824 
973	 0.252709017158472 
974	 0.252080193004474 
975	 0.25131166340599 
976	 0.25217047774252 
977	 0.253900721195076 
978	 0.252843083226047 
979	 0.25299942905103 
980	 0.253153128007722 
981	 0.25282204229955 
982	 0.253034392495867 
983	 0.252475360249167 
984	 0.252646138515777 
985	 0.253752960390543 
986	 0.254513526345112 
987	 0.254680228129851 
988	 0.25452380691393 
989	 0.254571759092975 
990	 0.255178394746546 
991	 0.25493622179192 
992	 0.255221035021573 
993	 0.255408482216981 
994	 0.254412667534204 
995	 0.256151943219922 
996	 0.256865969742472 
997	 0.256607737832152 
998	 0.257042705780459 
999	 0.256797481531684 
1000	 0.257836277472903 
1001	 0.263532117034533 
1002	 0.263743109375689 
1003	 0.264068467070686 
1004	 0.264515120882858 
1005	 0.264852097088757 
1006	 0.26518682581511 
1007	 0.265519855676471 
1008	 0.265791429098954 
1009	 0.266144467693764 
1010	 0.266584015630154 
1011	 0.266958283019232 
1012	 0.267276426274733 
1013	 0.267501664884754 
1014	 0.267702452862079 
1015	 0.268038591000177 
1016	 0.268463927675585 
1017	 0.268949268493912 
1018	 0.269329576145255 
1019	 0.269632457739423 
1020	 0.269969109981183 
1021	 0.270258472884768 
1022	 0.270572581471086 
1023	 0.270894628750717 
1024	 0.271337101383707 
1025	 0.271614640110807 
1026	 0.271893870229034 
1027	 0.272257316046945 
1028	 0.272560718604388 
1029	 0.272858808676217 
1030	 0.27323225309391 
1031	 0.273533313104821 
1032	 0.273828258087141 
1033	 0.274172884857376 
1034	 0.274594657701429 
1035	 0.274920683847912 
1036	 0.275218323467573 
1037	 0.275531386141798 
1038	 0.275798770498399 
1039	 0.276132743513272 
1040	 0.276506488848381 
1041	 0.276840577394967 
1042	 0.277133822883907 
1043	 0.277454216717511 
1044	 0.277720815766262 
1045	 0.277928904487926 
1046	 0.278186436926703 
1047	 0.278393952735998 
1048	 0.278545058326636 
1049	 0.278769915369376 
1050	 0.279003028634061 
1051	 0.279241966967036 
1052	 0.279469457137302 
1053	 0.279772617612808 
1054	 0.280079059323121 
1055	 0.280283911530642 
1056	 0.280393836958471 
1057	 0.280484270408097 
1058	 0.280502756312116 
1059	 0.280508127586285 
1060	 0.2807405555333 
1061	 0.280956363662652 
1062	 0.28109534863571 
1063	 0.281365298915197 
1064	 0.281545587267385 
1065	 0.281703570428886 
1066	 0.28184260396034 
1067	 0.282011884393318 
1068	 0.282051780319819 
1069	 0.28212497477768 
1070	 0.28217533953506 
1071	 0.282222944049852 
1072	 0.282359711284125 
1073	 0.282477136641658 
1074	 0.282570547703079 
1075	 0.282604201122805 
1076	 0.282664927644154 
1077	 0.282742322247854 
1078	 0.282756030775908 
1079	 0.282784068660813 
1080	 0.282809443664982 
1081	 0.282858407358046 
1082	 0.282895802976481 
1083	 0.282934971939625 
1084	 0.282974911746576 
1085	 0.282999244349798 
1086	 0.28288936636868 
1087	 0.28284656272252 
1088	 0.282910117256985 
1089	 0.282938361898413 
1090	 0.283028533036343 
1091	 0.283109390862456 
1092	 0.283093362063794 
1093	 0.283050834981135 
1094	 0.283077921507473 
1095	 0.283109426447328 
1096	 0.283100000433637 
1097	 0.283126789993518 
1098	 0.283104826744978 
1099	 0.283030626379577 
1100	 0.282904990237894 
1101	 0.282798464347626 
1102	 0.282767451218992 
1103	 0.282738568758999 
1104	 0.282669806885543 
1105	 0.282620547234476 
1106	 0.282557532075346 
1107	 0.282560233213632 
1108	 0.282556380007064 
1109	 0.282567850011616 
1110	 0.282555391161024 
1111	 0.282524405662785 
1112	 0.282445165684991 
1113	 0.282364912749079 
1114	 0.282302974992148 
1115	 0.28219419115297 
1116	 0.282010030773436 
1117	 0.281812890229549 
1118	 0.28168085997409 
1119	 0.281421767448544 
1120	 0.280945457597016 
1121	 0.280444113395917 
1122	 0.279905946005164 
1123	 0.279304511249552 
1124	 0.278944918117995 
1125	 0.278614600565176 
1126	 0.278152495455826 
1127	 0.27777855998595 
1128	 0.277138977409409 
1129	 0.276302369944658 
1130	 0.275556686775988 
1131	 0.274793521195275 
1132	 0.273862376582707 
1133	 0.272904624712389 
1134	 0.27196933371284 
1135	 0.270845696918979 
1136	 0.269800740593629 
1137	 0.268925574004149 
1138	 0.267999411684107 
1139	 0.26697931161353 
1140	 0.265818511878161 
1141	 0.264520278190217 
1142	 0.263280176734108 
1143	 0.261997612466975 
1144	 0.260676828896883 
1145	 0.259320123771601 
1146	 0.257911375318492 
1147	 0.256514780333002 
1148	 0.255110390492009 
1149	 0.253819355795188 
1150	 0.252544606567229 
1151	 0.251469736875287 
1152	 0.250573783719594 
1153	 0.249718924637312 
1154	 0.248985431990862 
1155	 0.248335434838799 
1156	 0.247706426043899 
1157	 0.247132451225058 
1158	 0.246649882694167 
1159	 0.246258086571524 
1160	 0.245908495187283 
1161	 0.245620435227045 
1162	 0.245335207330079 
1163	 0.24506788599977 
1164	 0.244847569841972 
1165	 0.244664686417237 
1166	 0.24448124544218 
1167	 0.244320777368345 
1168	 0.244186720547226 
1169	 0.244059599646743 
1170	 0.243935387537571 
1171	 0.243836201910853 
1172	 0.243714630992262 
1173	 0.243650101076714 
1174	 0.243547540503841 
1175	 0.243380770609586 
1176	 0.243206414298988 
1177	 0.243046065176865 
1178	 0.242809038325313 
1179	 0.242655587825798 
1180	 0.242597548178377 
1181	 0.242467368067174 
1182	 0.24229876612228 
1183	 0.242159927272039 
1184	 0.242020204490015 
1185	 0.24188865832043 
1186	 0.241788417618635 
1187	 0.241660904662092 
1188	 0.241498569431973 
1189	 0.24138064461367 
1190	 0.241238626943912 
1191	 0.241105756216862 
1192	 0.241078526728606 
1193	 0.240987016299108 
1194	 0.2409331592199 
1195	 0.240926852092527 
1196	 0.240901796946138 
1197	 0.240834973164455 
1198	 0.240856910524761 
1199	 0.240936042236074 
1200	 0.240989886714246 
1201	 0.24106303180656 
1202	 0.241170635402693 
1203	 0.241273912687097 
1204	 0.241396125994328 
1205	 0.241542989762801 
1206	 0.24173533715529 
1207	 0.241943981852582 
1208	 0.242188883800518 
1209	 0.242511666947715 
1210	 0.242817643622401 
1211	 0.24313097107765 
1212	 0.243406305695019 
1213	 0.243684369385183 
1214	 0.243927232661971 
1215	 0.244257978017246 
1216	 0.244601824412112 
1217	 0.244986742863841 
1218	 0.245456364023502 
1219	 0.24588479317038 
1220	 0.246327550002922 
1221	 0.246744094345823 
1222	 0.247160904796988 
1223	 0.247560706904565 
1224	 0.247932778748754 
1225	 0.248310176902155 
1226	 0.248688590261925 
1227	 0.249057524970537 
1228	 0.249396524019166 
1229	 0.249760812951562 
1230	 0.250214230693493 
1231	 0.250596888578732 
1232	 0.250954901444299 
1233	 0.251308576822227 
1234	 0.251695314000621 
1235	 0.252052441851347 
1236	 0.252404234388764 
1237	 0.252834727512145 
1238	 0.253159003711234 
1239	 0.253383660829693 
1240	 0.253638687662146 
1241	 0.253869922634451 
1242	 0.254125526039138 
1243	 0.254360067140562 
1244	 0.254634277149955 
1245	 0.254965767028128 
1246	 0.255253595955573 
1247	 0.255554042887969 
1248	 0.255827381244437 
1249	 0.256048646435512 
1250	 0.256297149507389 
1251	 0.256541625702978 
1252	 0.256815434183226 
1253	 0.257048568749229 
1254	 0.257292359252447 
1255	 0.257496424248093 
1256	 0.257640682298198 
1257	 0.257839628984487 
1258	 0.258068632504668 
1259	 0.258252153728734 
1260	 0.258460417642539 
1261	 0.258606938164791 
1262	 0.258660851785145 
1263	 0.258774296630088 
1264	 0.258907017844331 
1265	 0.259000939291071 
1266	 0.259089142271969 
1267	 0.259176060143487 
1268	 0.259245870688402 
1269	 0.259286021073137 
1270	 0.259300242536024 
1271	 0.259336268282392 
1272	 0.259374015753883 
1273	 0.259370200318629 
1274	 0.259362699176743 
1275	 0.259397797417681 
1276	 0.259329652016998 
1277	 0.259167954751825 
1278	 0.259072625944088 
1279	 0.258967520152893 
1280	 0.258856697062235 
1281	 0.258785115903588 
1282	 0.258648356038957 
1283	 0.258476210806469 
1284	 0.258280354373903 
1285	 0.258031269230034 
1286	 0.257812972105692 
1287	 0.25762016340752 
1288	 0.257357813210797 
1289	 0.257065687277996 
1290	 0.256774697194296 
1291	 0.256432922038473 
1292	 0.256086718383668 
1293	 0.255721891148258 
1294	 0.255389697758729 
1295	 0.255096489184727 
1296	 0.25472984156394 
1297	 0.254338973706875 
1298	 0.253958108185496 
1299	 0.25354406736632 
1300	 0.253074176968397 
1301	 0.252560895602137 
1302	 0.252032628014697 
1303	 0.251489283848348 
1304	 0.250852263404813 
1305	 0.250261146426458 
1306	 0.249748922654845 
1307	 0.249117815356238 
1308	 0.248398183618916 
1309	 0.247706083607348 
1310	 0.246965278101477 
1311	 0.246233568025267 
1312	 0.245530956236935 
1313	 0.244785407647589 
1314	 0.244041788885817 
1315	 0.243229475402872 
1316	 0.242391529081477 
1317	 0.241490991204891 
1318	 0.24044576236822 
1319	 0.239478093112142 
1320	 0.238512555498975 
1321	 0.237520210631074 
1322	 0.236558551064807 
1323	 0.235630140235269 
1324	 0.234678029215069 
1325	 0.233707355067131 
1326	 0.232702718320893 
1327	 0.231690667965636 
1328	 0.230619994765262 
1329	 0.229504801123129 
1330	 0.228304311424436 
1331	 0.227042471374318 
1332	 0.225762937649203 
1333	 0.224332874905747 
1334	 0.223079008931849 
1335	 0.221822014434409 
1336	 0.220749734882111 
1337	 0.219861871055701 
1338	 0.218956975387475 
1339	 0.218126606193197 
1340	 0.217325440193349 
1341	 0.216494917782139 
1342	 0.215679946180525 
1343	 0.214774907883786 
1344	 0.213992390929868 
1345	 0.213219705181439 
1346	 0.212428750865166 
1347	 0.211850635484321 
1348	 0.211347571728732 
1349	 0.210729242497555 
1350	 0.210161673210214 
1351	 0.209342950157165 
1352	 0.208311830584352 
1353	 0.20707001544012 
1354	 0.20546629626003 
1355	 0.203523349581032 
1356	 0.20161362448709 
1357	 0.199464052551445 
1358	 0.199679128954531 
1359	 0.196788926101606 
1360	 0.192816890535733 
1361	 0.189293141469202 
1362	 0.186727675910532 
1363	 0.181852156857496 
1364	 0.188548637763532 
1365	 0.188934284784525 
1366	 0.180432348540339 
1367	 0.177515796842781 
1368	 0.184679299814942 
1369	 0.180357010981213 
1370	 0.169076910125664 
1371	 0.166019642143855 
1372	 0.159209742532913 
1373	 0.158372237274278 
1374	 0.162645065811264 
1375	 0.170305816126534 
1376	 0.171290391708677 
1377	 0.170557036907471 
1378	 0.169895444853313 
1379	 0.166574626108739 
1380	 0.162501797305908 
1381	 0.159641597942346 
1382	 0.153663260843642 
1383	 0.143815330944974 
1384	 0.137788626745274 
1385	 0.131661653960771 
1386	 0.129437631398566 
1387	 0.13144218023251 
1388	 0.128910073334261 
1389	 0.12668676492563 
1390	 0.124229481888532 
1391	 0.118874975432902 
1392	 0.116395850934857 
1393	 0.116630721543154 
1394	 0.114575494136939 
1395	 0.112073898835165 
1396	 0.109501115291515 
1397	 0.106749135060463 
1398	 0.102963089658548 
1399	 9.77788042185701E-02 
1400	 9.43465777808364E-02 
1401	 9.05784936195442E-02 
1402	 8.78467700978479E-02 
1403	 0.087773313266285 
1404	 8.60509994042497E-02 
1405	 8.34105298605794E-02 
1406	 0.08159135588937 
1407	 7.94371616649821E-02 
1408	 7.72016485485693E-02 
1409	 7.64893736902217E-02 
1410	 0.075554019024758 
1411	 7.43160098485146E-02 
1412	 7.32585148398988E-02 
1413	 7.20166816320071E-02 
1414	 7.04612737109884E-02 
1415	 6.93736733553068E-02 
1416	 6.84716688817099E-02 
1417	 6.75715340855714E-02 
1418	 6.66618487729525E-02 
1419	 6.59039022221796E-02 
1420	 6.52765287626536E-02 
1421	 6.46570029493474E-02 
1422	 6.40205772939527E-02 
1423	 6.35968260924537E-02 
1424	 6.31988104267754E-02 
1425	 0.062907810931841 
1426	 6.28789887081981E-02 
1427	 6.25851704611578E-02 
1428	 6.20849914356155E-02 
1429	 6.18316283290644E-02 
1430	 6.15958108120818E-02 
1431	 6.13789855545868E-02 
1432	 6.14046271917118E-02 
1433	 6.12003862501228E-02 
1434	 6.07824174736162E-02 
1435	 6.04968756814519E-02 
1436	 6.01620807429512E-02 
1437	 0.059915391926987 
1438	 5.97244238087916E-02 
1439	 5.96067654586156E-02 
1440	 5.96413312745597E-02 
1441	 5.95859702625729E-02 
1442	 5.95721731769013E-02 
1443	 5.94851372396072E-02 
1444	 5.93021749762023E-02 
1445	 5.91685521486325E-02 
1446	 5.92573006943407E-02 
1447	 5.94044694029705E-02 
1448	 5.94187721229603E-02 
1449	 5.95083563884475E-02 
1450	 0.059411984658755 
1451	 5.90958352334918E-02 
1452	 5.90651622101563E-02 
1453	 5.90959559901342E-02 
1454	 5.91590581015462E-02 
1455	 5.93434215770966E-02 
1456	 5.94279388658217E-02 
1457	 0.059437785702691 
1458	 5.95689862807011E-02 
1459	 5.97859357554049E-02 
1460	 5.99300060462166E-02 
1461	 6.01047804197247E-02 
1462	 6.02745511359062E-02 
1463	 6.04185428836867E-02 
1464	 6.05517242834656E-02 
1465	 6.06464994412833E-02 
1466	 6.08987083327988E-02 
1467	 6.11872451673079E-02 
1468	 6.14933736035709E-02 
1469	 6.19811590495069E-02 
1470	 6.23732263106063E-02 
1471	 6.25943393789189E-02 
1472	 0.062988032969049 
1473	 6.34537044660034E-02 
1474	 6.39137552087681E-02 
1475	 6.44483340564485E-02 
1476	 6.49113570148164E-02 
1477	 6.52854573972772E-02 
1478	 6.57587851325935E-02 
1479	 6.61949605539663E-02 
1480	 0.066736054937575 
1481	 6.74374800436221E-02 
1482	 6.80294129401658E-02 
1483	 6.86121586042902E-02 
1484	 6.91784981135343E-02 
1485	 6.96195159516005E-02 
1486	 7.01551204490009E-02 
1487	 7.07236942664416E-02 
1488	 7.13209989872837E-02 
1489	 7.19091872866395E-02 
1490	 7.25257065453433E-02 
1491	 7.31321601802383E-02 
1492	 0.073716678676838 
1493	 7.42767212379358E-02 
1494	 7.48370219346098E-02 
1495	 7.54009993737445E-02 
1496	 7.59481354800965E-02 
1497	 7.65176557462266E-02 
1498	 0.077113831129792 
1499	 7.77250980285763E-02 
1500	 7.83640731891704E-02 
1501	 7.89655400217964E-02 
1502	 7.95716619049956E-02 
1503	 8.02077804109345E-02 
1504	 0.080841032826097 
1505	 8.14583577438784E-02 
1506	 8.20935176255052E-02 
1507	 8.27363687064139E-02 
1508	 8.33408796627221E-02 
1509	 8.39795392364651E-02 
1510	 8.46760763422315E-02 
1511	 8.53282421519425E-02 
1512	 0.085956008629188 
1513	 8.65979539142349E-02 
1514	 8.72305212316205E-02 
1515	 8.78997535548025E-02 
1516	 8.86165109405116E-02 
1517	 8.92769819113642E-02 
1518	 8.99438571416519E-02 
1519	 0.090593543716146 
1520	 9.11813708919398E-02 
1521	 0.091825780780111 
1522	 9.25079994852119E-02 
1523	 9.31800194032366E-02 
1524	 0.093873956875682 
1525	 9.45453919540895E-02 
1526	 9.52267302255482E-02 
1527	 0.095869308474806 
1528	 9.64657778154515E-02 
1529	 9.70996686357285E-02 
1530	 9.77369306720425E-02 
1531	 0.098364663730359 
1532	 9.90062566110693E-02 
1533	 9.96525042938896E-02 
1534	 0.10027929121572 
1535	 0.100921539264009 
1536	 0.101628907872152 
1537	 0.102259455862607 
1538	 0.102838493814413 
1539	 0.103431265083108 
1540	 0.10396744961384 
1541	 0.10454470178072 
1542	 0.10512996033429 
1543	 0.105757147419858 
1544	 0.106465200763567 
1545	 0.107104345563473 
1546	 0.107740624516036 
1547	 0.10836685493457 
1548	 0.108961986700599 
1549	 0.109526396182828 
1550	 0.110065423409159 
1551	 0.110624152992932 
1552	 0.111162042553709 
1553	 0.111687274381485 
1554	 0.112214554630374 
1555	 0.112765000742127 
1556	 0.113301212483743 
1557	 0.113843995490968 
1558	 0.114416325774876 
1559	 0.114996905836033 
1560	 0.11559307646589 
1561	 0.116163744895347 
1562	 0.116776743460911 
1563	 0.117329257785047 
1564	 0.11784999520109 
1565	 0.11829401420504 
1566	 0.11871661693233 
1567	 0.119206281567616 
1568	 0.119783351100795 
1569	 0.120450576967335 
1570	 0.121023651374374 
1571	 0.12166856903718 
1572	 0.122170749401254 
1573	 0.122536358878205 
1574	 0.122990345329743 
1575	 0.123418754159917 
1576	 0.123901956145206 
1577	 0.124410820282466 
1578	 0.124913755373266 
1579	 0.125430906876026 
1580	 0.125952607741331 
1581	 0.126491610626648 
1582	 0.126970716693346 
1583	 0.127436538844168 
1584	 0.12790185731812 
1585	 0.12829921272678 
1586	 0.128799740679306 
1587	 0.129359923608799 
1588	 0.129903088249109 
1589	 0.130509405490552 
1590	 0.131006497058987 
1591	 0.131459653166524 
1592	 0.131920054504398 
1593	 0.132341336306552 
1594	 0.132743719358294 
1595	 0.133131701371068 
1596	 0.133551188461837 
1597	 0.133913883660805 
1598	 0.134391700315038 
1599	 0.134976254642583 
1600	 0.13549128720378 
1601	 0.136061480031309 
1602	 0.136507008770152 
1603	 0.136851465814422 
1604	 0.137279223122557 
1605	 0.137701275732201 
1606	 0.138067644112524 
1607	 0.138409504554429 
1608	 0.138853583633835 
1609	 0.139281951945685 
1610	 0.139703190947217 
1611	 0.140231109799603 
1612	 0.140684422276835 
1613	 0.141069264288727 
1614	 0.141422299103524 
1615	 0.141768030155303 
1616	 0.142151104399546 
1617	 0.142444719889731 
1618	 0.142843861996225 
1619	 0.143386126217304 
1620	 0.143794541280211 
1621	 0.144164323280659 
1622	 0.144514918223072 
1623	 0.144815397962793 
1624	 0.145155218837574 
1625	 0.145483203264279 
1626	 0.145822678660492 
1627	 0.146188565404695 
1628	 0.146532303979292 
1629	 0.146872815016182 
1630	 0.147209307780471 
1631	 0.147547086478419 
1632	 0.147862306069333 
1633	 0.148181637384346 
1634	 0.148453088791229 
1635	 0.148689345600533 
1636	 0.148934910383552 
1637	 0.149147454914027 
1638	 0.149364940530868 
1639	 0.149581414454721 
1640	 0.149819096829724 
1641	 0.150053460204455 
1642	 0.150275317503344 
1643	 0.150527960577198 
1644	 0.15073037753 
1645	 0.150864399427066 
1646	 0.151086758285175 
1647	 0.151364922500153 
1648	 0.151530718262288 
1649	 0.151693585489198 
1650	 0.15184015143368 
1651	 0.151886760869829 
1652	 0.151988005917067 
1653	 0.152135313020534 
1654	 0.152250177809414 
1655	 0.15233726777718 
1656	 0.152444136940313 
1657	 0.152561524193183 
1658	 0.152622420890261 
1659	 0.152781650574406 
1660	 0.152844493999847 
1661	 0.152956137822989 
1662	 0.153114498136229 
1663	 0.153055201320077 
1664	 0.152979416294335 
1665	 0.153049477855896 
1666	 0.153033002442189 
1667	 0.152995255250684 
1668	 0.153073338905637 
1669	 0.152975198349464 
1670	 0.152872290613727 
1671	 0.152867749959693 
1672	 0.152723450512611 
1673	 0.152611226923826 
1674	 0.152603417973271 
1675	 0.152580016413254 
1676	 0.152486304724656 
1677	 0.152366251427801 
1678	 0.152132155077856 
1679	 0.151768291964765 
1680	 0.151488735350887 
1681	 0.151210358345875 
1682	 0.150886320756663 
1683	 0.150649005067145 
1684	 0.150371083113154 
1685	 0.150102027613955 
1686	 0.149899982368692 
1687	 0.149575542455633 
1688	 0.149314791848413 
1689	 0.149127546672653 
1690	 0.148787403661571 
1691	 0.148449536989585 
1692	 0.148036739831603 
1693	 0.147658432452283 
1694	 0.147311529064206 
1695	 0.146954920373771 
1696	 0.146640628100973 
1697	 0.146239421755348 
1698	 0.145745160192399 
1699	 0.145299526505577 
1700	 0.144835242405546 
1701	 0.144381379284139 
1702	 0.143885285382229 
1703	 0.143535138342057 
1704	 0.143332137950547 
1705	 0.142978744472546 
1706	 0.142687251534105 
1707	 0.142323548994082 
1708	 0.141749761508344 
1709	 0.141301500286008 
1710	 0.140934760780219 
1711	 0.140556720110445 
1712	 0.140208393703711 
1713	 0.139817687528136 
1714	 0.139380593699339 
1715	 0.139031505046489 
1716	 0.138716442491274 
1717	 0.138390364181421 
1718	 0.138124940701939 
1719	 0.137800719284162 
1720	 0.137392539531968 
1721	 0.137066296804623 
1722	 0.136804705284959 
1723	 0.136532088817057 
1724	 0.136268046155513 
1725	 0.136034453373414 
1726	 0.135802526710857 
1727	 0.135559090037201 
1728	 0.135313422321196 
1729	 0.135176169403507 
1730	 0.13510545572 
1731	 0.134939500928055 
1732	 0.134828616629776 
1733	 0.134567767617466 
1734	 0.134323549176537 
1735	 0.1343021584098 
1736	 0.13427108544929 
1737	 0.134104171517517 
1738	 0.133889155911311 
1739	 0.133641404709914 
1740	 0.13339903385283 
1741	 0.133165751875361 
1742	 0.132942966403942 
1743	 0.132683902465064 
1744	 0.132259639942604 
1745	 0.131937136010688 
1746	 0.131643092411685 
1747	 0.131086342990208 
1748	 0.130563928346789 
1749	 0.130149187796226 
1750	 0.129735467932537 
1751	 0.129426948703019 
1752	 0.129150629008111 
1753	 0.128770195601315 
1754	 0.128256116852224 
1755	 0.12785428937115 
1756	 0.127616851192542 
1757	 0.127343007898936 
1758	 0.12700919306809 
1759	 0.126627662433387 
1760	 0.126269594306859 
1761	 0.125760901399247 
1762	 0.125470958933714 
1763	 0.125371776518168 
1764	 0.12524392859736 
1765	 0.12531130344257 
1766	 0.12523888307951 
1767	 0.12505648077779 
1768	 0.124988468825042 
1769	 0.124956109564919 
1770	 0.124753557216304 
1771	 0.124503949022648 
1772	 0.124237010858615 
1773	 0.123772862360263 
1774	 0.123749667969667 
1775	 0.123696672215899 
1776	 0.123746614420081 
1777	 0.123566634362942 
1778	 0.123282212688559 
1779	 0.123153167222501 
1780	 0.122954660226613 
1781	 0.12292380462234 
1782	 0.122960423997668 
1783	 0.1231474906232 
1784	 0.123443339342759 
1785	 0.123377537655954 
1786	 0.123360341704483 
1787	 0.123354838311137 
1788	 0.123311487650835 
1789	 0.123549602331927 
1790	 0.123623706993208 
1791	 0.123606657592017 
1792	 0.123584812202642 
1793	 0.123493826372329 
1794	 0.123763942269455 
1795	 0.124150059779448 
1796	 0.124337921957682 
1797	 0.12432270047783 
1798	 0.124259488144301 
1799	 0.123913141898108 
1800	 0.123620728653265 
1801	 0.120250674695856 
1802	 0.119996479016777 
1803	 0.120246658843711 
1804	 0.121191678147888 
1805	 0.121593686837683 
1806	 0.122482449988732 
1807	 0.12283364195744 
1808	 0.122160647650278 
1809	 0.121973205727013 
1810	 0.121570269556743 
1811	 0.120754553127509 
1812	 0.120428249173536 
1813	 0.120493671356435 
1814	 0.120010161882346 
1815	 0.11891957968873 
1816	 0.119123566565432 
1817	 0.120082920282427 
1818	 0.1206010561142 
1819	 0.121503639306188 
1820	 0.124629423360015 
1821	 0.125752144472987 
1822	 0.125130011808726 
1823	 0.125064939848862 
1824	 0.124096063189251 
1825	 0.124032724581362 
1826	 0.124502925850032 
1827	 0.124310751655012 
1828	 0.124086858628219 
1829	 0.124988784168062 
1830	 0.12528690563293 
1831	 0.12208215921672 
1832	 0.123241767248245 
1833	 0.133737495920974 
1834	 0.138916827276374 
1835	 0.13763910380103 
1836	 0.144458374803577 
1837	 0.162665378550957 
1838	 0.162317954862633 
1839	 0.152956476563913 
1840	 0.141875322942548 
1841	 0.127321923120295 
1842	 7.53145553987323E-02 
1843	 6.68001636770156E-02 
1844	 0.085434640599849 
1845	 9.59522395105599E-02 
1846	 0.127133690609231 
1847	 0.140932167667089 
1848	 0.149403986129813 
1849	 0.142524986426313 
1850	 0.165336107408033 
1851	 0.214596902345351 
1852	 0.216216856357943 
1853	 0.202199807844849 
1854	 0.203594213479121 
1855	 0.178246568836603 
1856	 0.163854134320661 
1857	 0.164491670341359 
1858	 0.184099677399841 
1859	 0.178585703298096 
1860	 0.148510657767719 
1861	 0.144962671152206 
1862	 0.153085505396305 
1863	 0.152337301581441 
1864	 0.153731989680095 
1865	 0.157695728656011 
1866	 0.173220824801572 
1867	 0.161033204003235 
1868	 0.16192321458854 
1869	 0.156745954217086 
1870	 0.128118085260546 
1871	 5.42857407461525E-02 
1872	 3.18755558453716E-02 
1873	 3.11183862253279E-02 
1874	 2.20600568675288E-02 
1875	 2.75184426014424E-02 
1876	 3.35439335186159E-02 
1877	 3.60686247577407E-02 
1878	 3.55710004109665E-02 
1879	 4.34630675218094E-02 
1880	 5.15705152680446E-02 
1881	 5.33949962018157E-02 
1882	 5.18141238530515E-02 
1883	 5.09683966002147E-02 
1884	 4.82242852190468E-02 
1885	 4.65934615760503E-02 
1886	 4.50423332550264E-02 
1887	 4.47422917052338E-02 
1888	 4.11072941286118E-02 
1889	 3.95528067740375E-02 
1890	 3.82922893612746E-02 
1891	 3.68966520640083E-02 
1892	 3.47985410319505E-02 
1893	 3.28751519348935E-02 
1894	 3.23007594238922E-02 
1895	 2.77759664972802E-02 
1896	 2.88999098650664E-02 
1897	 3.97832109035828E-02 
1898	 4.79695567537605E-02 
1899	 0.049544638031078 
1900	 5.19626314326145E-02 
1901	 4.63080977837777E-02 
1902	 1.33734153396716E-02 
1903	 5.11799352973945E-03 
1904	 1.02110387092042E-02 
1905	 1.36762350963988E-02 
1906	 3.36445261274933E-02 
1907	 4.49554834955142E-02 
1908	 3.58854803563359E-02 
1909	 1.91532663439182E-02 
1910	 1.94860313510513E-02 
1911	 2.44065605141193E-02 
1912	 2.77812286753292E-02 
1913	 4.06848278980602E-02 
1914	 4.07345589061614E-02 
1915	 3.26628109219843E-02 
1916	 3.18377902002312E-02 
1917	 3.20627618124495E-02 
1918	 3.20279626231996E-02 
1919	 3.24151080481181E-02 
1920	 3.18967383505899E-02 
1921	 2.83758945713131E-02 
1922	 2.59732094266991E-02 
1923	 2.37517562444409E-02 
1924	 2.05816149455832E-02 
1925	 2.05426004666267E-02 
1926	 0.021099290681859 
1927	 2.10827899916916E-02 
1928	 2.23915973102069E-02 
1929	 2.50877695592024E-02 
1930	 2.27566298185621E-02 
1931	 2.38453979333189E-02 
1932	 2.47839456359506E-02 
1933	 2.20910408187778E-02 
1934	 2.20902357164875E-02 
1935	 0.023406671453547 
1936	 2.35986383397496E-02 
1937	 2.40760363188948E-02 
1938	 2.43871656019073E-02 
1939	 2.38650058369495E-02 
1940	 2.43688239197863E-02 
1941	 0.025201764216608 
1942	 2.50521521073472E-02 
1943	 2.48149348503386E-02 
1944	 2.38925795899228E-02 
1945	 2.31585872821572E-02 
1946	 2.30193342916554E-02 
1947	 2.29587702697944E-02 
1948	 2.32320555216226E-02 
1949	 0.023542816704132 
1950	 2.42082752225941E-02 
1951	 2.45317080429616E-02 
1952	 2.34885295469648E-02 
1953	 2.34573603246934E-02 
1954	 2.28763179553942E-02 
1955	 2.21052675445242E-02 
1956	 2.31831714143635E-02 
1957	 2.37182405689219E-02 
1958	 2.42279795757375E-02 
1959	 2.48184028369989E-02 
1960	 2.51242363551414E-02 
1961	 2.52341312565739E-02 
1962	 2.54647060570571E-02 
1963	 2.52324722769157E-02 
1964	 2.56008875481402E-02 
1965	 2.59863809690337E-02 
1966	 2.59844105311983E-02 
1967	 0.026062275507307 
1968	 2.60770917540717E-02 
1969	 2.62163108344085E-02 
1970	 2.63455668831703E-02 
1971	 2.64720872839671E-02 
1972	 0.026657801499232 
1973	 2.69570024369758E-02 
1974	 2.72031674455113E-02 
1975	 0.027565334983755 
1976	 2.81330392324224E-02 
1977	 2.83732082686432E-02 
1978	 2.84822939373236E-02 
1979	 2.86947524581675E-02 
1980	 2.88244172190679E-02 
1981	 0.028983984773276 
1982	 2.91698367530977E-02 
1983	 2.93663932261372E-02 
1984	 2.95133396514255E-02 
1985	 2.97317900264782E-02 
1986	 2.98824795536644E-02 
1987	 2.99680202846563E-02 
1988	 3.01416825634829E-02 
1989	 3.03580910827315E-02 
1990	 3.06854310953611E-02 
1991	 0.030980805273196 
1992	 3.10921787705209E-02 
1993	 3.10652912915793E-02 
1994	 0.031254389449574 
1995	 3.14377554047822E-02 
1996	 3.17723750373318E-02 
1997	 3.18411750916433E-02 
1998	 3.20156367681039E-02 
1999	 3.22138390548856E-02 
2000	 3.21591573499825E-02 
2001	 3.27158859273603E-02 
2002	 3.36707789576794E-02 
2003	 3.39715546041386E-02 
2004	 0.034209441736109 
2005	 3.45829581498157E-02 
2006	 3.50786186373776E-02 
2007	 3.55772189920811E-02 
2008	 3.60024802578094E-02 
2009	 3.62900906104973E-02 
2010	 3.68112467470878E-02 
2011	 3.65793389716413E-02 
2012	 3.66308770356391E-02 
2013	 3.71473285940778E-02 
2014	 3.72039899891505E-02 
2015	 0.037438968702604 
2016	 3.74236788872507E-02 
2017	 3.72531373987794E-02 
2018	 3.75162745032612E-02 
2019	 3.77454124476594E-02 
2020	 3.80275080770971E-02 
2021	 3.82379033080448E-02 
2022	 3.86211999961885E-02 
2023	 3.87335805000367E-02 
2024	 3.86634848740304E-02 
2025	 3.87800935822344E-02 
2026	 3.90969902444186E-02 
2027	 3.94915513999213E-02 
2028	 3.96295776448234E-02 
2029	 4.00333239410609E-02 
2030	 4.01978341849448E-02 
2031	 4.00107084238202E-02 
2032	 4.01472163110286E-02 
2033	 4.05284573583942E-02 
2034	 4.06336514145463E-02 
2035	 4.08189874981661E-02 
2036	 4.12130458770462E-02 
2037	 4.11833892767026E-02 
2038	 4.12226676302844E-02 
2039	 4.13881772798236E-02 
2040	 0.041568650743242 
2041	 4.18666293251325E-02 
2042	 4.24709547241086E-02 
2043	 4.29020078488177E-02 
2044	 4.30218154383691E-02 
2045	 0.043170468197799 
2046	 4.32733960975869E-02 
2047	 4.30408124591925E-02 
2048	 4.30789106020755E-02 
2049	 4.32650974680776E-02 
2050	 0.043191841620248 
2051	 4.33454472123889E-02 
2052	 0.043444599717029 
2053	 4.34904187861607E-02 
2054	 4.38683503176757E-02 
2055	 4.44360359130466E-02 
2056	 0.044809149847721 
2057	 4.52078803220709E-02 
2058	 4.59312528789965E-02 
2059	 4.64087337900845E-02 
2060	 4.67198417177612E-02 
2061	 4.71437273900812E-02 
2062	 4.74135848982242E-02 
2063	 0.046988014712003 
2064	 4.68153260402469E-02 
2065	 4.65619583919817E-02 
2066	 4.63402833491024E-02 
2067	 4.66826540424497E-02 
2068	 4.71273802039618E-02 
2069	 4.76986952477916E-02 
2070	 4.81174358686361E-02 
2071	 0.048362236347319 
2072	 4.86343635292127E-02 
2073	 4.88081216213303E-02 
2074	 4.88167083691547E-02 
2075	 4.88936493344336E-02 
2076	 4.89946377142371E-02 
2077	 4.88464317665424E-02 
2078	 4.87986758489012E-02 
2079	 4.93005157076695E-02 
2080	 4.99626029740982E-02 
2081	 5.05075870410347E-02 
2082	 5.11336683471413E-02 
2083	 5.13875375410341E-02 
2084	 5.11371465706569E-02 
2085	 5.11169273162973E-02 
2086	 5.11631806452386E-02 
2087	 5.13606933677742E-02 
2088	 5.16772161598618E-02 
2089	 0.052193263598023 
2090	 5.22019561627374E-02 
2091	 5.21600464600897E-02 
2092	 5.19875228023832E-02 
2093	 5.17643063706115E-02 
2094	 5.20635636288171E-02 
2095	 5.24175463825284E-02 
2096	 5.27312708083171E-02 
2097	 5.32843999926974E-02 
2098	 5.38971553927861E-02 
2099	 5.43260363319997E-02 
2100	 5.44976298298863E-02 
2101	 5.45218492552121E-02 
2102	 5.46398743121565E-02 
2103	 5.46091229286623E-02 
2104	 5.48172627427761E-02 
2105	 5.50048860042849E-02 
2106	 0.055094470576602 
2107	 5.53550051370589E-02 
2108	 5.57612195879454E-02 
2109	 5.64575451822077E-02 
2110	 5.72378079516358E-02 
2111	 5.78457976106332E-02 
2112	 0.057759864916165 
2113	 5.73071251114239E-02 
2114	 5.72483515186106E-02 
2115	 5.72392747874952E-02 
2116	 5.74457314959864E-02 
2117	 5.77670286821663E-02 
2118	 5.85548963776241E-02 
2119	 0.058893951069309 
2120	 5.90487594553783E-02 
2121	 5.92425440005468E-02 
2122	 5.94032063411731E-02 
2123	 5.98262633820561E-02 
2124	 6.02199006172974E-02 
2125	 6.05458697992027E-02 
2126	 6.08606829125596E-02 
2127	 6.04580042067782E-02 
2128	 6.02006686325746E-02 
2129	 6.03627719409914E-02 
2130	 6.05410826768347E-02 
2131	 6.10348603321138E-02 
2132	 6.14358484392441E-02 
2133	 6.19721812832214E-02 
2134	 6.24060364529759E-02 
2135	 6.28556871036973E-02 
2136	 6.30378207666573E-02 
2137	 0.063396252903463 
2138	 6.33353026593587E-02 
2139	 6.28656756329075E-02 
2140	 6.27786031579136E-02 
2141	 6.29120376595577E-02 
2142	 6.30190947415781E-02 
2143	 6.32425915152513E-02 
2144	 6.37063838200565E-02 
2145	 6.39171018888467E-02 
2146	 6.36796183862136E-02 
2147	 6.36684148002604E-02 
2148	 6.38648834403953E-02 
2149	 0.064029770812611 
2150	 6.44102337181576E-02 
2151	 6.47064822758218E-02 
2152	 6.51795805752145E-02 
2153	 6.53405607577418E-02 
2154	 6.52935778561376E-02 
2155	 6.51545724384414E-02 
2156	 6.51492226721752E-02 
2157	 6.51153647154375E-02 
2158	 6.54344584205054E-02 
2159	 6.57308882706756E-02 
2160	 6.55929228931622E-02 
2161	 6.57636896123211E-02 
2162	 6.60600911636462E-02 
2163	 6.65824616488157E-02 
2164	 6.76149268942604E-02 
2165	 6.82540448533531E-02 
2166	 0.068389136864523 
2167	 6.85439456823562E-02 
2168	 6.85487916201988E-02 
2169	 6.82513946914834E-02 
2170	 6.81974220554253E-02 
2171	 6.82453288882603E-02 
2172	 6.79716633460612E-02 
2173	 6.80518328994419E-02 
2174	 6.79833654937165E-02 
2175	 6.76903188306757E-02 
2176	 6.78834567798452E-02 
2177	 6.79250166089197E-02 
2178	 6.79118862306538E-02 
2179	 6.82270484691788E-02 
2180	 6.84771953853571E-02 
2181	 6.84183949398694E-02 
2182	 6.89309217090731E-02 
2183	 6.97124454939596E-02 
2184	 6.99396921259028E-02 
2185	 7.01286782123136E-02 
2186	 7.00430487242498E-02 
2187	 7.01352297844815E-02 
2188	 7.00641557669549E-02 
2189	 7.00770251134749E-02 
2190	 0.070240346563149 
2191	 7.06928201813159E-02 
2192	 7.03491073250136E-02 
2193	 7.02276155155781E-02 
2194	 7.06070906780893E-02 
2195	 7.05523068284754E-02 
2196	 7.07417057529152E-02 
2197	 7.10161441666529E-02 
2198	 0.070997764375761 
2199	 7.10609044106919E-02 
2200	 7.14231915667747E-02 
2201	 7.17181270638128E-02 
2202	 0.071722393672586 
2203	 7.18169103086763E-02 
2204	 7.19352550887511E-02 
2205	 7.19100181202684E-02 
2206	 7.18151035325228E-02 
2207	 7.17679111569604E-02 
2208	 7.17347420931349E-02 
2209	 7.15963297990835E-02 
2210	 7.15871737328704E-02 
2211	 7.18170538449145E-02 
2212	 7.15775141469542E-02 
2213	 7.14704443992808E-02 
2214	 7.10412731118607E-02 
2215	 7.06391047489596E-02 
2216	 0.070659428303628 
2217	 7.06836124803745E-02 
2218	 0.07083982494338 
2219	 7.06161434510407E-02 
2220	 0.070789375107432 
2221	 7.12490199085652E-02 
2222	 7.10024944751897E-02 
2223	 7.10091112343749E-02 
2224	 7.07507232842484E-02 
2225	 7.01240631706074E-02 
2226	 6.99413391021803E-02 
2227	 6.98002635019816E-02 
2228	 7.02005682380968E-02 
2229	 7.06080193841168E-02 
2230	 7.05561715880019E-02 
2231	 0.070528023615729 
2232	 7.04400792611525E-02 
2233	 7.00586493949423E-02 
2234	 6.93943385798039E-02 
2235	 6.89643950239902E-02 
2236	 6.85228666455088E-02 
2237	 6.83600434020324E-02 
2238	 6.76546907543605E-02 
2239	 6.71248177972174E-02 
2240	 6.68988015015315E-02 
2241	 6.61568945226214E-02 
2242	 6.59616485845595E-02 
2243	 6.62621929097148E-02 
2244	 6.59465415230329E-02 
2245	 6.58352512153323E-02 
2246	 6.58244106538582E-02 
2247	 6.53592759285339E-02 
2248	 6.52267751452048E-02 
2249	 6.45382407050763E-02 
2250	 6.35175223022075E-02 
2251	 6.32975598123891E-02 
2252	 0.063221302912174 
2253	 6.30563077585375E-02 
2254	 6.30511507732958E-02 
2255	 6.28742285899075E-02 
2256	 6.26208370542355E-02 
2257	 6.19163960457265E-02 
2258	 6.16292643461365E-02 
2259	 6.13519634625693E-02 
2260	 6.08499376311067E-02 
2261	 6.04015117353546E-02 
2262	 5.99333760071718E-02 
2263	 5.99088092978105E-02 
2264	 6.02575080123988E-02 
2265	 6.04237587084652E-02 
2266	 6.01400299412786E-02 
2267	 6.01277191362864E-02 
2268	 5.97497765105899E-02 
2269	 5.87959092087927E-02 
2270	 0.058352647374381 
2271	 5.74516690122692E-02 
2272	 5.65838113074469E-02 
2273	 5.64461242145177E-02 
2274	 5.63082385443256E-02 
2275	 5.64043900320356E-02 
2276	 5.65241308971295E-02 
2277	 5.60232661417392E-02 
2278	 5.59457165683251E-02 
2279	 5.61793893164065E-02 
2280	 5.61495022921792E-02 
2281	 5.64350386265073E-02 
2282	 5.60257721381814E-02 
2283	 5.53924390906139E-02 
2284	 5.51050386757741E-02 
2285	 5.45616820618212E-02 
2286	 5.40623715010364E-02 
2287	 5.37256883278791E-02 
2288	 5.32672307449795E-02 
2289	 5.25132605291509E-02 
2290	 5.21895044100814E-02 
2291	 5.28622414044491E-02 
2292	 5.37629817812505E-02 
2293	 0.054153031161494 
2294	 0.054171367789442 
2295	 5.32843307721574E-02 
2296	 5.16688749043021E-02 
2297	 5.06652846192563E-02 
2298	 0.05050123982648 
2299	 5.05778619427424E-02 
2300	 5.04481032413848E-02 
2301	 5.03674814379201E-02 
2302	 4.96014163829809E-02 
2303	 4.87036423452936E-02 
2304	 4.85427223661536E-02 
2305	 4.81292106950401E-02 
2306	 4.88484946870876E-02 
2307	 4.95495105494417E-02 
2308	 0.049305996507789 
2309	 4.95931824875503E-02 
2310	 0.049080931697598 
2311	 4.82070525203629E-02 
2312	 4.81112326635509E-02 
2313	 4.77511466868849E-02 
2314	 4.66756039583311E-02 
2315	 4.59107661040508E-02 
2316	 4.53548644676802E-02 
2317	 0.044593119876061 
2318	 4.47739613362129E-02 
2319	 0.045575072660944 
2320	 0.046256987111974 
2321	 0.0467674034983 
2322	 4.78780828976936E-02 
2323	 4.80532942620849E-02 
2324	 0.047670538465758 
2325	 4.65174638067351E-02 
2326	 4.57790309316646E-02 
2327	 0.045085132398937 
2328	 4.44707307049508E-02 
2329	 4.39847637936394E-02 
2330	 4.44921671273268E-02 
2331	 4.49103377723185E-02 
2332	 4.50887649325258E-02 
2333	 4.63027782604951E-02 
2334	 4.63290532725352E-02 
2335	 4.59687381809663E-02 
2336	 4.55181276278206E-02 
2337	 4.39279800626119E-02 
2338	 4.36365378061106E-02 
2339	 4.33344173322699E-02 
2340	 4.22087963977175E-02 
2341	 4.30309713892983E-02 
2342	 4.33867883394105E-02 
2343	 4.26126076041624E-02 
2344	 4.35648595493857E-02 
2345	 4.44729594387295E-02 
2346	 4.44221211282892E-02 
2347	 4.38091651621411E-02 
2348	 4.26320059960811E-02 
2349	 4.16647460147359E-02 
2350	 3.99146003605962E-02 
2351	 3.92167395894834E-02 
2352	 0.039424665386463 
2353	 3.90903620153753E-02 
2354	 4.02930986419954E-02 
2355	 4.17231548583705E-02 
2356	 4.20850772739251E-02 
2357	 4.19413970086965E-02 
2358	 4.15102605454535E-02 
2359	 4.06313560310809E-02 
2360	 4.10621753935325E-02 
2361	 4.16106930058212E-02 
2362	 4.03731351632498E-02 
2363	 4.00525979464868E-02 
2364	 3.96463805437949E-02 
2365	 4.00065746998475E-02 
2366	 4.18903843031181E-02 
2367	 4.23138415495427E-02 
2368	 4.21550971819931E-02 
2369	 4.09380894776983E-02 
2370	 0.038967245254679 
2371	 3.79581295383918E-02 
2372	 3.74127915847181E-02 
2373	 3.77416981619298E-02 
2374	 0.037792070753357 
2375	 0.037446405363471 
2376	 3.81053566396184E-02 
2377	 3.93116981125351E-02 
2378	 3.95095903890359E-02 
2379	 4.10622383241583E-02 
2380	 4.19966058446102E-02 
2381	 4.16538968749922E-02 
2382	 4.16413749215405E-02 
2383	 4.14052929242597E-02 
2384	 4.08986887647617E-02 
2385	 3.94665441205035E-02 
2386	 3.88350886472522E-02 
2387	 3.91695790068109E-02 
2388	 3.90840685190135E-02 
2389	 3.90325436656735E-02 
2390	 3.93519535236752E-02 
2391	 4.03104964564826E-02 
2392	 3.98908313130599E-02 
2393	 3.88848487764602E-02 
2394	 3.86475219363114E-02 
2395	 3.70450053590021E-02 
2396	 3.68060933320843E-02 
2397	 3.83579859488921E-02 
2398	 3.82877099342892E-02 
2399	 3.85954309576784E-02 
2400	 3.79672886052785E-02 
2401	 3.56891367980654E-02 
2402	 3.39827824103915E-02 
2403	 3.55191547331111E-02 
2404	 3.54663174823223E-02 
2405	 3.68218987613321E-02 
2406	 4.04437167861902E-02 
2407	 4.13684775023832E-02 
2408	 4.04842485844837E-02 
2409	 3.93530868348446E-02 
2410	 3.70654197679699E-02 
2411	 0.034062828123596 
2412	 0.032996957875664 
2413	 3.19990505322589E-02 
2414	 3.10550854323714E-02 
2415	 3.22979692715768E-02 
2416	 3.35905984545291E-02 
2417	 3.54352123233585E-02 
2418	 3.87361547691902E-02 
2419	 4.10747095539643E-02 
2420	 3.90586030542423E-02 
2421	 3.51934951357229E-02 
2422	 3.20271258087807E-02 
2423	 2.71157620793791E-02 
2424	 2.43706962971417E-02 
2425	 2.51859485894485E-02 
2426	 0.027676743508994 
2427	 3.11006792271788E-02 
2428	 3.39085789210396E-02 
2429	 3.77109533405746E-02 
2430	 4.00451449566503E-02 
2431	 3.83635002080558E-02 
2432	 3.54529235659597E-02 
2433	 2.82191994836944E-02 
2434	 2.42446015569974E-02 
2435	 0.021825606774461 
2436	 2.19440990609299E-02 
2437	 2.58026715463121E-02 
2438	 2.82030135557187E-02 
2439	 3.34956923508536E-02 
2440	 3.54024970914633E-02 
2441	 3.34306781376204E-02 
2442	 3.26615632007701E-02 
2443	 3.06015297591959E-02 
2444	 2.89089099998956E-02 
2445	 2.85475718588239E-02 
2446	 2.83878325114733E-02 
2447	 2.72900395177409E-02 
2448	 2.68637876428939E-02 
2449	 2.76561428717574E-02 
2450	 2.77887855702289E-02 
2451	 2.66487933692211E-02 
2452	 2.84335772888231E-02 
2453	 3.58942156496224E-02 
2454	 3.29892503051601E-02 
2455	 2.18423673839419E-02 
2456	 2.04605028585526E-02 
2457	 1.92549266411317E-02 
2458	 1.81224268328167E-02 
2459	 0.025008632783814 
2460	 2.77340218273607E-02 
2461	 2.11936257653607E-02 
2462	 2.20420766074822E-02 
2463	 3.29606795933366E-02 
2464	 3.55634955363895E-02 
2465	 3.63946017255116E-02 
2466	 0.03618742699061 
2467	 2.68252140894798E-02 
2468	 2.35929660803143E-02 
2469	 2.51380540141335E-02 
2470	 2.62862206115773E-02 
2471	 0.031731197127172 
2472	 3.15916989370454E-02 
2473	 2.71538720125674E-02 
2474	 2.45831934135554E-02 
2475	 1.55139336303449E-02 
2476	 1.68545216145404E-02 
2477	 2.87986197804135E-02 
2478	 3.43204611693879E-02 
2479	 0.043650546223121 
2480	 5.22871153229188E-02 
2481	 6.36472550136814E-02 
2482	 6.15274290645087E-02 
2483	 5.47101589341888E-02 
2484	 3.43306788013498E-02 
2485	-2.51181056626286E-02 
2486	-3.69580625623347E-02 
2487	-5.77036393672905E-02 
2488	-4.57927562571527E-02 
2489	-2.20830716137674E-02 
2490	-2.28931474785065E-02 
2491	 1.06900602723895E-02 
2492	 3.45827717404721E-02 
2493	 5.80776984210173E-02 
2494	 8.41602296640989E-02 
2495	 7.03203746347118E-02 
2496	 6.55210294592987E-02 
2497	 8.87156234427336E-02 
2498	 7.14908858753588E-02 
2499	 0.063737861430779 
2500	 6.45277182289116E-02 
