Wavelength	ref00009.asd
350	 3.56742710818426E-02 
351	 3.57466565436865E-02 
352	 3.65829495653578E-02 
353	 3.68481859942904E-02 
354	 3.61853542917156E-02 
355	 3.53121647115507E-02 
356	 3.48992789351077E-02 
357	 3.50569070163926E-02 
358	 3.55634145025916E-02 
359	 3.59338621173715E-02 
360	 3.58104698608001E-02 
361	 3.56155312366486E-02 
362	 3.55042918343427E-02 
363	 3.54093588887447E-02 
364	 3.51420113189284E-02 
365	 3.47532264886137E-02 
366	 3.46141789457412E-02 
367	 3.48333345417144E-02 
368	 3.51312476747287E-02 
369	 3.52314921632802E-02 
370	 3.50374752370676E-02 
371	 3.46934869276677E-02 
372	 3.48766663728208E-02 
373	 3.49721698532153E-02 
374	 3.48462317505064E-02 
375	 3.46604717343871E-02 
376	 3.46571994054821E-02 
377	 3.47953820943972E-02 
378	 0.034909548214819 
379	 3.47378245328593E-02 
380	 3.42938239064598E-02 
381	 3.42844476388921E-02 
382	 3.49652690559456E-02 
383	 3.50448284435105E-02 
384	 3.49750400233192E-02 
385	 3.50319544485765E-02 
386	 3.53181693396919E-02 
387	 3.52275240732742E-02 
388	 3.53393608266765E-02 
389	 3.56158386339163E-02 
390	 3.53480157318987E-02 
391	 3.53549200028617E-02 
392	 3.55539842479683E-02 
393	 3.57013378669732E-02 
394	 3.55191291954939E-02 
395	 3.59117837615254E-02 
396	 3.63612371523374E-02 
397	 3.61433708320103E-02 
398	 3.62558717814557E-02 
399	 3.64183868645517E-02 
400	 3.64330423626517E-02 
401	 0.036268320784442 
402	 3.64606214396052E-02 
403	 3.66618060850257E-02 
404	 3.67244056897025E-02 
405	 3.72141633493113E-02 
406	 3.74926002312578E-02 
407	 3.75755007120051E-02 
408	 3.76853215758275E-02 
409	 3.78462835227123E-02 
410	 3.79039587883103E-02 
411	 3.79854591542008E-02 
412	 3.84142984765171E-02 
413	 3.85564389660873E-02 
414	 3.85852638974253E-02 
415	 3.87496891431971E-02 
416	 3.92038458380397E-02 
417	 3.94223896189806E-02 
418	 3.94646214135179E-02 
419	 3.95763239879597E-02 
420	 3.97645099433418E-02 
421	 3.99494531819697E-02 
422	 4.00985141263471E-02 
423	 0.040232947112178 
424	 4.04544770221578E-02 
425	 4.06357913413945E-02 
426	 4.07128385216973E-02 
427	 4.08225875025184E-02 
428	 0.041134798405283 
429	 4.13815757973003E-02 
430	 4.12772769229312E-02 
431	 4.12857432784267E-02 
432	 0.041494979261382 
433	 4.17491383082323E-02 
434	 4.17397190751025E-02 
435	 4.18323223612761E-02 
436	 4.20097263740147E-02 
437	 4.21864854689195E-02 
438	 4.22720160768555E-02 
439	 4.23390203615022E-02 
440	 4.24246284452811E-02 
441	 4.25358252505626E-02 
442	 4.25856747377358E-02 
443	 0.042671447508373 
444	 4.28048179685713E-02 
445	 4.29117090314441E-02 
446	 4.30709362172467E-02 
447	 0.043241473554212 
448	 4.33689505391846E-02 
449	 4.34096981972467E-02 
450	 4.34739875831846E-02 
451	 4.35546886339847E-02 
452	 4.36048070778617E-02 
453	 4.36730834280066E-02 
454	 4.38146431608851E-02 
455	 4.39894865164146E-02 
456	 4.40522250484467E-02 
457	 4.41568013540486E-02 
458	 4.42329876383391E-02 
459	 0.044230599562664 
460	 4.43082397489024E-02 
461	 0.044393594096646 
462	 4.44464394341656E-02 
463	 4.44626038415081E-02 
464	 4.45797956807675E-02 
465	 4.47468022205219E-02 
466	 4.48927491253286E-02 
467	 4.49501071812834E-02 
468	 4.50264945829203E-02 
469	 4.50990599433457E-02 
470	 4.51298788793619E-02 
471	 0.045165056176448 
472	 4.52459347810448E-02 
473	 4.53684781682902E-02 
474	 4.54895827099124E-02 
475	 4.55316885803629E-02 
476	 4.55677941749335E-02 
477	 4.56484175817298E-02 
478	 4.57387952172471E-02 
479	 4.58735768364567E-02 
480	 4.60164713082556E-02 
481	 4.61096476132539E-02 
482	 4.61073000910558E-02 
483	 4.61796466506205E-02 
484	 4.63551962378695E-02 
485	 4.65093214906833E-02 
486	 4.66044838403163E-02 
487	 4.66933479484763E-02 
488	 4.68211366676439E-02 
489	 4.69585821694572E-02 
490	 4.70963494416081E-02 
491	 4.72267734574903E-02 
492	 4.73487808927585E-02 
493	 0.047471693227684 
494	 4.76354645664686E-02 
495	 4.78541398748816E-02 
496	 0.048107210237859 
497	 4.83228710459406E-02 
498	 4.85788979558577E-02 
499	 4.89122117826801E-02 
500	 4.90746145150444E-02 
501	 0.049403262800308 
502	 4.98537964024343E-02 
503	 5.01648765865943E-02 
504	 5.05082186378194E-02 
505	 5.08445300705693E-02 
506	 5.11842389544431E-02 
507	 5.16544609443098E-02 
508	 0.052211839613928 
509	 5.27821743922999E-02 
510	 5.33306468723626E-02 
511	 5.40558031857749E-02 
512	 5.47612997028605E-02 
513	 5.54362616016037E-02 
514	 5.62391482089461E-02 
515	 5.71696476639365E-02 
516	 5.81451908326109E-02 
517	 5.91098716979474E-02 
518	 6.01210637622958E-02 
519	 6.12277427073342E-02 
520	 6.23805412123657E-02 
521	 6.34990951604075E-02 
522	 6.45675617639773E-02 
523	 6.57205705383186E-02 
524	 6.69436600725813E-02 
525	 6.80362019094026E-02 
526	 6.92376752780373E-02 
527	 7.04323652538141E-02 
528	 7.15190866320073E-02 
529	 7.26995758333574E-02 
530	 7.37472631563944E-02 
531	 7.47041335393654E-02 
532	 0.075747767615927 
533	 7.67604478140321E-02 
534	 7.76582145200988E-02 
535	 7.84443830559316E-02 
536	 7.92599674732836E-02 
537	 8.00928829270313E-02 
538	 8.08530762512379E-02 
539	 8.14859557090396E-02 
540	 8.22364422591955E-02 
541	 8.29280723078349E-02 
542	 0.083527110572335 
543	 0.084134866845715 
544	 8.47831063042863E-02 
545	 8.54142727627282E-02 
546	 8.59953762143291E-02 
547	 8.65756574320813E-02 
548	 8.71970123498728E-02 
549	 8.78159683151312E-02 
550	 8.83492848302774E-02 
551	 8.87447380710514E-02 
552	 8.90365442179526E-02 
553	 8.92694230907855E-02 
554	 8.94878234998558E-02 
555	 8.95951994735251E-02 
556	 8.96172238464792E-02 
557	 8.95951435129248E-02 
558	 8.95214113561608E-02 
559	 8.93552210823432E-02 
560	 8.90881131227065E-02 
561	 8.87454267700149E-02 
562	 8.84466484492783E-02 
563	 8.80706622872354E-02 
564	 8.75793220493262E-02 
565	 8.71439277823045E-02 
566	 8.66109634937036E-02 
567	 8.60543017371272E-02 
568	 8.55563984942786E-02 
569	 8.48602324006154E-02 
570	 0.08419074823301 
571	 0.083586505498457 
572	 8.28976103488841E-02 
573	 0.082233145532468 
574	 8.16455924397315E-02 
575	 8.11331217791287E-02 
576	 8.06009403036976E-02 
577	 8.00986241520472E-02 
578	 7.96349309707257E-02 
579	 7.92072990214549E-02 
580	 7.88869716210836E-02 
581	 0.078566964155831 
582	 7.82070604282182E-02 
583	 7.78739648604106E-02 
584	 7.76195513838222E-02 
585	 7.73797172516277E-02 
586	 7.70894423382437E-02 
587	 7.67987891602372E-02 
588	 7.65674684414036E-02 
589	 7.63603639536275E-02 
590	 7.60929641701052E-02 
591	 0.075938925669579 
592	 7.58688190309253E-02 
593	 7.58261022539197E-02 
594	 7.57714279895571E-02 
595	 7.57512523487825E-02 
596	 7.57329852514381E-02 
597	 7.56713106215358E-02 
598	 7.55944608160489E-02 
599	 7.55501124818281E-02 
600	 0.075512089286186 
601	 7.53850763094185E-02 
602	 7.52341876561296E-02 
603	 7.51066378481597E-02 
604	 7.49990960136837E-02 
605	 7.47927567138291E-02 
606	 7.44993774846935E-02 
607	 7.41745851433514E-02 
608	 7.38919110969703E-02 
609	 7.36272386982695E-02 
610	 7.33508803295071E-02 
611	 7.30557028979489E-02 
612	 0.072765622113061 
613	 7.24271756701612E-02 
614	 7.20675075119674E-02 
615	 0.07174431258952 
616	 0.071540064151694 
617	 7.13074195158848E-02 
618	 7.10241960991997E-02 
619	 7.07631449815077E-02 
620	 7.05879801226758E-02 
621	 7.04927167564299E-02 
622	 7.04239686583616E-02 
623	 7.02505332039773E-02 
624	 7.01545520894807E-02 
625	 7.01390722121027E-02 
626	 7.01506649837806E-02 
627	 7.02178918667648E-02 
628	 7.03104840931354E-02 
629	 7.03831803987214E-02 
630	 7.03878887741512E-02 
631	 7.05056106011675E-02 
632	 7.05807311652132E-02 
633	 7.05029461695691E-02 
634	 7.04464690374308E-02 
635	 7.03568939890699E-02 
636	 7.02320550750926E-02 
637	 7.00787406782099E-02 
638	 6.98201318927464E-02 
639	 6.95186331674539E-02 
640	 6.92113277649413E-02 
641	 6.88964099123723E-02 
642	 6.85314378699498E-02 
643	 6.80956786897164E-02 
644	 6.76292994533636E-02 
645	 6.73706207803537E-02 
646	 6.70010971921165E-02 
647	 6.65702955651383E-02 
648	 6.63247471064076E-02 
649	 6.60076958211029E-02 
650	 6.57383429821182E-02 
651	 6.55654319163832E-02 
652	 6.53406922103917E-02 
653	 6.52341862974599E-02 
654	 6.51234356245529E-02 
655	 6.48800131796208E-02 
656	 6.47852842711785E-02 
657	 6.45866884200171E-02 
658	 6.42476445263951E-02 
659	 6.38821428686014E-02 
660	 6.34983558688679E-02 
661	 0.063149430676202 
662	 6.28431588889484E-02 
663	 6.24635537692252E-02 
664	 6.21414837622788E-02 
665	 6.18360314090014E-02 
666	 6.14960017228146E-02 
667	 6.13485648231336E-02 
668	 6.11804561726529E-02 
669	 6.09886468560179E-02 
670	 6.09586919608026E-02 
671	 6.08276518608859E-02 
672	 6.07292753109505E-02 
673	 6.07844254819155E-02 
674	 6.09313772464754E-02 
675	 6.10000050216727E-02 
676	 6.10314756431944E-02 
677	 0.061148491374964 
678	 6.13611474915225E-02 
679	 0.061591873046176 
680	 6.18499486730308E-02 
681	 6.22345718171348E-02 
682	 0.062627765794866 
683	 6.31903786491901E-02 
684	 6.39907526347576E-02 
685	 6.46808243296038E-02 
686	 6.57437841454378E-02 
687	 6.72289001150452E-02 
688	 6.88094346642494E-02 
689	 7.03152302569172E-02 
690	 7.20613878868105E-02 
691	 7.42444622980674E-02 
692	 7.67571914467608E-02 
693	 7.96791279898095E-02 
694	 8.31418683927635E-02 
695	 8.71682369362024E-02 
696	 9.15524546315004E-02 
697	 9.62090761230939E-02 
698	 0.101228549839911 
699	 0.106714534001049 
700	 0.112429789030958 
701	 0.118534151537544 
702	 0.124920329320092 
703	 0.131123701902597 
704	 0.137476534261348 
705	 0.143721726922809 
706	 0.149794949910303 
707	 0.156309856829877 
708	 0.16277807783747 
709	 0.169127395242124 
710	 0.175443484694448 
711	 0.181808199904867 
712	 0.188278744111049 
713	 0.194833570207753 
714	 0.201369199455338 
715	 0.207846704159531 
716	 0.214268750752846 
717	 0.220822063055969 
718	 0.227535396460993 
719	 0.234308399705283 
720	 0.2409787066709 
721	 0.247448219687901 
722	 0.253444702233199 
723	 0.259428074871496 
724	 0.265712836187924 
725	 0.271675889329401 
726	 0.277494279933381 
727	 0.283042978869899 
728	 0.288392056555074 
729	 0.29371426680637 
730	 0.298737280667482 
731	 0.303472353036768 
732	 0.308042925695762 
733	 0.312283937900353 
734	 0.316281259554306 
735	 0.32015624308255 
736	 0.323933386367079 
737	 0.327461793694026 
738	 0.330739745735497 
739	 0.333835295760592 
740	 0.336746131975551 
741	 0.339481364083269 
742	 0.342035365966795 
743	 0.344389144513426 
744	 0.346587911747101 
745	 0.34867060804203 
746	 0.35055753704086 
747	 0.352119804805442 
748	 0.353771177008654 
749	 0.355279411513808 
750	 0.356584016038614 
751	 0.358068982122737 
752	 0.359278113596714 
753	 0.360302172458731 
754	 0.361318294861728 
755	 0.362215696504765 
756	 0.363031510655266 
757	 0.363837705300111 
758	 0.364771044824864 
759	 0.366269731812061 
760	 0.367879717189143 
761	 0.369003571629195 
762	 0.369476199664062 
763	 0.369568969293119 
764	 0.369688644479969 
765	 0.369914958337957 
766	 0.369906852754615 
767	 0.370004684561261 
768	 0.370282188938712 
769	 0.370690155108584 
770	 0.370952764636531 
771	 0.371281176931019 
772	 0.37167889591188 
773	 0.371978922604685 
774	 0.37237103173471 
775	 0.372771750976685 
776	 0.373112669063522 
777	 0.37342373309941 
778	 0.373772439394762 
779	 0.374103062720453 
780	 0.374375795128667 
781	 0.374749446682463 
782	 0.375086034219196 
783	 0.375389251838613 
784	 0.375727097866921 
785	 0.376013302214828 
786	 0.376392495228283 
787	 0.376783312506758 
788	 0.376881710616101 
789	 0.377257343361409 
790	 0.377713779102405 
791	 0.378056431632207 
792	 0.378417259832068 
793	 0.378715023236455 
794	 0.379033185323286 
795	 0.379438167102767 
796	 0.379728551697059 
797	 0.380007267568304 
798	 0.380344138161497 
799	 0.380754014080383 
800	 0.381054665720902 
801	 0.381295324496783 
802	 0.381561529357584 
803	 0.381942090728635 
804	 0.38228995496416 
805	 0.382620135495997 
806	 0.382952804299036 
807	 0.383250327572904 
808	 0.383604693922102 
809	 0.383939302827169 
810	 0.384172701570536 
811	 0.38443360353131 
812	 0.384698143020783 
813	 0.385010122012008 
814	 0.385419232559765 
815	 0.385730944886812 
816	 0.386018755909345 
817	 0.386364526328486 
818	 0.38680392362716 
819	 0.387031850259113 
820	 0.387150851587594 
821	 0.387389323454452 
822	 0.388064480096185 
823	 0.388415454638065 
824	 0.388553155412279 
825	 0.388778509259236 
826	 0.389159582434738 
827	 0.389516409044071 
828	 0.389805669948511 
829	 0.390061473071931 
830	 0.390450197333875 
831	 0.390643410513272 
832	 0.390794670224089 
833	 0.391330070835771 
834	 0.391641658438578 
835	 0.391822403841868 
836	 0.392051913528918 
837	 0.392487222098371 
838	 0.392867619408024 
839	 0.393217225005124 
840	 0.393550467370989 
841	 0.393747609823402 
842	 0.393981782948588 
843	 0.394290074214685 
844	 0.394669146113128 
845	 0.395168074555467 
846	 0.395438233875629 
847	 0.395614363125521 
848	 0.395974893032894 
849	 0.396257272475958 
850	 0.396480730260246 
851	 0.3967294244697 
852	 0.397103919826753 
853	 0.397489880370464 
854	 0.397898356698352 
855	 0.398215589916614 
856	 0.39823373583705 
857	 0.39860660948129 
858	 0.398945697427967 
859	 0.399092417636326 
860	 0.399497289675224 
861	 0.399656187695417 
862	 0.399901756580211 
863	 0.400408028492616 
864	 0.40036943757478 
865	 0.400792039899215 
866	 0.401374320154067 
867	 0.401553667996029 
868	 0.401705608043582 
869	 0.401739511922677 
870	 0.401833171773662 
871	 0.402186806729836 
872	 0.402482966525487 
873	 0.402815271007877 
874	 0.403141329284992 
875	 0.403352311678294 
876	 0.403689613996407 
877	 0.403984443542107 
878	 0.404133823320344 
879	 0.404173318208166 
880	 0.404407674840967 
881	 0.404715983371977 
882	 0.405002861797173 
883	 0.405300552400738 
884	 0.405505426323145 
885	 0.4055360539719 
886	 0.405527759451665 
887	 0.405967520345018 
888	 0.40627245478962 
889	 0.406501936432682 
890	 0.406759035421963 
891	 0.406807016926809 
892	 0.406949185447204 
893	 0.407134416141739 
894	 0.40724971971411 
895	 0.407417210160927 
896	 0.407516959003125 
897	 0.407619923310062 
898	 0.407821940705524 
899	 0.407903244439169 
900	 0.408204308404952 
901	 0.408483271334964 
902	 0.408401040491352 
903	 0.408812841398273 
904	 0.409043295568505 
905	 0.409043373722335 
906	 0.409169823043908 
907	 0.40930180669833 
908	 0.409596585281028 
909	 0.409906396064739 
910	 0.40988916321002 
911	 0.409943196327488 
912	 0.409917053114439 
913	 0.409901570092462 
914	 0.410228929010071 
915	 0.410807740615756 
916	 0.411044441135429 
917	 0.41084526914344 
918	 0.410747274168622 
919	 0.411022759781775 
920	 0.411102801186324 
921	 0.410993808564307 
922	 0.411506441192382 
923	 0.411632245310787 
924	 0.411642110575396 
925	 0.411760197862562 
926	 0.411755699614479 
927	 0.41078559333538 
928	 0.410393097504393 
929	 0.411212054391522 
930	 0.411069216367934 
931	 0.411233549053938 
932	 0.411517736500579 
933	 0.411421654822544 
934	 0.410712361428473 
935	 0.41010621146812 
936	 0.409788570827962 
937	 0.409588028810309 
938	 0.409063696513042 
939	 0.409559193062198 
940	 0.410094094024533 
941	 0.409873865751236 
942	 0.409440600392793 
943	 0.409416283688345 
944	 0.409104811865655 
945	 0.408212953691332 
946	 0.408062871784116 
947	 0.407985481203525 
948	 0.407931598557214 
949	 0.407870564140284 
950	 0.407522908836134 
951	 0.406726139695125 
952	 0.405934736188592 
953	 0.405673535123306 
954	 0.406231183536476 
955	 0.40606257305478 
956	 0.405585780982491 
957	 0.405207729022545 
958	 0.404279076108512 
959	 0.403220772426149 
960	 0.403353771923271 
961	 0.40465333738686 
962	 0.404528026343451 
963	 0.404780856907783 
964	 0.404774990563427 
965	 0.404136249058909 
966	 0.403756105807669 
967	 0.403508774934738 
968	 0.403758246354573 
969	 0.404288985865975 
970	 0.403980429289253 
971	 0.403293067697472 
972	 0.403615927062744 
973	 0.405001637795921 
974	 0.405437721384258 
975	 0.404956461207856 
976	 0.404177974379887 
977	 0.403695867262185 
978	 0.403772122671487 
979	 0.404339522810363 
980	 0.404659333894177 
981	 0.404780509839181 
982	 0.405532557424159 
983	 0.405846606061607 
984	 0.405047039232485 
985	 0.40429002949144 
986	 0.405586508867732 
987	 0.4050159252773 
988	 0.404806212063942 
989	 0.405720024112014 
990	 0.406663512638202 
991	 0.406109178002063 
992	 0.405900643853511 
993	 0.4067531593519 
994	 0.407981473528055 
995	 0.407027931802849 
996	 0.408191904764588 
997	 0.4100932970937 
998	 0.409604777560838 
999	 0.409864045359041 
1000	 0.409560946853573 
1001	 0.412534513106844 
1002	 0.412922923821762 
1003	 0.413259182168395 
1004	 0.413529700589436 
1005	 0.413877730643214 
1006	 0.41417184898737 
1007	 0.414566041080693 
1008	 0.415125426783652 
1009	 0.415532678505047 
1010	 0.415888455726127 
1011	 0.416301356831803 
1012	 0.416650417424309 
1013	 0.41691745967989 
1014	 0.417244430420699 
1015	 0.417641020188392 
1016	 0.418099189406327 
1017	 0.418506683573787 
1018	 0.418897562697294 
1019	 0.419328111841996 
1020	 0.419717996622883 
1021	 0.420003515715094 
1022	 0.420351501832021 
1023	 0.420710642956708 
1024	 0.421143697068197 
1025	 0.421525421621634 
1026	 0.421929667728357 
1027	 0.422317810861035 
1028	 0.42257218502992 
1029	 0.422811680204109 
1030	 0.423112907081331 
1031	 0.423548681424104 
1032	 0.424040449438535 
1033	 0.424382855251027 
1034	 0.424676594597591 
1035	 0.425026237008519 
1036	 0.42527547595425 
1037	 0.425531631945144 
1038	 0.425881139522639 
1039	 0.426118984295273 
1040	 0.426310190210835 
1041	 0.426584696605594 
1042	 0.426802734716043 
1043	 0.427139077613732 
1044	 0.427449032281493 
1045	 0.427685234741713 
1046	 0.427967450791697 
1047	 0.428212229682852 
1048	 0.428361991472168 
1049	 0.428496720446119 
1050	 0.428684485508922 
1051	 0.428881876774412 
1052	 0.429063409200188 
1053	 0.429302536638022 
1054	 0.429507561288357 
1055	 0.429619299766812 
1056	 0.429838503526984 
1057	 0.430018950031499 
1058	 0.430151793572677 
1059	 0.430351541596134 
1060	 0.430474844312768 
1061	 0.430648123382055 
1062	 0.430950242306638 
1063	 0.431162164514111 
1064	 0.43135570656966 
1065	 0.431514081928196 
1066	 0.431634880557522 
1067	 0.431636808701146 
1068	 0.431801601300043 
1069	 0.431980846674191 
1070	 0.43206564111604 
1071	 0.432274992652984 
1072	 0.432371062311179 
1073	 0.432435732552994 
1074	 0.432656622480537 
1075	 0.432784117659529 
1076	 0.432923640244234 
1077	 0.433091647544308 
1078	 0.433161091649485 
1079	 0.433158915674627 
1080	 0.433164000656563 
1081	 0.433270161951519 
1082	 0.433413516676219 
1083	 0.433561604362572 
1084	 0.433712216051475 
1085	 0.433830592197794 
1086	 0.433803176464782 
1087	 0.433722755699862 
1088	 0.43372734264349 
1089	 0.433801138656567 
1090	 0.433863643039158 
1091	 0.434011621358046 
1092	 0.434199864517812 
1093	 0.434261079829679 
1094	 0.434352032711681 
1095	 0.434404525950984 
1096	 0.434365706149254 
1097	 0.43420432488496 
1098	 0.434161259774381 
1099	 0.43410373743852 
1100	 0.434023613404973 
1101	 0.434080454508729 
1102	 0.434130796631474 
1103	 0.434050924933709 
1104	 0.433922899753215 
1105	 0.433826275282575 
1106	 0.433722878964359 
1107	 0.433693809430024 
1108	 0.433701161304898 
1109	 0.433603601951601 
1110	 0.433577022650218 
1111	 0.433533572869392 
1112	 0.433458128084687 
1113	 0.433394711433489 
1114	 0.433373169382557 
1115	 0.433262880508424 
1116	 0.433077404158149 
1117	 0.432974836477546 
1118	 0.43280753116178 
1119	 0.432619752763978 
1120	 0.432280231125267 
1121	 0.431912261726702 
1122	 0.43154962769758 
1123	 0.431202401390422 
1124	 0.430991152070382 
1125	 0.430573237131285 
1126	 0.430067689934976 
1127	 0.429461486238478 
1128	 0.428872438954844 
1129	 0.428217884891453 
1130	 0.427621791485763 
1131	 0.427169727411339 
1132	 0.426469960239521 
1133	 0.425695085527619 
1134	 0.424850434590357 
1135	 0.42393667122721 
1136	 0.422989646804276 
1137	 0.421959525379714 
1138	 0.420956965533681 
1139	 0.419876450179088 
1140	 0.418553985908054 
1141	 0.417257064968332 
1142	 0.416086225117182 
1143	 0.41488997508426 
1144	 0.413764165643034 
1145	 0.412470945828883 
1146	 0.411098549641721 
1147	 0.409756935894364 
1148	 0.408285575854067 
1149	 0.407042496483898 
1150	 0.405971171802061 
1151	 0.404916550042053 
1152	 0.403972098986412 
1153	 0.403108500303931 
1154	 0.402271714220805 
1155	 0.401599302768588 
1156	 0.401039829145863 
1157	 0.400477197110078 
1158	 0.399919049796082 
1159	 0.399514158519718 
1160	 0.399146844012534 
1161	 0.398828079612434 
1162	 0.398517350763108 
1163	 0.398262834911395 
1164	 0.39799408711897 
1165	 0.397716113425538 
1166	 0.39746705774701 
1167	 0.397195772678582 
1168	 0.397031951097231 
1169	 0.396973397445534 
1170	 0.396811584107166 
1171	 0.39665998764634 
1172	 0.396470118662617 
1173	 0.396218189392152 
1174	 0.396019517297773 
1175	 0.395940748206152 
1176	 0.395895305313534 
1177	 0.395814204639524 
1178	 0.39576628878896 
1179	 0.395639969488706 
1180	 0.395467443121117 
1181	 0.395305950834531 
1182	 0.395079042068936 
1183	 0.394898433816353 
1184	 0.394719680011159 
1185	 0.394592570081851 
1186	 0.394537153439183 
1187	 0.394435400324068 
1188	 0.39433949386696 
1189	 0.394230221151027 
1190	 0.394175607357931 
1191	 0.394114275005548 
1192	 0.394105266655916 
1193	 0.394130052909597 
1194	 0.394066440004352 
1195	 0.39388206860657 
1196	 0.393862205074605 
1197	 0.393861052692397 
1198	 0.393923529291165 
1199	 0.394152013161776 
1200	 0.394247887744845 
1201	 0.394248518875728 
1202	 0.39437003429421 
1203	 0.394488048063238 
1204	 0.394664413755076 
1205	 0.394967705720682 
1206	 0.395221324925364 
1207	 0.395453426378465 
1208	 0.395712784391406 
1209	 0.395958395474481 
1210	 0.396260561791426 
1211	 0.396626714987164 
1212	 0.396973790596058 
1213	 0.397314022500143 
1214	 0.397664940405719 
1215	 0.398042317314857 
1216	 0.398412496599534 
1217	 0.398792745717014 
1218	 0.399244821880965 
1219	 0.399621946567222 
1220	 0.399931664792442 
1221	 0.400286289647105 
1222	 0.400640880269813 
1223	 0.401000684109531 
1224	 0.401381198169575 
1225	 0.40176153532076 
1226	 0.402157675163223 
1227	 0.402524504939729 
1228	 0.402872305811747 
1229	 0.403223472105989 
1230	 0.403613973711725 
1231	 0.403980282186017 
1232	 0.404346625910046 
1233	 0.404747846841824 
1234	 0.405108762483759 
1235	 0.405452053824982 
1236	 0.405745551021908 
1237	 0.405991456965771 
1238	 0.406297536764868 
1239	 0.406583706591082 
1240	 0.406874991954045 
1241	 0.407249250151457 
1242	 0.407541674970717 
1243	 0.407742721321275 
1244	 0.407993843194004 
1245	 0.408225244871386 
1246	 0.408502878072869 
1247	 0.408862614585971 
1248	 0.409156875267882 
1249	 0.409457236423403 
1250	 0.409725630462087 
1251	 0.409951289232822 
1252	 0.410130892728549 
1253	 0.41033822285207 
1254	 0.410560606125211 
1255	 0.410744199841098 
1256	 0.41089251162244 
1257	 0.411085760481684 
1258	 0.411282672521578 
1259	 0.411474943279553 
1260	 0.411721871513643 
1261	 0.4118963954307 
1262	 0.412030000149096 
1263	 0.412147392239232 
1264	 0.412204058778429 
1265	 0.412292342911555 
1266	 0.412384897459268 
1267	 0.412456181038046 
1268	 0.412566831387181 
1269	 0.412604243247894 
1270	 0.412546468303985 
1271	 0.412528686281388 
1272	 0.412513019941293 
1273	 0.412453156806299 
1274	 0.412422902144828 
1275	 0.412427720757764 
1276	 0.41239412128569 
1277	 0.412345857089383 
1278	 0.412276386438067 
1279	 0.412175461952882 
1280	 0.412113192732938 
1281	 0.412060532526848 
1282	 0.411976841796078 
1283	 0.411934829320652 
1284	 0.411815886057503 
1285	 0.411605178887918 
1286	 0.411446484380088 
1287	 0.41129951055322 
1288	 0.411120220493141 
1289	 0.410935328279522 
1290	 0.41074935464423 
1291	 0.410541931042843 
1292	 0.410321865081053 
1293	 0.410130650995014 
1294	 0.409887514225171 
1295	 0.409571465229324 
1296	 0.409284249990617 
1297	 0.408961679110102 
1298	 0.408617356016112 
1299	 0.408239788393417 
1300	 0.407854544422188 
1301	 0.407405586497348 
1302	 0.406875211231705 
1303	 0.406395129630933 
1304	 0.405926187913868 
1305	 0.405383313128277 
1306	 0.404860359726362 
1307	 0.404231564487212 
1308	 0.403443944759607 
1309	 0.402744889139184 
1310	 0.402056027793409 
1311	 0.401326084632709 
1312	 0.400621763664341 
1313	 0.39986117954211 
1314	 0.399063048053236 
1315	 0.398209703036613 
1316	 0.397316524440706 
1317	 0.396392982052695 
1318	 0.395376056522203 
1319	 0.394375748078597 
1320	 0.393312829225456 
1321	 0.392316674939903 
1322	 0.391321890765465 
1323	 0.390349916670102 
1324	 0.389294780552837 
1325	 0.388232128406498 
1326	 0.387086954335282 
1327	 0.385805299729236 
1328	 0.384566269426794 
1329	 0.383317879028229 
1330	 0.382006916584748 
1331	 0.380664253482649 
1332	 0.379303099886164 
1333	 0.377864960049962 
1334	 0.376516272997718 
1335	 0.375162886553944 
1336	 0.373905084228313 
1337	 0.37267270378131 
1338	 0.37154003337077 
1339	 0.370461607697093 
1340	 0.369437945150507 
1341	 0.368420193207971 
1342	 0.367460737215473 
1343	 0.36643884652998 
1344	 0.365503150187951 
1345	 0.36458587772408 
1346	 0.363780674620029 
1347	 0.362787646250887 
1348	 0.361970553371498 
1349	 0.360977534406428 
1350	 0.359702769854125 
1351	 0.35874741931126 
1352	 0.358575070099058 
1353	 0.357389292447578 
1354	 0.356097976076684 
1355	 0.354594253874266 
1356	 0.35181912566832 
1357	 0.348573134961058 
1358	 0.34800576798111 
1359	 0.34506516516493 
1360	 0.339298335751985 
1361	 0.335594982624234 
1362	 0.343616284683719 
1363	 0.346814401205117 
1364	 0.354834943548406 
1365	 0.358170206842993 
1366	 0.360138421451574 
1367	 0.350140154475852 
1368	 0.333481441027616 
1369	 0.32312242136623 
1370	 0.305067920197477 
1371	 0.301213213436949 
1372	 0.307149987402893 
1373	 0.308331065793822 
1374	 0.31115819710723 
1375	 0.314609691570499 
1376	 0.312266619938372 
1377	 0.308418364506084 
1378	 0.305480455103347 
1379	 0.30257086531979 
1380	 0.295670039106672 
1381	 0.286600880950777 
1382	 0.27922681196375 
1383	 0.269345704855689 
1384	 0.263522447506846 
1385	 0.262123509578594 
1386	 0.257787301728563 
1387	 0.254159162996859 
1388	 0.24928350843222 
1389	 0.243712295129395 
1390	 0.239112177360239 
1391	 0.23439452553682 
1392	 0.230167726524587 
1393	 0.226417814555323 
1394	 0.222230082733257 
1395	 0.217973584567477 
1396	 0.213545695160242 
1397	 0.209083590825556 
1398	 0.20460683780886 
1399	 0.2000396780236 
1400	 0.195474051734045 
1401	 0.190949691685925 
1402	 0.186533582785125 
1403	 0.182525535622957 
1404	 0.178430148674933 
1405	 0.174251337127688 
1406	 0.170750879697739 
1407	 0.167881417091743 
1408	 0.165483590412891 
1409	 0.163206624309695 
1410	 0.161161935324129 
1411	 0.158958524739135 
1412	 0.156509985556424 
1413	 0.154695825543833 
1414	 0.15312351019536 
1415	 0.151738444817462 
1416	 0.1506888077814 
1417	 0.149398373348451 
1418	 0.148073261035039 
1419	 0.146907307716601 
1420	 0.14573824125961 
1421	 0.14466354654389 
1422	 0.143729586378267 
1423	 0.142742764582745 
1424	 0.141684836011597 
1425	 0.140738681979147 
1426	 0.139730532800703 
1427	 0.138909521964701 
1428	 0.138087288205523 
1429	 0.137444326106218 
1430	 0.136836176653523 
1431	 0.136485166433673 
1432	 0.136525474773194 
1433	 0.136251343458223 
1434	 0.136108781741857 
1435	 0.135721658178866 
1436	 0.134883188246042 
1437	 0.134320413467858 
1438	 0.133661182201853 
1439	 0.133314706249164 
1440	 0.133271828632682 
1441	 0.13319432175896 
1442	 0.133197981720871 
1443	 0.133400941441575 
1444	 0.133376056612642 
1445	 0.133359011887136 
1446	 0.133295170397675 
1447	 0.133078385178838 
1448	 0.133085207623624 
1449	 0.133146071695909 
1450	 0.133147901898614 
1451	 0.133199746072963 
1452	 0.133279853168556 
1453	 0.133302878435443 
1454	 0.133380336879601 
1455	 0.1335605636511 
1456	 0.13368764214648 
1457	 0.133794931591042 
1458	 0.133869214143322 
1459	 0.133909156106421 
1460	 0.134049351260941 
1461	 0.134153593627874 
1462	 0.134388106695571 
1463	 0.134799682899911 
1464	 0.135187752358602 
1465	 0.135622762527581 
1466	 0.136103381394009 
1467	 0.136625700293601 
1468	 0.137213271992309 
1469	 0.137814620574538 
1470	 0.138508148273764 
1471	 0.139236966758366 
1472	 0.140026665928782 
1473	 0.140875873905657 
1474	 0.141699873954274 
1475	 0.142532466274123 
1476	 0.143339607813097 
1477	 0.144084195213605 
1478	 0.144877958598117 
1479	 0.145628730457017 
1480	 0.146464641810056 
1481	 0.147281059418666 
1482	 0.148226951091937 
1483	 0.149312195717333 
1484	 0.150335733262796 
1485	 0.151450875884965 
1486	 0.152456522088763 
1487	 0.153322405996996 
1488	 0.154209662235226 
1489	 0.155160557246992 
1490	 0.156077453369301 
1491	 0.157157841353647 
1492	 0.158248120203746 
1493	 0.159202924910286 
1494	 0.160187155988677 
1495	 0.161144231154434 
1496	 0.162034991845098 
1497	 0.163010401937276 
1498	 0.164041654264131 
1499	 0.165086433215256 
1500	 0.166182391891508 
1501	 0.167253889244708 
1502	 0.168360998017195 
1503	 0.169461341996887 
1504	 0.170558493039435 
1505	 0.171632865926438 
1506	 0.17271429835174 
1507	 0.173771618174126 
1508	 0.174785914955054 
1509	 0.175804947372855 
1510	 0.176801378495307 
1511	 0.177858690056523 
1512	 0.178939445146957 
1513	 0.180014106791618 
1514	 0.181139310410979 
1515	 0.182245521019735 
1516	 0.183337032260161 
1517	 0.184440811333713 
1518	 0.1855849658691 
1519	 0.186689765524771 
1520	 0.187792092189293 
1521	 0.188862383251035 
1522	 0.189881615334216 
1523	 0.190956741488207 
1524	 0.192051107086445 
1525	 0.193119609660773 
1526	 0.194200348344754 
1527	 0.195303059608709 
1528	 0.196423463985652 
1529	 0.197486946922033 
1530	 0.198584201622923 
1531	 0.199620404821242 
1532	 0.200556702975485 
1533	 0.201528083699256 
1534	 0.202463634344926 
1535	 0.203467371118105 
1536	 0.2045250455212 
1537	 0.205548242616021 
1538	 0.20663670975396 
1539	 0.207655853310679 
1540	 0.208601291297942 
1541	 0.209559295535246 
1542	 0.210497253024615 
1543	 0.211433794243737 
1544	 0.212376040454905 
1545	 0.213296696595467 
1546	 0.214164957214827 
1547	 0.215096339366306 
1548	 0.216061547314337 
1549	 0.217010645958205 
1550	 0.21800550079769 
1551	 0.218985822706589 
1552	 0.220003495304752 
1553	 0.220915910832547 
1554	 0.221739295059392 
1555	 0.222604265694926 
1556	 0.223372259833705 
1557	 0.224203552927643 
1558	 0.225163283777033 
1559	 0.226044778616344 
1560	 0.226905267049929 
1561	 0.227741832412719 
1562	 0.228540195442617 
1563	 0.22931896096269 
1564	 0.23006330213903 
1565	 0.230814267655252 
1566	 0.231570989040836 
1567	 0.232328959967941 
1568	 0.23313236086239 
1569	 0.233992112945627 
1570	 0.234797346534882 
1571	 0.235603372931378 
1572	 0.236398961041846 
1573	 0.237151831012289 
1574	 0.237962247099705 
1575	 0.238818640337676 
1576	 0.239563793710104 
1577	 0.240270761221563 
1578	 0.240982706447725 
1579	 0.241600113278674 
1580	 0.242315905716114 
1581	 0.24310334695117 
1582	 0.243807038238079 
1583	 0.244487526875263 
1584	 0.245186406449935 
1585	 0.245856200034712 
1586	 0.246558479666034 
1587	 0.247308029352039 
1588	 0.247998572305631 
1589	 0.248652188684954 
1590	 0.24936143413712 
1591	 0.25009250434301 
1592	 0.250771313781139 
1593	 0.251480246704249 
1594	 0.252119301524859 
1595	 0.252676176993988 
1596	 0.253284115102767 
1597	 0.253890856240157 
1598	 0.254515767077778 
1599	 0.255141437455141 
1600	 0.255799605756349 
1601	 0.256516617306131 
1602	 0.257140643708426 
1603	 0.257747727505745 
1604	 0.258337552182545 
1605	 0.258817912668133 
1606	 0.259444744930262 
1607	 0.260152888222254 
1608	 0.260801392981878 
1609	 0.261522194457638 
1610	 0.262105487500879 
1611	 0.262587573850155 
1612	 0.26310436497042 
1613	 0.263542314492129 
1614	 0.264088419559855 
1615	 0.264713971000206 
1616	 0.265229303495914 
1617	 0.265754013587843 
1618	 0.266231054350783 
1619	 0.266574779252741 
1620	 0.267093632908072 
1621	 0.267723412706509 
1622	 0.268229331006469 
1623	 0.268762296472883 
1624	 0.269231508434239 
1625	 0.269600607722076 
1626	 0.2700089803465 
1627	 0.270442646075436 
1628	 0.270848754246579 
1629	 0.271217118108835 
1630	 0.271604531035886 
1631	 0.271981521767745 
1632	 0.272418785195527 
1633	 0.272925615293819 
1634	 0.273299090044824 
1635	 0.273644200017204 
1636	 0.274024068188016 
1637	 0.274307963074944 
1638	 0.274675398741658 
1639	 0.275159760790179 
1640	 0.275539914768346 
1641	 0.275874346559743 
1642	 0.276183537527301 
1643	 0.276467239430211 
1644	 0.276748585120695 
1645	 0.276987634806264 
1646	 0.277223063677821 
1647	 0.277484271615492 
1648	 0.277657292181141 
1649	 0.277731352403226 
1650	 0.277933446293916 
1651	 0.278170576904121 
1652	 0.278327358107287 
1653	 0.278509721447809 
1654	 0.278667309429976 
1655	 0.278751802079158 
1656	 0.278848072861512 
1657	 0.278997327830371 
1658	 0.279019726271204 
1659	 0.279049907004741 
1660	 0.279071879787855 
1661	 0.279098771341808 
1662	 0.279009433868188 
1663	 0.278836995180134 
1664	 0.278757855025832 
1665	 0.27875887124641 
1666	 0.278837341860939 
1667	 0.278885344917026 
1668	 0.278873941629376 
1669	 0.278775792564866 
1670	 0.278686291311049 
1671	 0.278650564015245 
1672	 0.27860153287546 
1673	 0.278553824872219 
1674	 0.278470119027525 
1675	 0.278290312288359 
1676	 0.278008066032875 
1677	 0.277781096099587 
1678	 0.277618833411008 
1679	 0.277426517710862 
1680	 0.277196874357882 
1681	 0.276802088945992 
1682	 0.276194534088069 
1683	 0.275685969921772 
1684	 0.275238570168456 
1685	 0.274756351646816 
1686	 0.274429297162089 
1687	 0.274026221254309 
1688	 0.27357384311948 
1689	 0.27323603462658 
1690	 0.272744304908422 
1691	 0.272230107184489 
1692	 0.271533395468061 
1693	 0.271064082311255 
1694	 0.270861207680801 
1695	 0.270432063586285 
1696	 0.270004404508457 
1697	 0.2695575492397 
1698	 0.268829112034012 
1699	 0.268272215272896 
1700	 0.267957134572906 
1701	 0.267486678521703 
1702	 0.266956273176593 
1703	 0.266452554826614 
1704	 0.265929761593885 
1705	 0.265343399485335 
1706	 0.26472870829005 
1707	 0.264088624329063 
1708	 0.263291872606921 
1709	 0.262670486157908 
1710	 0.26215593306373 
1711	 0.261630333639864 
1712	 0.261194197660535 
1713	 0.260755178144645 
1714	 0.260335231036943 
1715	 0.259881791699855 
1716	 0.25940583493859 
1717	 0.258980069883862 
1718	 0.258513352719993 
1719	 0.25812243393919 
1720	 0.257922822019125 
1721	 0.257510250048964 
1722	 0.256946519329066 
1723	 0.256538465839715 
1724	 0.256074898634275 
1725	 0.25567001128817 
1726	 0.255378219764712 
1727	 0.255090506577315 
1728	 0.254828508076326 
1729	 0.254529061006366 
1730	 0.254307648377291 
1731	 0.254075602647538 
1732	 0.253633923170982 
1733	 0.253374078896505 
1734	 0.253186770734358 
1735	 0.253003258055564 
1736	 0.252847390712255 
1737	 0.252569137528242 
1738	 0.252148269378909 
1739	 0.251697771360069 
1740	 0.251292349038809 
1741	 0.250852491898093 
1742	 0.250413494534945 
1743	 0.249822698446698 
1744	 0.249202153402784 
1745	 0.248750280059814 
1746	 0.248293417314149 
1747	 0.247777400422826 
1748	 0.247261248824947 
1749	 0.246703580367512 
1750	 0.246071833794962 
1751	 0.245555545709948 
1752	 0.245044997419602 
1753	 0.244371253904967 
1754	 0.243778564329382 
1755	 0.243210274287565 
1756	 0.242444880432217 
1757	 0.24175530739346 
1758	 0.241131815682111 
1759	 0.240493514932368 
1760	 0.240001547627631 
1761	 0.239690511671501 
1762	 0.239247785338863 
1763	 0.238804209884613 
1764	 0.238281353776322 
1765	 0.237589010105878 
1766	 0.23713494036327 
1767	 0.236804517993824 
1768	 0.236446847620073 
1769	 0.236201222046367 
1770	 0.235870156696235 
1771	 0.235415170311182 
1772	 0.235119840689488 
1773	 0.234981264378119 
1774	 0.234800728450728 
1775	 0.234550145619095 
1776	 0.234188606684233 
1777	 0.233842187743982 
1778	 0.233599321148067 
1779	 0.233488967758306 
1780	 0.233533770529168 
1781	 0.233446743370752 
1782	 0.23316607401817 
1783	 0.232898237625045 
1784	 0.232711689973676 
1785	 0.232623854543686 
1786	 0.232691555624384 
1787	 0.23272274736877 
1788	 0.232455973074729 
1789	 0.232222669220734 
1790	 0.232328349488974 
1791	 0.232427509092057 
1792	 0.232615334224776 
1793	 0.232927002143772 
1794	 0.232809671844514 
1795	 0.232420983473917 
1796	 0.232438729801163 
1797	 0.232419031405741 
1798	 0.232368436145594 
1799	 0.232949694903985 
1800	 0.233038342925921 
1801	 0.234166562200597 
1802	 0.234794863355377 
1803	 0.234888492215415 
1804	 0.235439582633184 
1805	 0.235701111235534 
1806	 0.234789676039194 
1807	 0.234960613345118 
1808	 0.236217562082971 
1809	 0.23729003887184 
1810	 0.237764226450465 
1811	 0.23793732960772 
1812	 0.238691518318081 
1813	 0.239837463740604 
1814	 0.239504917971073 
1815	 0.238972227529139 
1816	 0.238203148469465 
1817	 0.233648102485382 
1818	 0.231494552459558 
1819	 0.230361458319396 
1820	 0.23150550518738 
1821	 0.231555903748874 
1822	 0.233263614089932 
1823	 0.233792778597973 
1824	 0.233479901335461 
1825	 0.23381373484886 
1826	 0.233287984709512 
1827	 0.23428530303268 
1828	 0.2365702701177 
1829	 0.242923868916831 
1830	 0.244653245267029 
1831	 0.246418682584751 
1832	 0.245571850705514 
1833	 0.230526279079793 
1834	 0.218967133847005 
1835	 0.212520476282764 
1836	 0.196630962121768 
1837	 0.160091268566755 
1838	 0.147862415282424 
1839	 0.151323870598955 
1840	 0.172252467482921 
1841	 0.192362407977988 
1842	 0.257148553592896 
1843	 0.270949366987551 
1844	 0.248352478566067 
1845	 0.249165574209095 
1846	 0.232350131711675 
1847	 0.23526819244332 
1848	 0.249907643513334 
1849	 0.305862736668021 
1850	 0.303993043413507 
1851	 0.293639730020941 
1852	 0.267663265473785 
1853	 0.170702425279369 
1854	 0.152010710463412 
1855	 0.172756047224384 
1856	 0.17636948805595 
1857	 0.195261837818618 
1858	 0.24147189643138 
1859	 0.235228304555341 
1860	 0.188869194575723 
1861	 0.180207055433221 
1862	 0.171006962741654 
1863	 0.162957261486203 
1864	 0.177121117548175 
1865	 0.173572732389507 
1866	 0.157352238207013 
1867	 0.125274136218448 
1868	 0.119855851898359 
1869	 0.132458559092718 
1870	 0.145763009292392 
1871	 0.198757334887561 
1872	 0.211061873693839 
1873	 0.199296527197234 
1874	 0.192137987883876 
1875	 0.185132289844905 
1876	 0.170359107798765 
1877	 0.14996460280971 
1878	 0.142024002893366 
1879	 0.13558698680298 
1880	 0.123909586435425 
1881	 0.119248521146656 
1882	 0.118744058631547 
1883	 0.117978269405572 
1884	 0.118946860521736 
1885	 0.117115296082609 
1886	 0.118460005497516 
1887	 0.112161836585692 
1888	 0.10269075323557 
1889	 9.79600397502959E-02 
1890	 9.41352992603559E-02 
1891	 9.06053972465469E-02 
1892	 8.88424626495854E-02 
1893	 9.00126047751961E-02 
1894	 8.91788235205278E-02 
1895	 8.92983404747364E-02 
1896	 8.85854776009319E-02 
1897	 8.83473014744968E-02 
1898	 8.43361321873541E-02 
1899	 7.42598847002838E-02 
1900	 6.91196494410707E-02 
1901	 7.14632526935617E-02 
1902	 8.07382386156715E-02 
1903	 8.79153937087321E-02 
1904	 0.116541590362013 
1905	 0.121946281923739 
1906	 0.104200210350438 
1907	 0.103412927398906 
1908	 9.18855969050711E-02 
1909	 7.61073619717334E-02 
1910	 5.92961970935697E-02 
1911	 4.56579171575731E-02 
1912	 4.24386721963568E-02 
1913	 4.23408282684071E-02 
1914	 4.33978737657184E-02 
1915	 0.047780240354749 
1916	 5.07526867722594E-02 
1917	 5.36647065020308E-02 
1918	 5.63521685223383E-02 
1919	 5.68001800717136E-02 
1920	 5.60022749038649E-02 
1921	 5.45229200964762E-02 
1922	 5.45740143612274E-02 
1923	 5.41976329732102E-02 
1924	 5.38418851674643E-02 
1925	 5.53352943806823E-02 
1926	 5.74344974321738E-02 
1927	 0.057925725803838 
1928	 0.058654700692375 
1929	 6.12249529540474E-02 
1930	 6.07268324410859E-02 
1931	 5.93281765365881E-02 
1932	 5.93305292679034E-02 
1933	 5.85304359412265E-02 
1934	 5.82803210496091E-02 
1935	 5.85954335125397E-02 
1936	 5.81734112542143E-02 
1937	 5.77258571961543E-02 
1938	 5.77345094763133E-02 
1939	 5.72857230871672E-02 
1940	 5.66928022842522E-02 
1941	 5.85548639346677E-02 
1942	 5.86398550873853E-02 
1943	 5.82293915835911E-02 
1944	 5.84616016660885E-02 
1945	 5.82986364330355E-02 
1946	 0.058017717543232 
1947	 5.77506063857829E-02 
1948	 5.75478123922898E-02 
1949	 5.76959189763587E-02 
1950	 5.80095387099847E-02 
1951	 5.78407468023503E-02 
1952	 0.058145718246356 
1953	 5.87783395855729E-02 
1954	 5.81519303963301E-02 
1955	 5.78506788237106E-02 
1956	 5.85679550094033E-02 
1957	 5.85096330287727E-02 
1958	 5.88360824146094E-02 
1959	 0.05991694437755 
1960	 6.04481041132466E-02 
1961	 6.05960865294571E-02 
1962	 6.08434473574287E-02 
1963	 6.12892664865163E-02 
1964	 6.12756323052516E-02 
1965	 6.14229562998762E-02 
1966	 0.061916878685742 
1967	 6.23445704830887E-02 
1968	 0.062877188711944 
1969	 6.34196904105471E-02 
1970	 6.41852490827905E-02 
1971	 0.064429127576085 
1972	 6.44309926262593E-02 
1973	 6.46643039747722E-02 
1974	 6.48239412818154E-02 
1975	 6.50214552398747E-02 
1976	 6.57161320698334E-02 
1977	 6.63099658235963E-02 
1978	 6.62564368198743E-02 
1979	 6.66094697298337E-02 
1980	 6.73477848098514E-02 
1981	 6.74714055867615E-02 
1982	 6.78544413584379E-02 
1983	 6.84938428582511E-02 
1984	 6.91929694139198E-02 
1985	 0.069385933575839 
1986	 7.00890298379789E-02 
1987	 7.08969407195774E-02 
1988	 0.071376776270875 
1989	 7.18073632232286E-02 
1990	 0.071973229435001 
1991	 7.22291910023153E-02 
1992	 7.24927244059812E-02 
1993	 7.24508023415995E-02 
1994	 7.27722475321187E-02 
1995	 7.32260398231299E-02 
1996	 7.37783155788073E-02 
1997	 0.074321736276223 
1998	 7.55051849829991E-02 
1999	 7.63372196860369E-02 
2000	 7.70556838800899E-02 
2001	 7.78461868466978E-02 
2002	 7.80513318356539E-02 
2003	 7.81627975094115E-02 
2004	 7.77912162339776E-02 
2005	 7.75658898285141E-02 
2006	 7.76936032208301E-02 
2007	 7.78539342385521E-02 
2008	 7.86370531395452E-02 
2009	 8.00555822913534E-02 
2010	 8.06114642766591E-02 
2011	 8.15304413310981E-02 
2012	 8.25133950518227E-02 
2013	 8.27387410843102E-02 
2014	 8.29728564001992E-02 
2015	 8.28235138658475E-02 
2016	 8.27617109865708E-02 
2017	 8.27780659800526E-02 
2018	 8.28577650910104E-02 
2019	 0.083185560590557 
2020	 8.37452113333355E-02 
2021	 8.40883654828572E-02 
2022	 8.44923894858576E-02 
2023	 8.52233288931599E-02 
2024	 0.085821789822312 
2025	 8.62262844090832E-02 
2026	 8.70164313004719E-02 
2027	 0.087708366612026 
2028	 8.81128733134084E-02 
2029	 8.84838444458803E-02 
2030	 8.85703611116349E-02 
2031	 8.85378994171821E-02 
2032	 8.87380729424229E-02 
2033	 8.89905063435556E-02 
2034	 8.95886481611561E-02 
2035	 9.02930441080126E-02 
2036	 9.07410670775718E-02 
2037	 9.10397279714183E-02 
2038	 9.12414772806844E-02 
2039	 9.13409130418214E-02 
2040	 0.091679635090909 
2041	 0.092302838693516 
2042	 0.092794928473959 
2043	 9.31665718784848E-02 
2044	 9.36795796048026E-02 
2045	 9.39577016760519E-02 
2046	 9.40090692568486E-02 
2047	 9.40945067059918E-02 
2048	 9.44192692832187E-02 
2049	 9.44564705056731E-02 
2050	 9.47875742655677E-02 
2051	 9.51873581031354E-02 
2052	 9.54563631810545E-02 
2053	 0.096026673888077 
2054	 9.64995123212783E-02 
2055	 9.70236677899083E-02 
2056	 9.73494129490968E-02 
2057	 9.73519012133971E-02 
2058	 9.75722883590911E-02 
2059	 9.77171033865471E-02 
2060	 9.77670827292722E-02 
2061	 9.79148117837595E-02 
2062	 9.83785267494758E-02 
2063	 9.87659055142774E-02 
2064	 9.92789646509748E-02 
2065	 9.99483290918753E-02 
2066	 0.100514120115791 
2067	 0.100867293988095 
2068	 0.101231236073564 
2069	 0.101841329707123 
2070	 0.102081397845365 
2071	 0.102206944163991 
2072	 0.102643810461237 
2073	 0.103230231172238 
2074	 0.103592302290525 
2075	 0.104129055522466 
2076	 0.104861533083661 
2077	 0.105075110535754 
2078	 0.105155204957686 
2079	 0.105450313764941 
2080	 0.105671990899479 
2081	 0.106170782982555 
2082	 0.106882714041553 
2083	 0.107481534856433 
2084	 0.108004422951945 
2085	 0.108405485075475 
2086	 0.108887260426054 
2087	 0.109337767395573 
2088	 0.109778504708868 
2089	 0.11024748704954 
2090	 0.110658674325402 
2091	 0.110791732115921 
2092	 0.110937877113867 
2093	 0.11137147208569 
2094	 0.112121025193889 
2095	 0.112784631703041 
2096	 0.113440985699012 
2097	 0.11393484870768 
2098	 0.113879280659781 
2099	 0.114017625478492 
2100	 0.114315932377468 
2101	 0.114624245983259 
2102	 0.114989274316788 
2103	 0.115563024621945 
2104	 0.115934804990813 
2105	 0.116205991027002 
2106	 0.116504943917536 
2107	 0.116799434815842 
2108	 0.117042547900177 
2109	 0.117241561164717 
2110	 0.117444082522685 
2111	 0.117403142479787 
2112	 0.117499301716177 
2113	 0.118092384075269 
2114	 0.118787241176193 
2115	 0.119598348141928 
2116	 0.120481313492453 
2117	 0.121087009404884 
2118	 0.121322263768383 
2119	 0.12169963003075 
2120	 0.122043101319893 
2121	 0.122225549447597 
2122	 0.122641926003252 
2123	 0.12325688260822 
2124	 0.123633073888563 
2125	 0.124225476619498 
2126	 0.124371116152902 
2127	 0.124269705776178 
2128	 0.124294168749542 
2129	 0.124162076762529 
2130	 0.124703236938623 
2131	 0.125477715436651 
2132	 0.125879418897944 
2133	 0.126350016791604 
2134	 0.126728118287258 
2135	 0.126927419947249 
2136	 0.12686995350106 
2137	 0.127091276561553 
2138	 0.127606024188298 
2139	 0.128055749983346 
2140	 0.128503527846788 
2141	 0.128843289810562 
2142	 0.128742626805528 
2143	 0.128930169349996 
2144	 0.129290891278465 
2145	 0.129441201978052 
2146	 0.130036093214098 
2147	 0.130489258758046 
2148	 0.130488698073301 
2149	 0.130526139260266 
2150	 0.130955949587818 
2151	 0.131436433329036 
2152	 0.132082744153552 
2153	 0.132503299809938 
2154	 0.133206216956972 
2155	 0.133219678437183 
2156	 0.133004763082714 
2157	 0.132704535522083 
2158	 0.132551797387788 
2159	 0.133038688217178 
2160	 0.133421652657258 
2161	 0.133892776456862 
2162	 0.134042072807979 
2163	 0.133814632570691 
2164	 0.133880467837549 
2165	 0.133746911732744 
2166	 0.13396082486904 
2167	 0.134645213752578 
2168	 0.135003989796742 
2169	 0.135189318125392 
2170	 0.135515771800494 
2171	 0.135890791911155 
2172	 0.13601146434121 
2173	 0.136287037699603 
2174	 0.136706275602164 
2175	 0.136950752126974 
2176	 0.136969709437703 
2177	 0.136907811834625 
2178	 0.136788739457121 
2179	 0.136873109657346 
2180	 0.136930967335782 
2181	 0.136993318336314 
2182	 0.137419924479311 
2183	 0.137628279439746 
2184	 0.138101572606584 
2185	 0.138714578868393 
2186	 0.138780440480774 
2187	 0.139011064570067 
2188	 0.139250210511608 
2189	 0.139389508532685 
2190	 0.13948170328749 
2191	 0.139612655899799 
2192	 0.139619449273416 
2193	 0.139515222747777 
2194	 0.139299647994913 
2195	 0.139567588060491 
2196	 0.140085068282617 
2197	 0.140695352441996 
2198	 0.141378273727213 
2199	 0.141820981557231 
2200	 0.142153115890831 
2201	 0.142269885868311 
2202	 0.142194773620526 
2203	 0.142350825319295 
2204	 0.142324449454978 
2205	 0.142064697963736 
2206	 0.142276800382401 
2207	 0.142620490333981 
2208	 0.142859579867267 
2209	 0.143307272798053 
2210	 0.14350828347191 
2211	 0.143567897583205 
2212	 0.143544840374162 
2213	 0.143217133839942 
2214	 0.143000254909763 
2215	 0.143188484843404 
2216	 0.143144510887305 
2217	 0.143164844500433 
2218	 0.143086174356725 
2219	 0.142944126301306 
2220	 0.14288562906537 
2221	 0.142742935099283 
2222	 0.143027529693406 
2223	 0.143111080591124 
2224	 0.143099904721037 
2225	 0.143389680642281 
2226	 0.143446914497988 
2227	 0.143645636730809 
2228	 0.143469296135625 
2229	 0.142967489144894 
2230	 0.14285253784672 
2231	 0.142692344282477 
2232	 0.14264873691921 
2233	 0.142172679955172 
2234	 0.141678634775999 
2235	 0.140727974865288 
2236	 0.139542897907235 
2237	 0.1391457382603 
2238	 0.138859422548063 
2239	 0.138620909802774 
2240	 0.138625936292906 
2241	 0.137990429941298 
2242	 0.13706082233811 
2243	 0.136389941493554 
2244	 0.135683554741544 
2245	 0.135460315374116 
2246	 0.135712061187532 
2247	 0.135664047111686 
2248	 0.135497318534742 
2249	 0.134687310120046 
2250	 0.13358170328947 
2251	 0.132705511993189 
2252	 0.131807742233724 
2253	 0.130993221477759 
2254	 0.130034836182122 
2255	 0.129236638428825 
2256	 0.128673796299342 
2257	 0.128188940474452 
2258	 0.128172789523366 
2259	 0.12813490305362 
2260	 0.127784268984717 
2261	 0.12743727271769 
2262	 0.126568167438791 
2263	 0.126289041144156 
2264	 0.125937869826302 
2265	 0.125212870059716 
2266	 0.124492544960631 
2267	 0.123019351521853 
2268	 0.122093864160233 
2269	 0.121294735586807 
2270	 0.120332978138153 
2271	 0.12024948046246 
2272	 0.120090793426129 
2273	 0.120059293322518 
2274	 0.12056195862882 
2275	 0.120191539170787 
2276	 0.119016896846841 
2277	 0.118048469069638 
2278	 0.117310974699654 
2279	 0.116786493764474 
2280	 0.116325799605991 
2281	 0.115872703361551 
2282	 0.115343548473617 
2283	 0.114502869632781 
2284	 0.114130926949018 
2285	 0.114003905229876 
2286	 0.113725546192016 
2287	 0.113249701253124 
2288	 0.113375203544351 
2289	 0.113450417051691 
2290	 0.11329501835797 
2291	 0.112758989936821 
2292	 0.111482427698773 
2293	 0.110551857482653 
2294	 0.109655110177674 
2295	 0.109418623541239 
2296	 0.109641660717977 
2297	 0.109137101029463 
2298	 0.108884743368005 
2299	 0.108513382223549 
2300	 0.107842788073414 
2301	 0.106887512214019 
2302	 0.105640992179134 
2303	 0.105441463678118 
2304	 0.104623694566674 
2305	 0.103692878983557 
2306	 0.104275134375331 
2307	 0.103237347086881 
2308	 0.102322126620492 
2309	 0.102939750583861 
2310	 0.102434034683968 
2311	 0.101928306651831 
2312	 0.102266250120667 
2313	 0.102312008084586 
2314	 0.101350458934404 
2315	 0.10078412697071 
2316	 0.100236062261751 
2317	 9.95281788481624E-02 
2318	 0.099761208939462 
2319	 9.91933739814166E-02 
2320	 0.098867675483233 
2321	 9.90006861331529E-02 
2322	 9.90621487935235E-02 
2323	 9.93538994962168E-02 
2324	 0.100378882585562 
2325	 0.101217339134318 
2326	 0.101497719453922 
2327	 0.101412741940188 
2328	 0.101193265207282 
2329	 0.100672091437054 
2330	 9.95349631959204E-02 
2331	 9.86177859109533E-02 
2332	 9.79618040894157E-02 
2333	 9.76080767063838E-02 
2334	 9.74345212547893E-02 
2335	 9.77201798374578E-02 
2336	 0.097768023987095 
2337	 9.69961927370804E-02 
2338	 9.67195008370901E-02 
2339	 9.59748516808743E-02 
2340	 9.50584747603832E-02 
2341	 9.51172985206974E-02 
2342	 9.46196550654364E-02 
2343	 9.42212208632469E-02 
2344	 9.46268079681437E-02 
2345	 9.43947111679844E-02 
2346	 9.39830602281343E-02 
2347	 9.33645936473577E-02 
2348	 9.13740203605268E-02 
2349	 9.02800139355525E-02 
2350	 9.09911654948345E-02 
2351	 9.18513819954777E-02 
2352	 9.34229150043352E-02 
2353	 9.36825227182383E-02 
2354	 9.30984251518524E-02 
2355	 9.31212917927945E-02 
2356	 9.19859727694986E-02 
2357	 9.08333304322227E-02 
2358	 9.00337532901897E-02 
2359	 8.91856726618585E-02 
2360	 8.86695262311088E-02 
2361	 8.93783485367209E-02 
2362	 8.94443761990405E-02 
2363	 8.84450767914837E-02 
2364	 8.88727415989771E-02 
2365	 8.94280041429805E-02 
2366	 8.95574336209428E-02 
2367	 8.93045773536033E-02 
2368	 0.088652769477628 
2369	 8.73709299902161E-02 
2370	 8.63903245070376E-02 
2371	 8.69765859351954E-02 
2372	 0.087445175951776 
2373	 8.87288736557092E-02 
2374	 8.89899273159769E-02 
2375	 8.90895234250448E-02 
2376	 8.89314721104597E-02 
2377	 8.78063342763357E-02 
2378	 0.087281679358523 
2379	 8.66745761506524E-02 
2380	 8.59422842217448E-02 
2381	 0.085948450097581 
2382	 8.45501366206664E-02 
2383	 0.082496170912401 
2384	 8.16385684540406E-02 
2385	 7.92601015399585E-02 
2386	 7.89475034178741E-02 
2387	 8.10161311420493E-02 
2388	 8.19027478503972E-02 
2389	 8.35983553837807E-02 
2390	 8.35596907606562E-02 
2391	 8.25224079684667E-02 
2392	 8.24125773934501E-02 
2393	 8.13058247785303E-02 
2394	 8.06900310992951E-02 
2395	 8.11514028040201E-02 
2396	 8.00660381478261E-02 
2397	 7.76995944896997E-02 
2398	 7.65579231652047E-02 
2399	 7.47802988597305E-02 
2400	 0.075296031713272 
2401	 7.73254000987184E-02 
2402	 8.00604647073958E-02 
2403	 8.22069703670468E-02 
2404	 8.24297611678336E-02 
2405	 7.95710230641413E-02 
2406	 0.078112241571888 
2407	 7.98706162131899E-02 
2408	 7.84799307291436E-02 
2409	 0.076294474494845 
2410	 0.075456567807284 
2411	 7.23950672488455E-02 
2412	 7.08777527581957E-02 
2413	 7.18033798499054E-02 
2414	 7.18513216139775E-02 
2415	 7.22073754935477E-02 
2416	 7.29812865537102E-02 
2417	 7.40955776808777E-02 
2418	 7.64071086758924E-02 
2419	 7.80477169128238E-02 
2420	 7.96819365205803E-02 
2421	 7.90757115192043E-02 
2422	 7.56214459363445E-02 
2423	 7.48533460612077E-02 
2424	 0.073748520894809 
2425	 7.25949933349168E-02 
2426	 7.29405238787409E-02 
2427	 0.06895771207834 
2428	 6.48789481293838E-02 
2429	 6.52919181597863E-02 
2430	 0.064677211004971 
2431	 6.43214935377928E-02 
2432	 6.65070019903974E-02 
2433	 6.86046562527145E-02 
2434	 6.96551338662814E-02 
2435	 7.09860641877774E-02 
2436	 7.07500970374359E-02 
2437	 6.61348531181963E-02 
2438	 6.56336514065208E-02 
2439	 6.93065544056414E-02 
2440	 6.83244739639138E-02 
2441	 6.78775455790548E-02 
2442	 6.69092706669627E-02 
2443	 5.96407167546988E-02 
2444	 5.73282192307615E-02 
2445	 5.63673742791252E-02 
2446	 5.80715205082555E-02 
2447	 6.69688344780743E-02 
2448	 6.95525662984402E-02 
2449	 7.34265546494714E-02 
2450	 0.073574964941508 
2451	 6.55599880557672E-02 
2452	 6.46511429743799E-02 
2453	 6.42960909308207E-02 
2454	 6.50105670842286E-02 
2455	 6.87961540313664E-02 
2456	 6.93068094816172E-02 
2457	 6.96128431467354E-02 
2458	 7.02003250243034E-02 
2459	 7.17997157315802E-02 
2460	 7.02870466592377E-02 
2461	 0.066224884784786 
2462	 6.45963238535579E-02 
2463	 6.08161678430688E-02 
2464	 5.86595410056084E-02 
2465	 5.73791863444625E-02 
2466	 5.99729118735448E-02 
2467	 6.67322677255829E-02 
2468	 6.86796648995217E-02 
2469	 7.64737765838905E-02 
2470	 7.36794054586156E-02 
2471	 5.41316057476142E-02 
2472	 5.09905005406291E-02 
2473	 5.27663692950403E-02 
2474	 4.97643371880992E-02 
2475	 5.45784634778103E-02 
2476	 5.67269273460189E-02 
2477	 5.27784648301012E-02 
2478	 5.08600662420348E-02 
2479	 5.08900070179391E-02 
2480	 5.71591911532853E-02 
2481	 6.23156191729958E-02 
2482	 7.01976615654497E-02 
2483	 0.103502674643365 
2484	 0.113946947948919 
2485	 0.10096501900298 
2486	 9.63325806153545E-02 
2487	 6.86635371759339E-02 
2488	 5.28809914540563E-02 
2489	 4.99233434378598E-02 
2490	 5.16393337032339E-02 
2491	 6.52853516735411E-02 
2492	 4.58134175264841E-02 
2493	 4.50388517798106E-02 
2494	 9.43680737421379E-02 
2495	 0.118109282858366 
2496	 0.113795940011837 
2497	 0.147513749061387 
2498	 0.113996233750186 
2499	 5.19666922858588E-02 
2500	 4.91794510469583E-02 
