Wavelength	ref00073.asd
350	 3.11020046072156E-02 
351	 3.08919952350773E-02 
352	 3.13825179602102E-02 
353	 3.20376180691474E-02 
354	 3.14036734913043E-02 
355	 3.08371192461403E-02 
356	 3.11107425926181E-02 
357	 3.07126576100128E-02 
358	 3.06795092282774E-02 
359	 3.03256495702537E-02 
360	 0.02916481716676 
361	 2.97502667699533E-02 
362	 0.029824967564549 
363	 2.93272443771701E-02 
364	 2.95865236823658E-02 
365	 2.94351101412443E-02 
366	 2.92028545237931E-02 
367	 2.90660599033756E-02 
368	 2.87317917643245E-02 
369	 0.028702803202005 
370	 2.87582916310592E-02 
371	 2.86887437553869E-02 
372	 2.89355321026512E-02 
373	 2.86976474525308E-02 
374	 0.028416332845122 
375	 2.89444284420979E-02 
376	 2.90500470349087E-02 
377	 2.90010351641743E-02 
378	 2.90596549380907E-02 
379	 2.92962276456886E-02 
380	 2.89760962922495E-02 
381	 2.88919884884094E-02 
382	 2.94907869106662E-02 
383	 0.029361723424322 
384	 2.96966961322241E-02 
385	 3.01556791406687E-02 
386	 3.00044999978858E-02 
387	 3.06032390154682E-02 
388	 3.13643976090113E-02 
389	 3.18326049334045E-02 
390	 0.031903391882299 
391	 3.24766055909887E-02 
392	 3.29894808716694E-02 
393	 3.31257267434005E-02 
394	 3.36926521198181E-02 
395	 3.46945506263502E-02 
396	 3.58677023498828E-02 
397	 3.68759013304781E-02 
398	 0.037670871693198 
399	 3.85575789000697E-02 
400	 3.96067200803452E-02 
401	 4.06756428388148E-02 
402	 4.15546187119272E-02 
403	 4.27111020908047E-02 
404	 4.43515631071713E-02 
405	 4.60070953564851E-02 
406	 0.047769921557281 
407	 4.95424340549303E-02 
408	 5.12613308963847E-02 
409	 5.33148088619283E-02 
410	 5.55212114938347E-02 
411	 5.77728379229018E-02 
412	 6.00467584243277E-02 
413	 6.22512771966645E-02 
414	 6.42897959514251E-02 
415	 6.62852932271525E-02 
416	 6.88445525855954E-02 
417	 7.11369901379019E-02 
418	 7.31158896228244E-02 
419	 7.50631481692532E-02 
420	 7.73473521072291E-02 
421	 0.079728845690326 
422	 8.19778362745588E-02 
423	 8.39524175908802E-02 
424	 8.60949056764175E-02 
425	 8.83708336505577E-02 
426	 0.090635566988337 
427	 9.26701192325618E-02 
428	 9.49247278951224E-02 
429	 9.71263654719057E-02 
430	 9.89172982429659E-02 
431	 0.100942776423265 
432	 0.102737711758801 
433	 0.104063228611006 
434	 0.104980277449759 
435	 0.106176841281022 
436	 0.107216739778287 
437	 0.107828754071171 
438	 0.108503314613011 
439	 0.108683397266323 
440	 0.108646477078176 
441	 0.10879671721868 
442	 0.108490048296418 
443	 0.108242500051022 
444	 0.108191439727955 
445	 0.108059691257876 
446	 0.107825253896336 
447	 0.107770199455924 
448	 0.108008935808948 
449	 0.108116555567329 
450	 0.108348340218741 
451	 0.108745512113661 
452	 0.1092923735812 
453	 0.110219988698921 
454	 0.11122264347055 
455	 0.112211818999745 
456	 0.11339715202847 
457	 0.114719143101012 
458	 0.116164145996544 
459	 0.117694243098264 
460	 0.119167580713991 
461	 0.120779492781732 
462	 0.122404834206485 
463	 0.123781666444867 
464	 0.12516243077503 
465	 0.126488526514453 
466	 0.127653244030723 
467	 0.128532221543108 
468	 0.129048043282962 
469	 0.129286961306302 
470	 0.129335804688373 
471	 0.129041479332598 
472	 0.128683585304458 
473	 0.128214356602562 
474	 0.127390485293307 
475	 0.126591869266939 
476	 0.125826311767961 
477	 0.125109042266916 
478	 0.12456736050893 
479	 0.124278760750218 
480	 0.12427409992441 
481	 0.124552676772877 
482	 0.125065485314331 
483	 0.125975547705181 
484	 0.127426011264023 
485	 0.129500730241851 
486	 0.13191710301226 
487	 0.134731691067733 
488	 0.138010785825629 
489	 0.141685563691148 
490	 0.145752906830269 
491	 0.150122922132396 
492	 0.154770926618719 
493	 0.159987706932544 
494	 0.165664842599393 
495	 0.171691676059888 
496	 0.178001838751237 
497	 0.184512611863567 
498	 0.191349050128395 
499	 0.198648641694646 
500	 0.206420691809824 
501	 0.21459593253411 
502	 0.223051589549284 
503	 0.23165921188819 
504	 0.240458237311776 
505	 0.249367601476383 
506	 0.258406092664425 
507	 0.267756985843297 
508	 0.277352416429037 
509	 0.287164406992279 
510	 0.297142334719932 
511	 0.307153007633445 
512	 0.317210736406668 
513	 0.327271155243051 
514	 0.337265933063865 
515	 0.347364843236067 
516	 0.357662532621366 
517	 0.368093306742326 
518	 0.378473899538921 
519	 0.388398254309218 
520	 0.397740140295218 
521	 0.406577490858468 
522	 0.415012316810936 
523	 0.423083996664262 
524	 0.430865060114826 
525	 0.438373597702798 
526	 0.445863975258353 
527	 0.453002043094042 
528	 0.459455649774867 
529	 0.465261143385473 
530	 0.470550605864973 
531	 0.47553961062047 
532	 0.480452417996307 
533	 0.485046498895666 
534	 0.489318744283868 
535	 0.493216317870484 
536	 0.496577999189082 
537	 0.499795210834561 
538	 0.502990633375992 
539	 0.506142447464743 
540	 0.509075143854274 
541	 0.511820669611354 
542	 0.51432782669074 
543	 0.516487370775472 
544	 0.518624223998475 
545	 0.520620940009146 
546	 0.522400789993277 
547	 0.52413204026893 
548	 0.525921629192133 
549	 0.527612820654791 
550	 0.529019467212288 
551	 0.530555434572545 
552	 0.532148367150606 
553	 0.533766786897112 
554	 0.53547040013641 
555	 0.537107062361874 
556	 0.538830500266171 
557	 0.540792078116808 
558	 0.542853039351544 
559	 0.545087484797932 
560	 0.547450224739662 
561	 0.54985334037855 
562	 0.552476090476688 
563	 0.555281360132004 
564	 0.558215621989521 
565	 0.56123730373533 
566	 0.564139098564216 
567	 0.566980333194883 
568	 0.569885197048077 
569	 0.572754198987626 
570	 0.57573302190316 
571	 0.578827436309699 
572	 0.581913885316023 
573	 0.5849576200832 
574	 0.588033836305437 
575	 0.591181647970771 
576	 0.594205302217524 
577	 0.597239911080817 
578	 0.600241799838736 
579	 0.603072259974145 
580	 0.605533920064648 
581	 0.607743432765238 
582	 0.60987012539048 
583	 0.612104669255769 
584	 0.614426029256302 
585	 0.616951636349311 
586	 0.619694167092334 
587	 0.622202453207488 
588	 0.625029525804365 
589	 0.628132608091745 
590	 0.630951747815086 
591	 0.633388746212064 
592	 0.635453304182574 
593	 0.637229606748078 
594	 0.638703793387378 
595	 0.640156948010943 
596	 0.641523540407731 
597	 0.642696619660575 
598	 0.643984164723558 
599	 0.645238694694498 
600	 0.646341780369194 
601	 0.647234944669508 
602	 0.648163559850569 
603	 0.649021188666949 
604	 0.649729379663377 
605	 0.650474913148438 
606	 0.65126839289197 
607	 0.652018626663408 
608	 0.652594306704904 
609	 0.653059648005967 
610	 0.653510745834401 
611	 0.65395926406211 
612	 0.654300352787238 
613	 0.65454557737179 
614	 0.654736993714167 
615	 0.654890303056721 
616	 0.654871303432716 
617	 0.654916725572369 
618	 0.654987595185171 
619	 0.654877901473207 
620	 0.654860787880704 
621	 0.654814363349079 
622	 0.654672331613834 
623	 0.654571883194327 
624	 0.654544247600991 
625	 0.654599762035864 
626	 0.654697927916586 
627	 0.654650582845427 
628	 0.654570574082767 
629	 0.654485926499224 
630	 0.654333249167245 
631	 0.654202484619075 
632	 0.653996692608388 
633	 0.653679071807542 
634	 0.653464665424402 
635	 0.653135375560886 
636	 0.652739501953455 
637	 0.652403478158553 
638	 0.651897354852816 
639	 0.651245002744778 
640	 0.650570772322451 
641	 0.650110999926663 
642	 0.649584740141387 
643	 0.649015862812387 
644	 0.648490183452642 
645	 0.648037751110082 
646	 0.647738373958032 
647	 0.647503432508934 
648	 0.647136264816869 
649	 0.646560969876534 
650	 0.645873242565759 
651	 0.645229089960672 
652	 0.644803572407558 
653	 0.644300215502693 
654	 0.643763729801768 
655	 0.643284079595372 
656	 0.642740369642858 
657	 0.642191761738616 
658	 0.641674490381346 
659	 0.641092135096638 
660	 0.640302902651495 
661	 0.639461749372968 
662	 0.638688133000959 
663	 0.637898689482031 
664	 0.637146203564678 
665	 0.636442737860687 
666	 0.635793693107807 
667	 0.635292768263181 
668	 0.634726596614506 
669	 0.634096936773266 
670	 0.633597729635362 
671	 0.633168145849894 
672	 0.632785103722251 
673	 0.632425430251612 
674	 0.632030716514608 
675	 0.631753538145282 
676	 0.631544195111004 
677	 0.631305902009911 
678	 0.631181189977349 
679	 0.631069600603993 
680	 0.630935322007595 
681	 0.630832351003402 
682	 0.630943125638607 
683	 0.631200979890957 
684	 0.631528424509065 
685	 0.631965646345231 
686	 0.632516662588523 
687	 0.633329113389464 
688	 0.63446925311803 
689	 0.635441752751497 
690	 0.636577516376848 
691	 0.638083184989284 
692	 0.639879048306096 
693	 0.642377533940462 
694	 0.644950561366377 
695	 0.646987259403321 
696	 0.648568796652585 
697	 0.650176246307462 
698	 0.652265061100156 
699	 0.655088853301662 
700	 0.657876719140778 
701	 0.66051934774576 
702	 0.662955535574877 
703	 0.665122183659769 
704	 0.667308161433403 
705	 0.669503427857135 
706	 0.671704461412381 
707	 0.674059764596382 
708	 0.676480572798893 
709	 0.678882955602786 
710	 0.681188465525569 
711	 0.683463119366672 
712	 0.685835576697043 
713	 0.68835930606527 
714	 0.691005477366335 
715	 0.694095100040642 
716	 0.698142591401691 
717	 0.703356791374252 
718	 0.708684268606021 
719	 0.712356726269022 
720	 0.713909615906553 
721	 0.714306324102233 
722	 0.714969927335443 
723	 0.717541277808496 
724	 0.721730880829254 
725	 0.724794443303278 
726	 0.726819427235228 
727	 0.72853285122066 
728	 0.730465757929856 
729	 0.732051393320205 
730	 0.733634433764116 
731	 0.734803727077174 
732	 0.735097371714912 
733	 0.735109234715329 
734	 0.7355245368816 
735	 0.736474318883141 
736	 0.737585622013327 
737	 0.738750053580322 
738	 0.73969619497447 
739	 0.740370278161011 
740	 0.741149559309383 
741	 0.741771470278709 
742	 0.742302085725411 
743	 0.742904496287707 
744	 0.743711857763832 
745	 0.744257833883176 
746	 0.744663299295798 
747	 0.745433043897031 
748	 0.745920559467226 
749	 0.746239220712267 
750	 0.74657867047412 
751	 0.747077805261149 
752	 0.747335969176375 
753	 0.747477693762592 
754	 0.747703517825548 
755	 0.747919902084135 
756	 0.747988197276866 
757	 0.74786722368017 
758	 0.747634484368438 
759	 0.747801264271079 
760	 0.748549502938881 
761	 0.749736932617251 
762	 0.750084005054127 
763	 0.750090566152899 
764	 0.749934843818546 
765	 0.749639108767791 
766	 0.749172170118742 
767	 0.748736176318002 
768	 0.74847868417332 
769	 0.748451046007287 
770	 0.748321209364954 
771	 0.748282243438883 
772	 0.748351524806029 
773	 0.748377702368638 
774	 0.748307232265184 
775	 0.74819207817621 
776	 0.748085200681499 
777	 0.748002711621071 
778	 0.747982769960778 
779	 0.747969927649465 
780	 0.74792942572612 
781	 0.748002433963002 
782	 0.74802996784315 
783	 0.747992756785067 
784	 0.747975811702141 
785	 0.748168330693934 
786	 0.748430224986229 
787	 0.74867786229531 
788	 0.748927967257986 
789	 0.749317757404561 
790	 0.749603471594896 
791	 0.749597766860959 
792	 0.749358171944225 
793	 0.749303561556476 
794	 0.749326896204079 
795	 0.749273850555819 
796	 0.749599447879412 
797	 0.749835281275752 
798	 0.749849821763903 
799	 0.7497646920843 
800	 0.749794459239635 
801	 0.749995831605404 
802	 0.750208624142152 
803	 0.750084575342405 
804	 0.749888823057827 
805	 0.749828477259457 
806	 0.749909643563624 
807	 0.749742606318058 
808	 0.749808437519643 
809	 0.750198844982263 
810	 0.750861195195608 
811	 0.751714199161358 
812	 0.752912670111248 
813	 0.754537778102611 
814	 0.756477517621506 
815	 0.757785132255447 
816	 0.758599397000061 
817	 0.758836621219328 
818	 0.758150079694973 
819	 0.757042316107274 
820	 0.755991165795405 
821	 0.755486211293536 
822	 0.756102165256143 
823	 0.756347036437921 
824	 0.755904431515511 
825	 0.754948411888655 
826	 0.753702110947777 
827	 0.753338545389994 
828	 0.753561851945783 
829	 0.753500340963389 
830	 0.753117688579152 
831	 0.75249434322686 
832	 0.751760023220903 
833	 0.75105021784464 
834	 0.750337143417007 
835	 0.749582453645842 
836	 0.748920061244777 
837	 0.748639273113082 
838	 0.748020014202652 
839	 0.747398273312576 
840	 0.747100822967545 
841	 0.747022843961001 
842	 0.746739948201082 
843	 0.746467512090266 
844	 0.746424527091556 
845	 0.74612499350305 
846	 0.74611563959956 
847	 0.746170312725644 
848	 0.745875691623488 
849	 0.745828845879881 
850	 0.745751123188973 
851	 0.745608927835012 
852	 0.745588134547917 
853	 0.745834565398623 
854	 0.745901805313562 
855	 0.745715015594505 
856	 0.745664251847925 
857	 0.745403373000564 
858	 0.745255347664044 
859	 0.745367271717769 
860	 0.745469434548639 
861	 0.745318716490526 
862	 0.745138706796115 
863	 0.74506392262208 
864	 0.744619840811169 
865	 0.744674318163609 
866	 0.744996923558552 
867	 0.745051010442035 
868	 0.744780392809156 
869	 0.7448196204445 
870	 0.744883302062002 
871	 0.74449470778875 
872	 0.744668334578776 
873	 0.744587671507356 
874	 0.744242365202717 
875	 0.744208153180896 
876	 0.744365171312366 
877	 0.744314074979852 
878	 0.744053123640819 
879	 0.743972454944317 
880	 0.743819926733527 
881	 0.743759649356776 
882	 0.743834439728327 
883	 0.743849390356008 
884	 0.743674333242962 
885	 0.743619616596063 
886	 0.743743555296887 
887	 0.743491191930598 
888	 0.743674642224786 
889	 0.743933147273512 
890	 0.743951359665815 
891	 0.744287672445929 
892	 0.745161599908333 
893	 0.746030032177949 
894	 0.746523255241201 
895	 0.747921406980263 
896	 0.748985689444951 
897	 0.750154068711761 
898	 0.75196341346221 
899	 0.751939226709301 
900	 0.751442609556611 
901	 0.750924129077341 
902	 0.750281598714047 
903	 0.749696417425054 
904	 0.748869464678168 
905	 0.748423921186018 
906	 0.74922797653984 
907	 0.749831720845277 
908	 0.750861331532798 
909	 0.75164992999795 
910	 0.750817461180024 
911	 0.751351717097518 
912	 0.7517181760874 
913	 0.751421259943443 
914	 0.751350261466839 
915	 0.750624508774373 
916	 0.749808002401887 
917	 0.749068332754509 
918	 0.747972726465019 
919	 0.747022548176679 
920	 0.74593777831636 
921	 0.744653694713121 
922	 0.74354926346738 
923	 0.743473005658862 
924	 0.74381631466226 
925	 0.74416445136597 
926	 0.744856528977044 
927	 0.745851997320327 
928	 0.747551018598994 
929	 0.750162219458608 
930	 0.753319644057637 
931	 0.757067191915093 
932	 0.760439746629933 
933	 0.762577631201898 
934	 0.763799096543627 
935	 0.764152772899846 
936	 0.763298628058028 
937	 0.760952915450205 
938	 0.757095851405481 
939	 0.754396914852561 
940	 0.751807047132575 
941	 0.748718643135008 
942	 0.746975094540375 
943	 0.747078644498048 
944	 0.745749529414275 
945	 0.741866566236206 
946	 0.74100832027989 
947	 0.738240983624715 
948	 0.735471241186932 
949	 0.733972446839881 
950	 0.730017060327673 
951	 0.727083279216519 
952	 0.725459574643654 
953	 0.724083845813259 
954	 0.721056148587795 
955	 0.716453063208717 
956	 0.713124649897396 
957	 0.71194156428677 
958	 0.708865400551889 
959	 0.705567632313841 
960	 0.702803406545482 
961	 0.700646620437543 
962	 0.69830366638335 
963	 0.697084818157115 
964	 0.694404151242981 
965	 0.690281377670933 
966	 0.689921926567287 
967	 0.688157052094006 
968	 0.685441039471349 
969	 0.683439781789855 
970	 0.683508691049511 
971	 0.681414465546369 
972	 0.680412286892111 
973	 0.681682856041346 
974	 0.681502005787303 
975	 0.68159195037492 
976	 0.681092713022848 
977	 0.679954567656698 
978	 0.679622251582535 
979	 0.680799472918832 
980	 0.679848972251879 
981	 0.67703766432571 
982	 0.676990570337123 
983	 0.677744056648992 
984	 0.677188625612083 
985	 0.675563970706702 
986	 0.675183868813105 
987	 0.676418686562567 
988	 0.677278174591205 
989	 0.677262063153995 
990	 0.677300088086395 
991	 0.677951416489301 
992	 0.676705156688214 
993	 0.675525614021215 
994	 0.677769657742472 
995	 0.678432076488641 
996	 0.678286482111074 
997	 0.678515324891197 
998	 0.679633250566555 
999	 0.679046919531849 
1000	 0.680215486892056 
1001	 0.682693692100227 
1002	 0.683341071398268 
1003	 0.68400014946694 
1004	 0.684651711043143 
1005	 0.6853078525979 
1006	 0.686060404636764 
1007	 0.686763871470069 
1008	 0.687457282246798 
1009	 0.688169749426329 
1010	 0.688860365334334 
1011	 0.689491276226707 
1012	 0.690408533800714 
1013	 0.691319330263467 
1014	 0.692129699301863 
1015	 0.692928435826749 
1016	 0.693679137808588 
1017	 0.69433780693061 
1018	 0.695114788895604 
1019	 0.696128494413342 
1020	 0.696935362737812 
1021	 0.697616012781884 
1022	 0.698393572537579 
1023	 0.699174287950332 
1024	 0.699933666680851 
1025	 0.700731545641756 
1026	 0.701534578866126 
1027	 0.702286822663477 
1028	 0.702830471421758 
1029	 0.703309006878687 
1030	 0.703901276453588 
1031	 0.704518406255406 
1032	 0.705255846585378 
1033	 0.706022285816233 
1034	 0.706999600278406 
1035	 0.707697427996256 
1036	 0.708270205612214 
1037	 0.708913951116365 
1038	 0.709489182387445 
1039	 0.710092330800676 
1040	 0.710679338406479 
1041	 0.711097724628805 
1042	 0.711680172378106 
1043	 0.712150971431172 
1044	 0.712553464970143 
1045	 0.713100796893061 
1046	 0.713394185466259 
1047	 0.713685181827755 
1048	 0.714089436440351 
1049	 0.714484586058281 
1050	 0.714856022956891 
1051	 0.715258807331716 
1052	 0.715553147612407 
1053	 0.715859260558662 
1054	 0.716161624433442 
1055	 0.716380417310628 
1056	 0.716668356687214 
1057	 0.716910901591684 
1058	 0.717129967043116 
1059	 0.71756806079897 
1060	 0.717918389042828 
1061	 0.717992173515319 
1062	 0.718095231398812 
1063	 0.718048461525091 
1064	 0.717929754748589 
1065	 0.718020845578313 
1066	 0.718328693976678 
1067	 0.718545468947438 
1068	 0.718742141781258 
1069	 0.71894170798988 
1070	 0.718958946186434 
1071	 0.718978550618938 
1072	 0.718860493244457 
1073	 0.71877976782643 
1074	 0.71873707217215 
1075	 0.718574220161557 
1076	 0.718537725416395 
1077	 0.718548215819955 
1078	 0.718509922331639 
1079	 0.718329246618674 
1080	 0.718109110438494 
1081	 0.717996825703181 
1082	 0.717868068766162 
1083	 0.717721472564845 
1084	 0.717719153614556 
1085	 0.717769172720127 
1086	 0.717728016554344 
1087	 0.717549011635074 
1088	 0.717420363373361 
1089	 0.71731958741196 
1090	 0.717029598689395 
1091	 0.716827778806081 
1092	 0.716794912877661 
1093	 0.716736589133989 
1094	 0.716782702339416 
1095	 0.717071751432376 
1096	 0.717242775312933 
1097	 0.717341379726921 
1098	 0.717516591404147 
1099	 0.71777318148451 
1100	 0.717893462740207 
1101	 0.717938675399608 
1102	 0.718043019373931 
1103	 0.718301065939148 
1104	 0.718599571649556 
1105	 0.719036308128476 
1106	 0.719745005954057 
1107	 0.720393437853593 
1108	 0.721043263209151 
1109	 0.721886936592355 
1110	 0.722835399639171 
1111	 0.724039378518962 
1112	 0.725569878721486 
1113	 0.727180854609954 
1114	 0.729235270805941 
1115	 0.73128593922094 
1116	 0.733449043337659 
1117	 0.735803055852725 
1118	 0.738487332876741 
1119	 0.741021435720481 
1120	 0.743164033914213 
1121	 0.744794514411512 
1122	 0.745709220402178 
1123	 0.745790186544073 
1124	 0.745694954412914 
1125	 0.745377352990498 
1126	 0.743912004532133 
1127	 0.741972275425523 
1128	 0.738926750077136 
1129	 0.734609137772353 
1130	 0.730448595763431 
1131	 0.725842464831549 
1132	 0.721336493996208 
1133	 0.716796226437188 
1134	 0.712156802474333 
1135	 0.707600734406462 
1136	 0.702979904340275 
1137	 0.698656652865537 
1138	 0.694708695644031 
1139	 0.690805424870566 
1140	 0.686893699160731 
1141	 0.683037490052974 
1142	 0.679166429042925 
1143	 0.675436558969579 
1144	 0.672025906477536 
1145	 0.668099916212527 
1146	 0.664121170591475 
1147	 0.659956009571497 
1148	 0.655568931530138 
1149	 0.651197567396184 
1150	 0.647056354310544 
1151	 0.642792725322223 
1152	 0.638539108851213 
1153	 0.634379364184412 
1154	 0.63046510831519 
1155	 0.626805025205916 
1156	 0.623511266437456 
1157	 0.620510821621878 
1158	 0.617723469272338 
1159	 0.6151282645119 
1160	 0.612805352436036 
1161	 0.610651665407831 
1162	 0.608732947165036 
1163	 0.606974995240751 
1164	 0.605442322315072 
1165	 0.604075516627959 
1166	 0.60279985282798 
1167	 0.601618255658252 
1168	 0.600618235133431 
1169	 0.599707700994342 
1170	 0.598961931009905 
1171	 0.598344990629714 
1172	 0.597835263481565 
1173	 0.597249988878862 
1174	 0.596641015644817 
1175	 0.596052800635079 
1176	 0.595456993469302 
1177	 0.595005367948336 
1178	 0.594659825150607 
1179	 0.59430423290963 
1180	 0.594087197203764 
1181	 0.593764680164973 
1182	 0.59344037330806 
1183	 0.593029177161077 
1184	 0.592536975648198 
1185	 0.592073955574706 
1186	 0.591546526162278 
1187	 0.59106945057003 
1188	 0.590660053342838 
1189	 0.590176568572221 
1190	 0.589717550502653 
1191	 0.589285813356284 
1192	 0.58887777930772 
1193	 0.588507338706396 
1194	 0.58817471365154 
1195	 0.587836484655455 
1196	 0.587660799366852 
1197	 0.587567430096884 
1198	 0.587522157724667 
1199	 0.587651559472775 
1200	 0.587657677217592 
1201	 0.587591826279918 
1202	 0.587656738024645 
1203	 0.587772822693393 
1204	 0.587886276093193 
1205	 0.588101378896597 
1206	 0.588261686663085 
1207	 0.588360342487284 
1208	 0.588495493235868 
1209	 0.588730036696534 
1210	 0.588828613307263 
1211	 0.588870495421621 
1212	 0.588883913847612 
1213	 0.58896200535821 
1214	 0.588985350117971 
1215	 0.589119919260475 
1216	 0.589348385163573 
1217	 0.589572013824594 
1218	 0.58986486595197 
1219	 0.590056057578971 
1220	 0.590235273689206 
1221	 0.590410092961619 
1222	 0.590490870905922 
1223	 0.590640356503168 
1224	 0.590809414287926 
1225	 0.591044901460728 
1226	 0.591383264960225 
1227	 0.591619811268745 
1228	 0.59186329294148 
1229	 0.592090822067027 
1230	 0.592252095023395 
1231	 0.592392833625953 
1232	 0.592554499099489 
1233	 0.592719744880537 
1234	 0.59296188859772 
1235	 0.593209989687539 
1236	 0.593493798237984 
1237	 0.593882238349938 
1238	 0.594211926984244 
1239	 0.594512469404284 
1240	 0.59483324194003 
1241	 0.595170922878704 
1242	 0.595510358757324 
1243	 0.595876049093116 
1244	 0.596199493461565 
1245	 0.596502278784442 
1246	 0.596811527001719 
1247	 0.597125681486552 
1248	 0.59738814340481 
1249	 0.597626002407533 
1250	 0.59786532621308 
1251	 0.598068437524077 
1252	 0.598238239313427 
1253	 0.598452116226888 
1254	 0.598737890093274 
1255	 0.598907104600681 
1256	 0.599025030399427 
1257	 0.599154947237423 
1258	 0.599227267562959 
1259	 0.599321460871516 
1260	 0.599447845358823 
1261	 0.599529135536097 
1262	 0.59950694423209 
1263	 0.599620949879708 
1264	 0.599860045600287 
1265	 0.599968781932084 
1266	 0.600110484416798 
1267	 0.600189338387452 
1268	 0.600134429445414 
1269	 0.600094525734259 
1270	 0.600080200911323 
1271	 0.600018833657391 
1272	 0.599911938431051 
1273	 0.599773383534935 
1274	 0.599599586862621 
1275	 0.599408025584158 
1276	 0.59916482397324 
1277	 0.598839722807353 
1278	 0.598583073235112 
1279	 0.598373823246988 
1280	 0.598032790458114 
1281	 0.59768314372248 
1282	 0.597252667498674 
1283	 0.596680523123555 
1284	 0.596149490012745 
1285	 0.595550886682302 
1286	 0.595059211289019 
1287	 0.594674642695285 
1288	 0.594151132135605 
1289	 0.593664499953368 
1290	 0.593087242020008 
1291	 0.592295546290563 
1292	 0.591609141263598 
1293	 0.591010015647122 
1294	 0.590314795244968 
1295	 0.589622301341402 
1296	 0.588863289533162 
1297	 0.588002358790189 
1298	 0.586999634445064 
1299	 0.586074947551145 
1300	 0.585110708904606 
1301	 0.584135512765236 
1302	 0.583221214773217 
1303	 0.582137516948053 
1304	 0.580921211053749 
1305	 0.579735899659185 
1306	 0.578490268785996 
1307	 0.577204662558228 
1308	 0.575929710338807 
1309	 0.574568203111074 
1310	 0.573136319481905 
1311	 0.571615630189656 
1312	 0.570018317213385 
1313	 0.568370916381866 
1314	 0.566616157433943 
1315	 0.564850264651766 
1316	 0.563056144840019 
1317	 0.561228752815815 
1318	 0.559281971082526 
1319	 0.557416657171103 
1320	 0.555567251299802 
1321	 0.55369865888671 
1322	 0.551849957071885 
1323	 0.549984089940249 
1324	 0.548224072307206 
1325	 0.546473748048324 
1326	 0.544713192756404 
1327	 0.543043665341823 
1328	 0.541261092528571 
1329	 0.539450232163903 
1330	 0.537471783022721 
1331	 0.535461945249939 
1332	 0.533300112545048 
1333	 0.530862363579363 
1334	 0.528603648263132 
1335	 0.526229436667252 
1336	 0.524111317662956 
1337	 0.521902761253576 
1338	 0.520175645151415 
1339	 0.518726008581356 
1340	 0.517496044090773 
1341	 0.516542910260483 
1342	 0.515923760934523 
1343	 0.515629238857901 
1344	 0.515670176834929 
1345	 0.516490265428305 
1346	 0.517822958584848 
1347	 0.519440344747157 
1348	 0.521268945283498 
1349	 0.523554614797578 
1350	 0.526470902233876 
1351	 0.530156732360488 
1352	 0.535759827634851 
1353	 0.541425867999682 
1354	 0.547379945068884 
1355	 0.555897444786267 
1356	 0.563179743063128 
1357	 0.575370054925815 
1358	 0.587237713731866 
1359	 0.60821457221472 
1360	 0.624548229299929 
1361	 0.654421029237468 
1362	 0.679623897442251 
1363	 0.707068666850592 
1364	 0.689194967391482 
1365	 0.680648910941978 
1366	 0.65219860471343 
1367	 0.63911313932688 
1368	 0.641676382099131 
1369	 0.632084144140289 
1370	 0.618120686906371 
1371	 0.61215137787285 
1372	 0.60500731666417 
1373	 0.599880598597105 
1374	 0.599103010862377 
1375	 0.600175105580009 
1376	 0.591927743214191 
1377	 0.580668814611779 
1378	 0.574128670658911 
1379	 0.568619904536128 
1380	 0.554658751527452 
1381	 0.541103913791923 
1382	 0.523397995441048 
1383	 0.495008732539009 
1384	 0.479641726714181 
1385	 0.472830175716352 
1386	 0.461171504499566 
1387	 0.454294650332677 
1388	 0.442457558300117 
1389	 0.429185021807529 
1390	 0.415724751322213 
1391	 0.398667691539555 
1392	 0.387620728721992 
1393	 0.380247751375495 
1394	 0.368736185126171 
1395	 0.358763805389116 
1396	 0.34736056102047 
1397	 0.330476293320833 
1398	 0.318811945827409 
1399	 0.309650131453561 
1400	 0.300801747087132 
1401	 0.294782028586486 
1402	 0.287287430835853 
1403	 0.280703016107974 
1404	 0.272869099229731 
1405	 0.264347174683746 
1406	 0.256390392074243 
1407	 0.249365151843437 
1408	 0.243118743074803 
1409	 0.237410067040918 
1410	 0.231918755528123 
1411	 0.22675617906467 
1412	 0.221715790194356 
1413	 0.217123120909221 
1414	 0.212918319220328 
1415	 0.209241537170519 
1416	 0.205919731687795 
1417	 0.202579513484766 
1418	 0.199451587947462 
1419	 0.19652518922413 
1420	 0.193433258494885 
1421	 0.191014189720596 
1422	 0.18920295258682 
1423	 0.187047471260329 
1424	 0.184662832345107 
1425	 0.182832128381477 
1426	 0.180993963345278 
1427	 0.179404659463903 
1428	 0.178210300633576 
1429	 0.176907822482768 
1430	 0.175368446876994 
1431	 0.174168586555396 
1432	 0.173112370204982 
1433	 0.172216668482094 
1434	 0.171551685766141 
1435	 0.17088534975815 
1436	 0.170408851166337 
1437	 0.169796440193317 
1438	 0.169225905921447 
1439	 0.168560688581665 
1440	 0.167803690398034 
1441	 0.167079193479941 
1442	 0.166355565990362 
1443	 0.165668181155747 
1444	 0.164751174163003 
1445	 0.163886177284131 
1446	 0.163310246170412 
1447	 0.162613894344129 
1448	 0.162039832724904 
1449	 0.161695382854017 
1450	 0.161180667962173 
1451	 0.160586863736871 
1452	 0.160049026803074 
1453	 0.159416298909197 
1454	 0.159156040380491 
1455	 0.158992572976891 
1456	 0.158872881636244 
1457	 0.158995528000405 
1458	 0.158999691972199 
1459	 0.158787765195111 
1460	 0.158968492866971 
1461	 0.159361777900724 
1462	 0.159801821638842 
1463	 0.160509081391686 
1464	 0.161225239195393 
1465	 0.162024353267086 
1466	 0.162895709104242 
1467	 0.163883566935779 
1468	 0.164916833765382 
1469	 0.166004298584439 
1470	 0.167055164367573 
1471	 0.168205532963907 
1472	 0.169146828536535 
1473	 0.169695963447989 
1474	 0.170595154545465 
1475	 0.171549488066845 
1476	 0.172455630969509 
1477	 0.173635771416222 
1478	 0.174545230846844 
1479	 0.175069742556774 
1480	 0.175871222750677 
1481	 0.176667722938038 
1482	 0.177559939261419 
1483	 0.178679003037994 
1484	 0.179679564401536 
1485	 0.180625991050189 
1486	 0.181571371132467 
1487	 0.182429945773796 
1488	 0.18334217667698 
1489	 0.184346805497141 
1490	 0.18526647909547 
1491	 0.186185903121382 
1492	 0.187085560212309 
1493	 0.187808144735915 
1494	 0.188636082313727 
1495	 0.189579393504345 
1496	 0.190579263831073 
1497	 0.191639059295962 
1498	 0.192841111940087 
1499	 0.194022947330023 
1500	 0.195235642756596 
1501	 0.196489341524705 
1502	 0.197815826894766 
1503	 0.199133358376625 
1504	 0.200449010220996 
1505	 0.201833301272916 
1506	 0.203252347705911 
1507	 0.204690772782607 
1508	 0.20623348727985 
1509	 0.207610135037645 
1510	 0.208920643198819 
1511	 0.21025691626396 
1512	 0.211513737101165 
1513	 0.2128222053023 
1514	 0.214169264742959 
1515	 0.215548005584004 
1516	 0.216922401668024 
1517	 0.218362504662597 
1518	 0.219947613198767 
1519	 0.221382548433009 
1520	 0.222778138759019 
1521	 0.224178088651001 
1522	 0.225472946273898 
1523	 0.226875289479508 
1524	 0.228409850607239 
1525	 0.229804130754165 
1526	 0.231134102330802 
1527	 0.232518654635569 
1528	 0.233843160382114 
1529	 0.235233750148654 
1530	 0.236752825576377 
1531	 0.238183525555146 
1532	 0.239572547009288 
1533	 0.240968013728146 
1534	 0.242302626142444 
1535	 0.2437170997327 
1536	 0.245191005909035 
1537	 0.246636905904363 
1538	 0.248121585043015 
1539	 0.249591207764729 
1540	 0.251095517440997 
1541	 0.252499763182226 
1542	 0.253810558986394 
1543	 0.255182432128004 
1544	 0.256522712686449 
1545	 0.2578526218987 
1546	 0.259238767045183 
1547	 0.260600573967041 
1548	 0.261935209700865 
1549	 0.263230549501008 
1550	 0.264448872514742 
1551	 0.265782815831467 
1552	 0.267152487459823 
1553	 0.26850748293249 
1554	 0.270020481796759 
1555	 0.271417142615461 
1556	 0.272700401691901 
1557	 0.273987716640463 
1558	 0.275242286381483 
1559	 0.276475815990184 
1560	 0.277696201185672 
1561	 0.278893844643367 
1562	 0.280036219949667 
1563	 0.281210567239551 
1564	 0.282435504319341 
1565	 0.283566769504503 
1566	 0.284781170923363 
1567	 0.286104284587369 
1568	 0.28731689550028 
1569	 0.288539284291307 
1570	 0.289710971969836 
1571	 0.290793057614116 
1572	 0.291975848878749 
1573	 0.293182340245999 
1574	 0.29436813350209 
1575	 0.295579354385303 
1576	 0.29673318130209 
1577	 0.297860750212281 
1578	 0.298893497515178 
1579	 0.299835037956998 
1580	 0.300852845720378 
1581	 0.301811017165033 
1582	 0.302825803549444 
1583	 0.303903887601586 
1584	 0.304974167407723 
1585	 0.306089796248629 
1586	 0.307025521090135 
1587	 0.307897283314271 
1588	 0.308847584035799 
1589	 0.309664319336916 
1590	 0.310647247872034 
1591	 0.31182451374762 
1592	 0.312845799116283 
1593	 0.313864073059084 
1594	 0.314750004818979 
1595	 0.315506365306243 
1596	 0.316437719453091 
1597	 0.317383951822898 
1598	 0.318245017280293 
1599	 0.319190564478522 
1600	 0.320074924689751 
1601	 0.320816748229278 
1602	 0.321614143740831 
1603	 0.322473928628573 
1604	 0.323339201215271 
1605	 0.324142919952626 
1606	 0.324971885719567 
1607	 0.325919371151699 
1608	 0.326695150804759 
1609	 0.327339245700606 
1610	 0.328039175937569 
1611	 0.328659208753398 
1612	 0.329426320427683 
1613	 0.330287938988392 
1614	 0.331031458057692 
1615	 0.331853328224546 
1616	 0.332501429664677 
1617	 0.332949941186857 
1618	 0.333560707305135 
1619	 0.334174792446127 
1620	 0.334809158853039 
1621	 0.335514727357995 
1622	 0.336168900583205 
1623	 0.336772367795275 
1624	 0.337456740198624 
1625	 0.338228527362158 
1626	 0.338847570290224 
1627	 0.339440291964181 
1628	 0.340031902211513 
1629	 0.340512823294377 
1630	 0.341081204382833 
1631	 0.341749417347181 
1632	 0.342294337081337 
1633	 0.342789312296711 
1634	 0.343276964422097 
1635	 0.343683600244938 
1636	 0.344217694602866 
1637	 0.34483384453851 
1638	 0.345343347760951 
1639	 0.345830613174455 
1640	 0.346379565023488 
1641	 0.346901375876688 
1642	 0.347380322475872 
1643	 0.34793116567925 
1644	 0.348442915723846 
1645	 0.348877910122777 
1646	 0.349233155585596 
1647	 0.349536837274833 
1648	 0.349967109159799 
1649	 0.350365085580994 
1650	 0.350720082572707 
1651	 0.351222346383493 
1652	 0.351578767178144 
1653	 0.351749637864681 
1654	 0.35198283630258 
1655	 0.352203889423062 
1656	 0.3525600682284 
1657	 0.352962241930571 
1658	 0.353214970757089 
1659	 0.353600689270809 
1660	 0.353781863822437 
1661	 0.353850462019609 
1662	 0.354011795300109 
1663	 0.35422293426407 
1664	 0.354453994319965 
1665	 0.354610899665676 
1666	 0.354828700647335 
1667	 0.354991071290594 
1668	 0.355112193637266 
1669	 0.355234939948197 
1670	 0.355206661261366 
1671	 0.355198447067173 
1672	 0.355192422247076 
1673	 0.355153101421024 
1674	 0.35533184540747 
1675	 0.355552388697289 
1676	 0.355673844166344 
1677	 0.355719573612306 
1678	 0.355539627112857 
1679	 0.355311950807063 
1680	 0.355188691108803 
1681	 0.355108173803023 
1682	 0.355095353953393 
1683	 0.355107648707273 
1684	 0.355025710511166 
1685	 0.354838874531952 
1686	 0.354609933997011 
1687	 0.354453187527525 
1688	 0.35430948882854 
1689	 0.354085390775315 
1690	 0.353818726732765 
1691	 0.35360535647961 
1692	 0.353381953414385 
1693	 0.35312290525353 
1694	 0.352899279098006 
1695	 0.352674912512599 
1696	 0.352482995504489 
1697	 0.35216035559931 
1698	 0.351708431685646 
1699	 0.351336331690419 
1700	 0.350859724617619 
1701	 0.350493965236638 
1702	 0.350299754620195 
1703	 0.350075703290152 
1704	 0.34991806336824 
1705	 0.349596405128797 
1706	 0.349216889254275 
1707	 0.348787351906981 
1708	 0.348119671588771 
1709	 0.347653719523775 
1710	 0.347357999937292 
1711	 0.346911993791334 
1712	 0.346498147311534 
1713	 0.346010524728258 
1714	 0.345357705186931 
1715	 0.344850106362649 
1716	 0.344415076553414 
1717	 0.343896123237175 
1718	 0.343342846789882 
1719	 0.342807202689439 
1720	 0.342225378011021 
1721	 0.341704891837007 
1722	 0.341371567792625 
1723	 0.340764025328348 
1724	 0.340001479946443 
1725	 0.339266023687386 
1726	 0.338305630081417 
1727	 0.33759650576159 
1728	 0.337024550400623 
1729	 0.336472684958149 
1730	 0.336093901143314 
1731	 0.335218035849109 
1732	 0.334475773322868 
1733	 0.333661816791026 
1734	 0.332868856692888 
1735	 0.33220462558367 
1736	 0.331550802744578 
1737	 0.33076534806484 
1738	 0.329909580443179 
1739	 0.32903666033452 
1740	 0.328145594104094 
1741	 0.327160417314733 
1742	 0.326140740573568 
1743	 0.325274349818525 
1744	 0.324268601007456 
1745	 0.323268764537269 
1746	 0.322469474950181 
1747	 0.321447601558205 
1748	 0.320342946271173 
1749	 0.319310336630683 
1750	 0.31816478557337 
1751	 0.317142693848406 
1752	 0.316372432766965 
1753	 0.315425220752218 
1754	 0.314312357971074 
1755	 0.313315210824025 
1756	 0.312396262099469 
1757	 0.311594528777079 
1758	 0.310676311085998 
1759	 0.309557187540322 
1760	 0.308643337720976 
1761	 0.307873274504445 
1762	 0.307110731058515 
1763	 0.306468845725105 
1764	 0.30587807840628 
1765	 0.305284874317793 
1766	 0.304562247567146 
1767	 0.30392145076239 
1768	 0.303197007258802 
1769	 0.302163648962015 
1770	 0.301588983310276 
1771	 0.301164693704671 
1772	 0.300826191696127 
1773	 0.300820456894745 
1774	 0.300643297023543 
1775	 0.300699559781216 
1776	 0.300540451016001 
1777	 0.300259787120875 
1778	 0.300081048081438 
1779	 0.299826676301233 
1780	 0.299897365182871 
1781	 0.299950730456739 
1782	 0.299562460647301 
1783	 0.29950557858726 
1784	 0.299971344785356 
1785	 0.30018265989415 
1786	 0.300295988995304 
1787	 0.300780949537645 
1788	 0.300895476927564 
1789	 0.30091062590884 
1790	 0.301923103767598 
1791	 0.302800162762505 
1792	 0.303380895341932 
1793	 0.304262449189566 
1794	 0.304668216867922 
1795	 0.305304341712475 
1796	 0.306264895693902 
1797	 0.307176186171917 
1798	 0.308906783946096 
1799	 0.310622737395173 
1800	 0.313067552222765 
1801	 0.317614178175509 
1802	 0.321907690976553 
1803	 0.324120585312221 
1804	 0.325900348242471 
1805	 0.327883384969727 
1806	 0.327953267928233 
1807	 0.329443743704713 
1808	 0.331596326909465 
1809	 0.335422678334065 
1810	 0.338183861903942 
1811	 0.341478613273926 
1812	 0.343710590528919 
1813	 0.34516968224429 
1814	 0.346406653119387 
1815	 0.344498510520435 
1816	 0.346169126782813 
1817	 0.351016567877846 
1818	 0.354159617425975 
1819	 0.3576918103903 
1820	 0.364299820679322 
1821	 0.367973258666606 
1822	 0.367752146288067 
1823	 0.369396358126654 
1824	 0.37053151313752 
1825	 0.373196822265316 
1826	 0.378408408099188 
1827	 0.381312028525114 
1828	 0.383686879523179 
1829	 0.386790166447608 
1830	 0.391119229055604 
1831	 0.384342555235466 
1832	 0.395832846605393 
1833	 0.446510605455173 
1834	 0.479789416829211 
1835	 0.521814809835636 
1836	 0.555085707943024 
1837	 0.511086457317436 
1838	 0.481488121292324 
1839	 0.444604252307106 
1840	 0.392691672274056 
1841	 0.372938881926694 
1842	 0.370064122928374 
1843	 0.365002329025017 
1844	 0.365719066831528 
1845	 0.380822754842826 
1846	 0.420906384907736 
1847	 0.433528980834867 
1848	 0.442149489860697 
1849	 0.462787049271065 
1850	 0.478080293047477 
1851	 0.472281447621575 
1852	 0.469172528697988 
1853	 0.481059914492809 
1854	 0.477008176980661 
1855	 0.453967734209146 
1856	 0.429725975485601 
1857	 0.394537223407161 
1858	 0.394082600991771 
1859	 0.38596309912973 
1860	 0.383930024544051 
1861	 0.357148199210261 
1862	 0.306487762465368 
1863	 0.295901696361299 
1864	 0.283054335885512 
1865	 0.274641565286633 
1866	 0.306127532775629 
1867	 0.331727413088642 
1868	 0.323740487318249 
1869	 0.295300018139785 
1870	 0.293340769597147 
1871	 0.305787886328824 
1872	 0.315960752744897 
1873	 0.364796271615072 
1874	 0.342820198645509 
1875	 0.302824560340503 
1876	 0.263713257991782 
1877	 0.201832195567724 
1878	 0.158460152775765 
1879	 0.159625103908293 
1880	 0.153927910913284 
1881	 0.148555705004528 
1882	 0.15252791452758 
1883	 0.154400238180131 
1884	 0.15068130168372 
1885	 0.147972838262891 
1886	 0.151958659887092 
1887	 0.148781114512667 
1888	 0.136414239636533 
1889	 0.137452856040273 
1890	 0.14038247992871 
1891	 0.153573553114817 
1892	 0.153360414642376 
1893	 0.146879989055727 
1894	 0.147096042810884 
1895	 0.148857182182406 
1896	 0.140113457053698 
1897	 0.121401061319925 
1898	 0.11893666031657 
1899	 0.10811108415474 
1900	 8.95256285093714E-02 
1901	 8.75826117535751E-02 
1902	 0.136684330439065 
1903	 0.146288557556988 
1904	 0.12686891487144 
1905	 0.124751973922358 
1906	 0.131868313104184 
1907	 0.109802368271559 
1908	 9.12832514605676E-02 
1909	 9.64552695676301E-02 
1910	 9.67391904632198E-02 
1911	 9.27058732107158E-02 
1912	 8.94039894596847E-02 
1913	 9.30731562774975E-02 
1914	 8.77782645475884E-02 
1915	 0.07795046287958 
1916	 7.25017583539907E-02 
1917	 6.87970197766816E-02 
1918	 6.24443305655668E-02 
1919	 0.05630054171505 
1920	 5.43624843506121E-02 
1921	 5.48522328542016E-02 
1922	 5.29021029910117E-02 
1923	 5.28585851052006E-02 
1924	 5.66962994390101E-02 
1925	 5.61400852370759E-02 
1926	 5.41085099935988E-02 
1927	 5.34057030125677E-02 
1928	 5.34360039544044E-02 
1929	 4.72377880505155E-02 
1930	 4.87938523632595E-02 
1931	 5.03656368312275E-02 
1932	 0.050686109809997 
1933	 5.32211609262097E-02 
1934	 5.31468174715364E-02 
1935	 5.09443155459757E-02 
1936	 4.96171498716476E-02 
1937	 4.79392746551359E-02 
1938	 4.73300352263706E-02 
1939	 4.70087679657431E-02 
1940	 4.66321040419572E-02 
1941	 4.72219135087501E-02 
1942	 4.77616421442237E-02 
1943	 4.76075954780933E-02 
1944	 4.81402979310399E-02 
1945	 4.80284897776003E-02 
1946	 4.78132113335082E-02 
1947	 0.047875186963374 
1948	 4.75985557806482E-02 
1949	 4.76250078383429E-02 
1950	 4.77451714005137E-02 
1951	 4.85637013219491E-02 
1952	 4.96396819686881E-02 
1953	 5.22671209829431E-02 
1954	 5.27494730403008E-02 
1955	 5.30306294969373E-02 
1956	 5.26749096922979E-02 
1957	 5.02416646535632E-02 
1958	 5.00363999390035E-02 
1959	 5.15025489339212E-02 
1960	 5.16446284652052E-02 
1961	 5.13918658793276E-02 
1962	 5.24108150013044E-02 
1963	 5.28291423015338E-02 
1964	 5.24836821004226E-02 
1965	 5.25721992503428E-02 
1966	 5.27687224178684E-02 
1967	 5.28447117015938E-02 
1968	 5.31769785821806E-02 
1969	 5.37296514181044E-02 
1970	 5.46490031945113E-02 
1971	 5.53085970486988E-02 
1972	 5.60702213086846E-02 
1973	 5.67262827615969E-02 
1974	 5.68931929157034E-02 
1975	 5.74937918810404E-02 
1976	 5.80302827160646E-02 
1977	 5.83061205308857E-02 
1978	 5.88225058333468E-02 
1979	 5.92056886210084E-02 
1980	 5.95441049384532E-02 
1981	 6.02985136625292E-02 
1982	 6.09858933670264E-02 
1983	 6.17800875255443E-02 
1984	 6.26136166563105E-02 
1985	 6.34987432027203E-02 
1986	 6.39366909917497E-02 
1987	 6.45766684131325E-02 
1988	 6.54637301520391E-02 
1989	 6.60498121501751E-02 
1990	 6.64761553158211E-02 
1991	 6.68557380068739E-02 
1992	 6.71031905867792E-02 
1993	 0.067364787892174 
1994	 0.068028156879672 
1995	 6.86268042567799E-02 
1996	 6.93136736166061E-02 
1997	 7.00165650191818E-02 
1998	 7.07217050735142E-02 
1999	 7.14563444223087E-02 
2000	 7.29373781386176E-02 
2001	 7.40734299254553E-02 
2002	 7.54059249221956E-02 
2003	 7.68759762979541E-02 
2004	 7.69442782435794E-02 
2005	 7.69369574408686E-02 
2006	 7.74091367698527E-02 
2007	 7.78111450529302E-02 
2008	 7.84305526606979E-02 
2009	 7.94874603173079E-02 
2010	 7.99059328852987E-02 
2011	 8.03189496840947E-02 
2012	 0.081208470478518 
2013	 0.081919210630037 
2014	 8.28449087114578E-02 
2015	 0.083993231723971 
2016	 0.084856924987009 
2017	 8.59929325538783E-02 
2018	 8.76272159027933E-02 
2019	 8.84651829789866E-02 
2020	 8.91581573133342E-02 
2021	 8.92226934069974E-02 
2022	 8.93508920579488E-02 
2023	 8.93995492794793E-02 
2024	 8.94910699717414E-02 
2025	 9.00718981282607E-02 
2026	 9.09465334516888E-02 
2027	 9.18688526167594E-02 
2028	 0.092959925090367 
2029	 9.39396831286008E-02 
2030	 9.44325727711939E-02 
2031	 9.45903922282764E-02 
2032	 9.49838680663622E-02 
2033	 0.095365510036146 
2034	 9.59961465882938E-02 
2035	 9.67590490589551E-02 
2036	 9.75155566151865E-02 
2037	 9.81866493175762E-02 
2038	 9.90624648362916E-02 
2039	 9.98982408706784E-02 
2040	 0.100544393039352 
2041	 0.101318045880362 
2042	 0.102019346054605 
2043	 0.102662974281526 
2044	 0.103490502792133 
2045	 0.104075423456353 
2046	 0.1046309983601 
2047	 0.104943488379132 
2048	 0.105286357577767 
2049	 0.105726148252363 
2050	 0.106535065670681 
2051	 0.107583774138164 
2052	 0.108698254759355 
2053	 0.109910970744361 
2054	 0.11123338857625 
2055	 0.112134559466185 
2056	 0.112825845741721 
2057	 0.11379022314401 
2058	 0.114411707296208 
2059	 0.115099224129608 
2060	 0.115916666471554 
2061	 0.11692653161643 
2062	 0.117557472075107 
2063	 0.117960189970208 
2064	 0.118309468159335 
2065	 0.118574147591101 
2066	 0.118618077048563 
2067	 0.119266169631749 
2068	 0.12003745011494 
2069	 0.120610696326977 
2070	 0.121869093633877 
2071	 0.122718124590431 
2072	 0.123602830557606 
2073	 0.124544742870808 
2074	 0.125894795450079 
2075	 0.12657559560623 
2076	 0.127417927562579 
2077	 0.128377302735457 
2078	 0.128651225914746 
2079	 0.128817004926716 
2080	 0.129211113143911 
2081	 0.129577587558004 
2082	 0.130382270075565 
2083	 0.13134682677812 
2084	 0.131846761167854 
2085	 0.13231144791298 
2086	 0.132714833417832 
2087	 0.133427762012249 
2088	 0.134264240882101 
2089	 0.135420865192983 
2090	 0.136703728321482 
2091	 0.137984905819402 
2092	 0.138646789276696 
2093	 0.139284981057125 
2094	 0.139749470973308 
2095	 0.1401019014802 
2096	 0.141104762568576 
2097	 0.14228329127338 
2098	 0.143432658942067 
2099	 0.144543890173743 
2100	 0.145489977488401 
2101	 0.145958442862589 
2102	 0.146416605005901 
2103	 0.146672241914008 
2104	 0.14711319505283 
2105	 0.147431219592534 
2106	 0.148315424467607 
2107	 0.149627498772585 
2108	 0.150546314261493 
2109	 0.151300476977055 
2110	 0.151816404120433 
2111	 0.151907998885899 
2112	 0.152255753595617 
2113	 0.153351768755794 
2114	 0.154280723223177 
2115	 0.155102795724859 
2116	 0.156031756094326 
2117	 0.156739001329448 
2118	 0.157046998827342 
2119	 0.15761610603135 
2120	 0.158205814485312 
2121	 0.158816601412076 
2122	 0.159713443284599 
2123	 0.160570792489439 
2124	 0.161473176087532 
2125	 0.162191874003453 
2126	 0.162979200670006 
2127	 0.163859567524296 
2128	 0.164661480737544 
2129	 0.165439297701176 
2130	 0.165721547639481 
2131	 0.165883094398983 
2132	 0.166359224673635 
2133	 0.166865993653405 
2134	 0.167355270102587 
2135	 0.168101024171738 
2136	 0.168531268616013 
2137	 0.168746197617942 
2138	 0.169137854652235 
2139	 0.169744186383581 
2140	 0.170501067517203 
2141	 0.171124964302863 
2142	 0.171877945764493 
2143	 0.172499517863316 
2144	 0.172769103858185 
2145	 0.172968733315427 
2146	 0.173297018426534 
2147	 0.173548756144467 
2148	 0.174013515985649 
2149	 0.17498805927431 
2150	 0.175506909145309 
2151	 0.175877581763163 
2152	 0.176146540025097 
2153	 0.176391539572145 
2154	 0.176196897570478 
2155	 0.176455237115049 
2156	 0.177406872612014 
2157	 0.177975026885675 
2158	 0.178454315853061 
2159	 0.179228055044555 
2160	 0.179384536749098 
2161	 0.17980560022642 
2162	 0.180965314751674 
2163	 0.181711980294154 
2164	 0.181933894259212 
2165	 0.181903855420121 
2166	 0.181546518478928 
2167	 0.18083839541604 
2168	 0.180734495875468 
2169	 0.181345041286748 
2170	 0.181629186791025 
2171	 0.181916615534436 
2172	 0.182329538325103 
2173	 0.182865120741693 
2174	 0.18323324927571 
2175	 0.183777744039963 
2176	 0.184423221173781 
2177	 0.184890911466596 
2178	 0.185029626830751 
2179	 0.184819046768906 
2180	 0.18472447452099 
2181	 0.184411509485416 
2182	 0.184079563336566 
2183	 0.18454145893273 
2184	 0.185105150821687 
2185	 0.185464435033524 
2186	 0.186002502819121 
2187	 0.186461587880542 
2188	 0.186702675915281 
2189	 0.1869034048869 
2190	 0.18722901681665 
2191	 0.187378098368912 
2192	 0.187065218756583 
2193	 0.186629246014806 
2194	 0.186685278470088 
2195	 0.186994075852001 
2196	 0.187557204011875 
2197	 0.188197889519254 
2198	 0.188260370312075 
2199	 0.188014424810134 
2200	 0.187677229506782 
2201	 0.18750770112337 
2202	 0.187594869768613 
2203	 0.1875316740513 
2204	 0.187860720577658 
2205	 0.188112482329 
2206	 0.18802875755374 
2207	 0.188606103050816 
2208	 0.18862808454958 
2209	 0.18782830136892 
2210	 0.18752076480515 
2211	 0.187396033303441 
2212	 0.187001045028027 
2213	 0.186870716223309 
2214	 0.187419517273814 
2215	 0.187923809561564 
2216	 0.188634455911206 
2217	 0.188691032716601 
2218	 0.188693598096347 
2219	 0.189121982969388 
2220	 0.188239181600839 
2221	 0.187506659114876 
2222	 0.187793015567683 
2223	 0.187126377418233 
2224	 0.186682722784491 
2225	 0.187477188129532 
2226	 0.187296293391789 
2227	 0.186986453698517 
2228	 0.187431171423589 
2229	 0.18723810140471 
2230	 0.187251211182087 
2231	 0.187067630280176 
2232	 0.186668426723606 
2233	 0.186337866799691 
2234	 0.186020159303614 
2235	 0.185306389155712 
2236	 0.184869365056492 
2237	 0.184599447024824 
2238	 0.183988576014441 
2239	 0.183898087564461 
2240	 0.183984160877578 
2241	 0.184011987961298 
2242	 0.184234105632468 
2243	 0.183538780914045 
2244	 0.182612221951686 
2245	 0.182552168432037 
2246	 0.182204181909008 
2247	 0.18211116048626 
2248	 0.18206987402669 
2249	 0.18140589906668 
2250	 0.180918628702974 
2251	 0.180299391906368 
2252	 0.180007167710831 
2253	 0.17961267330049 
2254	 0.178683218130149 
2255	 0.178048132199576 
2256	 0.177496699206273 
2257	 0.177000452374742 
2258	 0.176556127412127 
2259	 0.176024046323358 
2260	 0.175440450333932 
2261	 0.174571689098515 
2262	 0.173585909035982 
2263	 0.173605616525802 
2264	 0.17366177739473 
2265	 0.173382123877947 
2266	 0.173183162595074 
2267	 0.172319371407205 
2268	 0.171649161125623 
2269	 0.171575309429134 
2270	 0.171298462645594 
2271	 0.170710619606887 
2272	 0.169838672386167 
2273	 0.168285781949583 
2274	 0.166625770592786 
2275	 0.166287997253587 
2276	 0.166291226155622 
2277	 0.166807051155074 
2278	 0.167750432738255 
2279	 0.167631455998784 
2280	 0.166618859261241 
2281	 0.165423891104264 
2282	 0.16523935222014 
2283	 0.165084533591343 
2284	 0.164998758837857 
2285	 0.165217333632857 
2286	 0.165017187805708 
2287	 0.164145809184507 
2288	 0.163652251322355 
2289	 0.163369252895534 
2290	 0.162924886320559 
2291	 0.162877394034411 
2292	 0.16292699193732 
2293	 0.162388788972819 
2294	 0.161799669374284 
2295	 0.160378177265751 
2296	 0.158167428776758 
2297	 0.156977124534542 
2298	 0.156383248792216 
2299	 0.157025391519595 
2300	 0.158114181990405 
2301	 0.158458338388951 
2302	 0.158516365673157 
2303	 0.157667739816887 
2304	 0.15592153760009 
2305	 0.153725898195626 
2306	 0.151496191020071 
2307	 0.149965600394691 
2308	 0.149985111764952 
2309	 0.150878079628645 
2310	 0.151443806621142 
2311	 0.151449016593518 
2312	 0.150610855878489 
2313	 0.149437046881742 
2314	 0.148392006507481 
2315	 0.147727443259074 
2316	 0.147397273069063 
2317	 0.146936548105455 
2318	 0.146372700327859 
2319	 0.146356073163112 
2320	 0.146539681460841 
2321	 0.14582613695206 
2322	 0.144789821901164 
2323	 0.143637331053403 
2324	 0.141689866980725 
2325	 0.139932916190325 
2326	 0.139559562164419 
2327	 0.140055512531647 
2328	 0.141092588112404 
2329	 0.140840660282325 
2330	 0.139355593621403 
2331	 0.138010296453903 
2332	 0.136750677905168 
2333	 0.135058706682284 
2334	 0.133954259861286 
2335	 0.133461728807787 
2336	 0.132217047796939 
2337	 0.131636116185101 
2338	 0.131729786609699 
2339	 0.131037616691589 
2340	 0.130888770359853 
2341	 0.131406362599538 
2342	 0.131357686664514 
2343	 0.131123206482718 
2344	 0.130780590726227 
2345	 0.130926682866878 
2346	 0.130166774245736 
2347	 0.128283471429594 
2348	 0.127513960927618 
2349	 0.124841252212951 
2350	 0.123963084151979 
2351	 0.127218567579202 
2352	 0.128556130536214 
2353	 0.129850518666553 
2354	 0.129041997755296 
2355	 0.124879527440142 
2356	 0.122326880555826 
2357	 0.120003145688951 
2358	 0.118780545826484 
2359	 0.119675451860252 
2360	 0.118480743119788 
2361	 0.116366917256691 
2362	 0.116557877698696 
2363	 0.116250809016058 
2364	 0.116405916923413 
2365	 0.118494832310739 
2366	 0.118838861432542 
2367	 0.118457949378406 
2368	 0.118856007564483 
2369	 0.118856969227293 
2370	 0.117500223911496 
2371	 0.115078474948561 
2372	 0.11309237416445 
2373	 0.109133800186389 
2374	 0.107839705709218 
2375	 0.109434547675117 
2376	 0.109941181828178 
2377	 0.11166080458885 
2378	 0.111479744637008 
2379	 0.108281634569732 
2380	 0.107241673647044 
2381	 0.107533202666792 
2382	 0.107327725683692 
2383	 0.108532240434246 
2384	 0.108639174829959 
2385	 0.107389077591231 
2386	 0.105712599821795 
2387	 0.103080854583282 
2388	 0.102114928254053 
2389	 0.101493073178637 
2390	 0.100864573861956 
2391	 0.100689092390205 
2392	 0.101177486014241 
2393	 0.103034781762906 
2394	 0.102560916109006 
2395	 0.102092457194468 
2396	 0.10125024673797 
2397	 9.71345802201981E-02 
2398	 9.54787315967328E-02 
2399	 9.62819835846627E-02 
2400	 9.47607781486532E-02 
2401	 9.22867868515734E-02 
2402	 9.07988561080499E-02 
2403	 8.98100071829658E-02 
2404	 8.99943086011525E-02 
2405	 9.30311196184657E-02 
2406	 9.46757831455344E-02 
2407	 9.24022978272138E-02 
2408	 9.31609028116655E-02 
2409	 9.52733518997685E-02 
2410	 9.38419548528395E-02 
2411	 9.52742299596152E-02 
2412	 9.43830776928454E-02 
2413	 9.20414370572183E-02 
2414	 9.34249237235396E-02 
2415	 9.04093528646209E-02 
2416	 0.086231631285868 
2417	 8.26745452957087E-02 
2418	 8.02208395117516E-02 
2419	 8.53091931456523E-02 
2420	 8.84109992424938E-02 
2421	 8.49314498358274E-02 
2422	 8.21831950434205E-02 
2423	 7.69843055795055E-02 
2424	 7.31837713549987E-02 
2425	 7.84434874634704E-02 
2426	 8.34790096116561E-02 
2427	 8.23807082196168E-02 
2428	 0.085161047288631 
2429	 8.45918199545607E-02 
2430	 7.94965967197026E-02 
2431	 8.00322045844795E-02 
2432	 7.83883758359839E-02 
2433	 8.53587654054943E-02 
2434	 8.38043640125308E-02 
2435	 7.44957017892511E-02 
2436	 7.29186165447755E-02 
2437	 6.98248143502146E-02 
2438	 6.76343852921173E-02 
2439	 7.55332656238372E-02 
2440	 7.64715692963205E-02 
2441	 6.47077760284437E-02 
2442	 6.39401823614825E-02 
2443	 7.10998386457916E-02 
2444	 7.44648381158644E-02 
2445	 0.087685792193816 
2446	 9.09371352072914E-02 
2447	 0.082127972666823 
2448	 7.64723497511384E-02 
2449	 6.18080313350219E-02 
2450	 5.82116068861427E-02 
2451	 6.43078870883642E-02 
2452	 6.53555137590126E-02 
2453	 7.33259643761749E-02 
2454	 7.61436354496478E-02 
2455	 6.91479580211965E-02 
2456	 7.07816600104636E-02 
2457	 8.04044433691512E-02 
2458	 8.12316906315961E-02 
2459	 7.68258780561091E-02 
2460	 7.68358537537835E-02 
2461	 7.57572049654881E-02 
2462	 0.07176878484091 
2463	 7.24974800857352E-02 
2464	 7.29014449063589E-02 
2465	 6.74162030698916E-02 
2466	 0.063223196953771 
2467	 6.12358286470188E-02 
2468	 5.48749802470472E-02 
2469	 4.25113371667143E-02 
2470	 3.70812715502574E-02 
2471	 3.29817547371061E-02 
2472	 0.032341241933466 
2473	 3.98239775259788E-02 
2474	 0.041625967486396 
2475	 4.56478520925999E-02 
2476	 4.84539618515063E-02 
2477	 4.21042355763533E-02 
2478	 4.76181122416837E-02 
2479	 6.83989609082243E-02 
2480	 6.79481638932198E-02 
2481	 0.061189987089909 
2482	 5.86370098141076E-02 
2483	 2.60644233728993E-02 
2484	 0.028408389580914 
2485	 7.36398739994474E-02 
2486	 8.73381111330029E-02 
2487	 0.132382632902379 
2488	 0.140153647821322 
2489	 0.12914672946354 
2490	 0.146109314575376 
2491	 0.117916209275287 
2492	 9.09308451193677E-02 
2493	 0.103814613794481 
2494	 0.144751948598498 
2495	 0.147187137138148 
2496	 0.124952396940174 
2497	 0.101411397680019 
2498	 3.36308960555368E-02 
2499	 5.08657298732707E-03 
2500	 3.68318693164273E-03 
