Wavelength	ref00059.asd
350	 6.21940449881217E-02 
351	 6.29678221919836E-02 
352	 6.32499632729784E-02 
353	 6.33908577826911E-02 
354	 6.40485406347067E-02 
355	 6.43659027420245E-02 
356	 6.40194638847532E-02 
357	 6.43001667609675E-02 
358	 0.064882429960059 
359	 6.56208715492446E-02 
360	 6.63556777197362E-02 
361	 6.68070266099399E-02 
362	 6.68963682128322E-02 
363	 6.68854352130703E-02 
364	 6.72020358514306E-02 
365	 6.77812573295736E-02 
366	 6.81567765142435E-02 
367	 6.83080082796666E-02 
368	 6.88859168652678E-02 
369	 6.93991687606412E-02 
370	 6.96459185334972E-02 
371	 6.97163277756568E-02 
372	 7.03740865345775E-02 
373	 7.07752914893217E-02 
374	 7.08449265489979E-02 
375	 7.09486739676767E-02 
376	 7.14107366430186E-02 
377	 7.18270416401345E-02 
378	 7.22389417695039E-02 
379	 7.32624480307654E-02 
380	 7.31102023569161E-02 
381	 7.33690891979053E-02 
382	 7.49889250732997E-02 
383	 7.52425326095353E-02 
384	 7.54029629338414E-02 
385	 7.57965150899818E-02 
386	 7.62989472449346E-02 
387	 7.65537393987475E-02 
388	 7.72987393173202E-02 
389	 7.82999436163163E-02 
390	 7.83500993049956E-02 
391	 7.91203596535981E-02 
392	 7.98664761156677E-02 
393	 8.00865820746273E-02 
394	 8.08391201249183E-02 
395	 0.081420535698915 
396	 0.081921951372566 
397	 8.25718877800997E-02 
398	 8.28717548614889E-02 
399	 0.082845643496583 
400	 8.29012300160827E-02 
401	 8.36168603053312E-02 
402	 8.38315151296148E-02 
403	 8.39423158820636E-02 
404	 8.43860524393712E-02 
405	 8.52542053806415E-02 
406	 8.58917413959285E-02 
407	 8.62843145369793E-02 
408	 8.66534802160089E-02 
409	 0.087090857354926 
410	 8.75563882644365E-02 
411	 8.79924711706857E-02 
412	 8.83468542127799E-02 
413	 8.87245930182519E-02 
414	 8.91744939162319E-02 
415	 8.96944997531557E-02 
416	 0.090208166322485 
417	 9.07278244267611E-02 
418	 9.11793236180563E-02 
419	 9.15189797917609E-02 
420	 9.19684823293114E-02 
421	 9.23987043568842E-02 
422	 9.27537604835507E-02 
423	 9.30777723110073E-02 
424	 9.37070680066985E-02 
425	 0.094291840335748 
426	 9.46154588537077E-02 
427	 9.49785180553602E-02 
428	 9.55250960453214E-02 
429	 9.60968967477556E-02 
430	 9.64953481493508E-02 
431	 9.70016354805651E-02 
432	 9.73420328867428E-02 
433	 9.75695750943897E-02 
434	 9.80067021901939E-02 
435	 9.82494256847868E-02 
436	 9.85384514689536E-02 
437	 9.90415216074151E-02 
438	 9.96006079727226E-02 
439	 0.100003296841483 
440	 0.1002605747647 
441	 0.100505653578094 
442	 0.10098776157668 
443	 0.101388689441743 
444	 0.101708289019931 
445	 0.102253258660056 
446	 0.10250397381891 
447	 0.102805628313877 
448	 0.103388611404611 
449	 0.103835918533053 
450	 0.104200775097711 
451	 0.10452973113145 
452	 0.104879603701916 
453	 0.105330023255708 
454	 0.105696249711011 
455	 0.105933334704662 
456	 0.106181998754123 
457	 0.106391947430075 
458	 0.106541200926216 
459	 0.106660312095595 
460	 0.106929086470512 
461	 0.107140751597261 
462	 0.107199948739491 
463	 0.107124953003928 
464	 0.107277968076826 
465	 0.107510395603804 
466	 0.107692773918486 
467	 0.107812195286492 
468	 0.107968760495546 
469	 0.108100432640107 
470	 0.108153963348878 
471	 0.108280524927856 
472	 0.108489848680089 
473	 0.108744131813229 
474	 0.108979120098687 
475	 0.109247822943909 
476	 0.109471269855887 
477	 0.109664395951874 
478	 0.110055841702783 
479	 0.11039005969442 
480	 0.110737012160962 
481	 0.111206603029824 
482	 0.111509459808949 
483	 0.111879332153376 
484	 0.112424560833143 
485	 0.113089191256824 
486	 0.113627819435921 
487	 0.114057024839559 
488	 0.114479345142018 
489	 0.115063295091953 
490	 0.115589216667461 
491	 0.11614651212406 
492	 0.116909727997503 
493	 0.117636434725697 
494	 0.118408330781072 
495	 0.119287578019607 
496	 0.120279397798227 
497	 0.121138115603559 
498	 0.122091461321484 
499	 0.123314044732621 
500	 0.124395885565903 
501	 0.125606106357067 
502	 0.12691400844557 
503	 0.128115648468602 
504	 0.129255372686159 
505	 0.130485210639745 
506	 0.131866794969029 
507	 0.133290103881171 
508	 0.134900061117076 
509	 0.136558224978454 
510	 0.138100904735865 
511	 0.139669415294418 
512	 0.14127071721079 
513	 0.142942716021521 
514	 0.144747312833308 
515	 0.146612984446214 
516	 0.148533042416385 
517	 0.150462659808604 
518	 0.152261141198521 
519	 0.154072869584606 
520	 0.155845454047505 
521	 0.15749938537022 
522	 0.159252884518051 
523	 0.160943443304925 
524	 0.162531248354061 
525	 0.164123067866178 
526	 0.165898407425403 
527	 0.167589275597828 
528	 0.168970247859379 
529	 0.170249979113144 
530	 0.171502844604264 
531	 0.172726118591222 
532	 0.17388965373274 
533	 0.175167439322006 
534	 0.176240190806633 
535	 0.177037471731595 
536	 0.177987961979247 
537	 0.178926085901965 
538	 0.179824494160801 
539	 0.180696265841929 
540	 0.181596274043955 
541	 0.182397834880456 
542	 0.183120544196228 
543	 0.183905453206543 
544	 0.184705493349041 
545	 0.185445670642833 
546	 0.186133930384207 
547	 0.186981410030629 
548	 0.187797903700279 
549	 0.188591747429397 
550	 0.189410412001293 
551	 0.190019115908794 
552	 0.190507202675481 
553	 0.190922945526199 
554	 0.191232266699076 
555	 0.191440742796208 
556	 0.191594007821678 
557	 0.191724055749868 
558	 0.191783547509647 
559	 0.191828658276411 
560	 0.191740925028465 
561	 0.191354193761636 
562	 0.191188301628862 
563	 0.191050126439768 
564	 0.19080691774335 
565	 0.190609129557355 
566	 0.19032003917651 
567	 0.190004017881875 
568	 0.1897451741576 
569	 0.1893940865374 
570	 0.188971653670583 
571	 0.188463593301126 
572	 0.187827050068806 
573	 0.187237359395022 
574	 0.186656457619046 
575	 0.186069733621144 
576	 0.185666325080468 
577	 0.185176910022382 
578	 0.184710983505969 
579	 0.184504814341152 
580	 0.184289972624112 
581	 0.184120782877648 
582	 0.184041981581997 
583	 0.18404803680359 
584	 0.18410068077326 
585	 0.184210964740917 
586	 0.184355782840234 
587	 0.184317082448112 
588	 0.184430597043403 
589	 0.184611978841898 
590	 0.18450736482088 
591	 0.184624410499833 
592	 0.184736413957699 
593	 0.184767855826287 
594	 0.185106654177984 
595	 0.185504405406911 
596	 0.185836073071253 
597	 0.186065736921946 
598	 0.186383418340591 
599	 0.186706882762582 
600	 0.187008386994692 
601	 0.187325880967718 
602	 0.187644192631114 
603	 0.188000601955771 
604	 0.188394180642392 
605	 0.188702586635474 
606	 0.189010631111093 
607	 0.18932736180993 
608	 0.18962946498613 
609	 0.189950999040212 
610	 0.190284977925047 
611	 0.190599897202129 
612	 0.1908414689838 
613	 0.190967731713955 
614	 0.191064917951298 
615	 0.191208559888349 
616	 0.191305210787407 
617	 0.191274196352957 
618	 0.191209190142256 
619	 0.191304068805035 
620	 0.191419588785973 
621	 0.191541620449801 
622	 0.191679036091012 
623	 0.191849958827115 
624	 0.192077632056067 
625	 0.192329930221945 
626	 0.19257251923594 
627	 0.192878486161872 
628	 0.193246428659706 
629	 0.19362266158249 
630	 0.193910234623562 
631	 0.194213403037543 
632	 0.194448326793965 
633	 0.194564020279712 
634	 0.194683666990658 
635	 0.194757936749392 
636	 0.194733686795944 
637	 0.19457394519824 
638	 0.194369871927323 
639	 0.194150419412482 
640	 0.193887410181022 
641	 0.193496956781668 
642	 0.193089766429111 
643	 0.192743935127189 
644	 0.192475409352476 
645	 0.192160782318617 
646	 0.191815991963555 
647	 0.191496833020181 
648	 0.191298767512736 
649	 0.191409388565441 
650	 0.191549151687494 
651	 0.191612587506361 
652	 0.191872474377832 
653	 0.192093184767005 
654	 0.192389574947133 
655	 0.192911520149927 
656	 0.193463898937244 
657	 0.193878796678806 
658	 0.194129438662721 
659	 0.194373083902946 
660	 0.194492757368519 
661	 0.194624286585478 
662	 0.194866800051429 
663	 0.195224393217438 
664	 0.195385667950902 
665	 0.195539052339176 
666	 0.195964421948751 
667	 0.196401771571176 
668	 0.196926470144543 
669	 0.197563152192954 
670	 0.198287289247482 
671	 0.199107199912959 
672	 0.200016354235127 
673	 0.200990070332949 
674	 0.201971688179248 
675	 0.203284007956682 
676	 0.204731654976082 
677	 0.205990809127277 
678	 0.207346840823449 
679	 0.208899030923459 
680	 0.210621808032471 
681	 0.212369985727506 
682	 0.214208993710761 
683	 0.216199709941387 
684	 0.218365635223173 
685	 0.220575975365994 
686	 0.223336175648974 
687	 0.226641939252701 
688	 0.229866677691738 
689	 0.232785903214938 
690	 0.235710514053832 
691	 0.238904376859108 
692	 0.242254939116909 
693	 0.246028528082876 
694	 0.250099428022501 
695	 0.254307269117175 
696	 0.258784230369343 
697	 0.263294952735608 
698	 0.267747121219393 
699	 0.272121096723634 
700	 0.276602330866401 
701	 0.281212883272999 
702	 0.285789193893704 
703	 0.289973390726475 
704	 0.293971330859793 
705	 0.297919097885355 
706	 0.301897140180028 
707	 0.305756994128777 
708	 0.309542784978705 
709	 0.31322038145257 
710	 0.3167211658789 
711	 0.320175374189227 
712	 0.323484713348405 
713	 0.326651788327093 
714	 0.329813782639911 
715	 0.332774145821191 
716	 0.335408687943685 
717	 0.337818504837962 
718	 0.340436632586949 
719	 0.343319885343187 
720	 0.346228277378023 
721	 0.348846984958487 
722	 0.351222802116849 
723	 0.353131388066522 
724	 0.35483526631979 
725	 0.356892518768051 
726	 0.358871522249757 
727	 0.360712017161708 
728	 0.362491774626517 
729	 0.364268899808955 
730	 0.365961541269818 
731	 0.367598889878932 
732	 0.369204399692332 
733	 0.370476295388571 
734	 0.371654883769339 
735	 0.372850349068987 
736	 0.37400048603957 
737	 0.375137198225389 
738	 0.376184115033375 
739	 0.377123955435803 
740	 0.378057236819144 
741	 0.378830235144951 
742	 0.37945633192654 
743	 0.380005999797808 
744	 0.380522518431165 
745	 0.381074465685271 
746	 0.381577504049982 
747	 0.381862658538928 
748	 0.382183865729126 
749	 0.382507621016431 
750	 0.382808650546628 
751	 0.38314517988307 
752	 0.383444220512264 
753	 0.383640272804295 
754	 0.383732659693209 
755	 0.383925739313775 
756	 0.384040084118713 
757	 0.384016948642661 
758	 0.384007137327447 
759	 0.385337989702565 
760	 0.387679884070367 
761	 0.389719799886928 
762	 0.388754025389926 
763	 0.38809703674089 
764	 0.387697797161178 
765	 0.387067241033778 
766	 0.386313910412109 
767	 0.385719233191068 
768	 0.385392659416021 
769	 0.385344329329111 
770	 0.385348086073662 
771	 0.385333335252337 
772	 0.385310440181865 
773	 0.385348155102412 
774	 0.38542867502791 
775	 0.38550225745438 
776	 0.385590087587696 
777	 0.385849402282882 
778	 0.385872712992661 
779	 0.385859392036278 
780	 0.386045677744552 
781	 0.386162876134826 
782	 0.386241107609503 
783	 0.386357007661596 
784	 0.386568416337715 
785	 0.386611632487652 
786	 0.386712235076422 
787	 0.386831742436109 
788	 0.386644491536911 
789	 0.386729378461885 
790	 0.386932336959716 
791	 0.38710151534113 
792	 0.387398807469549 
793	 0.387754697963624 
794	 0.387978167279584 
795	 0.387958164562063 
796	 0.388029846493501 
797	 0.38812725414253 
798	 0.388209546743527 
799	 0.388270166414557 
800	 0.388421622758526 
801	 0.388587872568438 
802	 0.388765884674815 
803	 0.389048601852862 
804	 0.389268906007087 
805	 0.389527330447474 
806	 0.389803700642807 
807	 0.389706675157709 
808	 0.389910937766651 
809	 0.390099486135275 
810	 0.389869825748664 
811	 0.389818803815563 
812	 0.389613060191164 
813	 0.389367478146219 
814	 0.389382736232219 
815	 0.389149873926375 
816	 0.389078439971185 
817	 0.389325164999996 
818	 0.389649616029747 
819	 0.389754145388008 
820	 0.38988650549774 
821	 0.390252600627698 
822	 0.390835327510544 
823	 0.391124811434335 
824	 0.391007576184118 
825	 0.390751707423978 
826	 0.391264212160928 
827	 0.39178071009869 
828	 0.392043725731476 
829	 0.392068629551122 
830	 0.392135113116357 
831	 0.392369824458996 
832	 0.392685014631121 
833	 0.39288857238283 
834	 0.39333707890932 
835	 0.393584889075228 
836	 0.393635827092998 
837	 0.394080784485116 
838	 0.394295059294661 
839	 0.394496818978053 
840	 0.394790867818773 
841	 0.394727082383554 
842	 0.394979533915044 
843	 0.395306000820588 
844	 0.395379180559774 
845	 0.395535278309012 
846	 0.395752736363368 
847	 0.395853503406393 
848	 0.395726406264219 
849	 0.395988260818303 
850	 0.396248161432956 
851	 0.396334078772965 
852	 0.396337292736992 
853	 0.396659549722907 
854	 0.397107388599789 
855	 0.397363812384066 
856	 0.39712625897572 
857	 0.396804700050401 
858	 0.396967305893019 
859	 0.397551052688624 
860	 0.397540455743922 
861	 0.39769595253732 
862	 0.397791447311737 
863	 0.397690460121964 
864	 0.398078376034335 
865	 0.398733609851074 
866	 0.399214645338837 
867	 0.399149150853206 
868	 0.39876232980229 
869	 0.398594380852804 
870	 0.398663653073517 
871	 0.398749477053048 
872	 0.398932557460175 
873	 0.39934180782868 
874	 0.399741909229123 
875	 0.39976561140883 
876	 0.400112241982136 
877	 0.400257798294204 
878	 0.400154473374184 
879	 0.400294362056204 
880	 0.400299397357823 
881	 0.400460473590338 
882	 0.400772087778116 
883	 0.4007396799009 
884	 0.400688546807926 
885	 0.40092864247267 
886	 0.401330022128196 
887	 0.401012966610967 
888	 0.400818728862859 
889	 0.401028869567162 
890	 0.401443177187829 
891	 0.401047810357861 
892	 0.401268844107443 
893	 0.401497398133094 
894	 0.400981509655897 
895	 0.400965532313976 
896	 0.401043805744923 
897	 0.401153174351461 
898	 0.40133044130153 
899	 0.401446588839965 
900	 0.401486979082039 
901	 0.401331449492351 
902	 0.400933628101764 
903	 0.400800207002813 
904	 0.400752359621145 
905	 0.400910328564666 
906	 0.401467473567227 
907	 0.401735524611943 
908	 0.402024682312717 
909	 0.402087380464447 
910	 0.401336744395862 
911	 0.400704864024991 
912	 0.401044215416437 
913	 0.401855680156471 
914	 0.401671460274685 
915	 0.402445631546303 
916	 0.402676399389669 
917	 0.402023988282818 
918	 0.401881208284435 
919	 0.402190252576297 
920	 0.402628265114791 
921	 0.402993791733034 
922	 0.403317272217375 
923	 0.403283829062411 
924	 0.402913777529648 
925	 0.402255435182683 
926	 0.401314376275124 
927	 0.400754968156399 
928	 0.400421692160534 
929	 0.400200731316584 
930	 0.400436214276629 
931	 0.400101910029199 
932	 0.399178836264484 
933	 0.398198582858293 
934	 0.398050591499427 
935	 0.397489259211002 
936	 0.396131046903279 
937	 0.394210197006915 
938	 0.392452191610838 
939	 0.392682784985613 
940	 0.393247425340294 
941	 0.393271442624403 
942	 0.394823009626227 
943	 0.396237698071379 
944	 0.396993480693915 
945	 0.396826902511157 
946	 0.395435110140322 
947	 0.394391256819116 
948	 0.394088271135658 
949	 0.394381270139732 
950	 0.394902561574492 
951	 0.393879595381025 
952	 0.393357774394902 
953	 0.394747096252954 
954	 0.396163703255912 
955	 0.395850696944877 
956	 0.396010822678557 
957	 0.397425394577178 
958	 0.396208963407757 
959	 0.395380012750236 
960	 0.395974625004912 
961	 0.397543852361608 
962	 0.398060440962566 
963	 0.398359743740425 
964	 0.399422973509269 
965	 0.400700744996743 
966	 0.399357667019724 
967	 0.398519465736407 
968	 0.398920458250117 
969	 0.399894600080193 
970	 0.399677875499584 
971	 0.400438970632297 
972	 0.400751919229586 
973	 0.400352756581224 
974	 0.401417711994522 
975	 0.40165051167932 
976	 0.401612231072437 
977	 0.40192023574873 
978	 0.402444712048138 
979	 0.401770893927363 
980	 0.401778607538274 
981	 0.402946151136114 
982	 0.403626796067252 
983	 0.402440617582684 
984	 0.403050374081167 
985	 0.404486275810389 
986	 0.402304156650425 
987	 0.404158152634422 
988	 0.404497851968146 
989	 0.403205559862251 
990	 0.404451047452647 
991	 0.404576370593533 
992	 0.40283279437399 
993	 0.401883380410946 
994	 0.404559374469891 
995	 0.404382848156498 
996	 0.404001524359117 
997	 0.404067588831792 
998	 0.404009052390914 
999	 0.403617658601113 
1000	 0.403220879198449 
1001	 0.419847872797309 
1002	 0.41994920226691 
1003	 0.420014584901967 
1004	 0.42007962019332 
1005	 0.420189666693576 
1006	 0.420351418402819 
1007	 0.420406844488595 
1008	 0.420400502870724 
1009	 0.420488101960947 
1010	 0.42057466332868 
1011	 0.420682102730412 
1012	 0.420770553325548 
1013	 0.420896156899186 
1014	 0.420819539707154 
1015	 0.420593561993711 
1016	 0.420595680225148 
1017	 0.420620625840609 
1018	 0.420661722909118 
1019	 0.420824414107099 
1020	 0.420990354002847 
1021	 0.421211626023582 
1022	 0.421283997864527 
1023	 0.42138475751963 
1024	 0.421331646532416 
1025	 0.42109008367328 
1026	 0.420870563899244 
1027	 0.42080034733251 
1028	 0.420722568692682 
1029	 0.420729776175444 
1030	 0.420809888625057 
1031	 0.42082844084511 
1032	 0.420882051930337 
1033	 0.420925035222362 
1034	 0.421058435387802 
1035	 0.421030930086904 
1036	 0.420799684549539 
1037	 0.420767835309774 
1038	 0.420818219878856 
1039	 0.420752136504196 
1040	 0.420629056295239 
1041	 0.420632915151103 
1042	 0.420441266377537 
1043	 0.42010611725819 
1044	 0.419948556087825 
1045	 0.419908090639598 
1046	 0.419924216346424 
1047	 0.420008316973919 
1048	 0.420040143636639 
1049	 0.419891217346346 
1050	 0.419822345997532 
1051	 0.4196809640519 
1052	 0.4195986714583 
1053	 0.41956466490157 
1054	 0.419682880170773 
1055	 0.419743326438171 
1056	 0.419613801345322 
1057	 0.419522243145577 
1058	 0.419441886665608 
1059	 0.419319019633854 
1060	 0.419339515426048 
1061	 0.419361932212339 
1062	 0.419314980752992 
1063	 0.419279153355803 
1064	 0.419353319352346 
1065	 0.419339177037016 
1066	 0.419283991966708 
1067	 0.419231955988654 
1068	 0.419401522260483 
1069	 0.419440693749648 
1070	 0.419450347643271 
1071	 0.41965385979212 
1072	 0.419690288767219 
1073	 0.419591619046696 
1074	 0.419587810153351 
1075	 0.419491516212903 
1076	 0.419418431049945 
1077	 0.419409623891708 
1078	 0.419497699689587 
1079	 0.419669546067565 
1080	 0.419676544397393 
1081	 0.419731481242496 
1082	 0.419798563140345 
1083	 0.419788305220406 
1084	 0.419676995270213 
1085	 0.419741895988029 
1086	 0.419654784709785 
1087	 0.419516343110348 
1088	 0.419493438336024 
1089	 0.419383283401972 
1090	 0.419274404083178 
1091	 0.419138108762766 
1092	 0.41901708868496 
1093	 0.418848549883927 
1094	 0.418647168480635 
1095	 0.418548597380686 
1096	 0.418404058535364 
1097	 0.41826970009702 
1098	 0.418071679733962 
1099	 0.417853326665138 
1100	 0.41755137541779 
1101	 0.417329772425928 
1102	 0.417137018585006 
1103	 0.416836299208792 
1104	 0.41660074099988 
1105	 0.416291205487917 
1106	 0.415916668750825 
1107	 0.415740735276585 
1108	 0.415549053774051 
1109	 0.415132045309283 
1110	 0.41454023205151 
1111	 0.413950976185323 
1112	 0.413127109178063 
1113	 0.412394326246409 
1114	 0.411764249106517 
1115	 0.410930898862552 
1116	 0.409953731079086 
1117	 0.408852029947277 
1118	 0.407717732591969 
1119	 0.406517779646691 
1120	 0.405504482342713 
1121	 0.404646250305542 
1122	 0.403884759707081 
1123	 0.403352077189389 
1124	 0.402814501633495 
1125	 0.402407615790767 
1126	 0.402169472916249 
1127	 0.40201490157102 
1128	 0.401988256370329 
1129	 0.402241381791164 
1130	 0.40237032481684 
1131	 0.402557885948091 
1132	 0.402693453420118 
1133	 0.402811564446078 
1134	 0.402937546155488 
1135	 0.403036739557679 
1136	 0.402998598773846 
1137	 0.403001146643048 
1138	 0.402944873317091 
1139	 0.402711155836282 
1140	 0.402510658974325 
1141	 0.402149521680987 
1142	 0.401733461859086 
1143	 0.401381390705544 
1144	 0.401012537045423 
1145	 0.400656395789189 
1146	 0.400321517910526 
1147	 0.400024990727607 
1148	 0.399711865305428 
1149	 0.399499419298441 
1150	 0.39925442133025 
1151	 0.399230215130243 
1152	 0.3993393267652 
1153	 0.399551309358269 
1154	 0.399785382844791 
1155	 0.399979396107842 
1156	 0.400325349503488 
1157	 0.400723820040336 
1158	 0.401045363759898 
1159	 0.40152717154719 
1160	 0.401872983599456 
1161	 0.402127219591833 
1162	 0.402340634552402 
1163	 0.402591501951971 
1164	 0.402698274834435 
1165	 0.402637551922263 
1166	 0.402680667395698 
1167	 0.402717683644071 
1168	 0.402737027333456 
1169	 0.402771963047227 
1170	 0.402846896358968 
1171	 0.402784892766056 
1172	 0.402775282803602 
1173	 0.402790760840915 
1174	 0.402696396120056 
1175	 0.402677462520011 
1176	 0.402644785730616 
1177	 0.402594571336943 
1178	 0.402548955981938 
1179	 0.402489288476927 
1180	 0.402429059003674 
1181	 0.402319922462423 
1182	 0.402146729998127 
1183	 0.402041109040566 
1184	 0.401900605256995 
1185	 0.40181025495135 
1186	 0.401841447864048 
1187	 0.401810957538988 
1188	 0.401738474278617 
1189	 0.401673027702587 
1190	 0.401742330398553 
1191	 0.401667976310128 
1192	 0.40170501089534 
1193	 0.4017121901777 
1194	 0.401618161605792 
1195	 0.401402833262444 
1196	 0.401322621952495 
1197	 0.401222302920648 
1198	 0.401165980342034 
1199	 0.401184505611972 
1200	 0.401193504960686 
1201	 0.401250632508014 
1202	 0.40121926879892 
1203	 0.401144392788452 
1204	 0.401116750555732 
1205	 0.401007805494768 
1206	 0.400971519067442 
1207	 0.401063928426628 
1208	 0.401100678235925 
1209	 0.401155912989804 
1210	 0.401103571438075 
1211	 0.401128168839362 
1212	 0.401186562831659 
1213	 0.40121300279762 
1214	 0.401259941342261 
1215	 0.401282456680667 
1216	 0.401242387995015 
1217	 0.401292379798564 
1218	 0.401399930905822 
1219	 0.401471032740019 
1220	 0.40158228122598 
1221	 0.401643498219018 
1222	 0.401640892944906 
1223	 0.401687771467133 
1224	 0.401785575630237 
1225	 0.401814386313664 
1226	 0.401777191173399 
1227	 0.401811302495838 
1228	 0.401823257396255 
1229	 0.401862249783143 
1230	 0.402002670250261 
1231	 0.402165757203041 
1232	 0.402343230007298 
1233	 0.40259885608704 
1234	 0.402680266854664 
1235	 0.402720069077617 
1236	 0.40274177337455 
1237	 0.402589585500393 
1238	 0.402608030180457 
1239	 0.402717945428302 
1240	 0.40280692708926 
1241	 0.402973260643872 
1242	 0.403047258746106 
1243	 0.403076337762407 
1244	 0.403126620450214 
1245	 0.403087780400306 
1246	 0.403146637047761 
1247	 0.403320944209436 
1248	 0.403419441118174 
1249	 0.403566141443598 
1250	 0.403641869255141 
1251	 0.403635373439121 
1252	 0.403585145606155 
1253	 0.403605882172401 
1254	 0.403611356208904 
1255	 0.403651380616398 
1256	 0.403764260683159 
1257	 0.403810641293812 
1258	 0.403840327172039 
1259	 0.403863486116586 
1260	 0.403849185954152 
1261	 0.403872538775455 
1262	 0.403927989776826 
1263	 0.403930386797983 
1264	 0.403932401714266 
1265	 0.403914706630184 
1266	 0.40384670773972 
1267	 0.40378067867029 
1268	 0.40366077744327 
1269	 0.403626667294107 
1270	 0.403648041045329 
1271	 0.403639086664133 
1272	 0.403613553242757 
1273	 0.403703707950079 
1274	 0.403755337879469 
1275	 0.403780290929011 
1276	 0.403822988343735 
1277	 0.403928853843694 
1278	 0.403961333545363 
1279	 0.403943577435213 
1280	 0.403937623985404 
1281	 0.403920235744719 
1282	 0.403905701033659 
1283	 0.403825455218881 
1284	 0.403868450156087 
1285	 0.404032377054989 
1286	 0.404078252734433 
1287	 0.404166312336742 
1288	 0.404183333357418 
1289	 0.404034459233928 
1290	 0.403992364504944 
1291	 0.403996177379149 
1292	 0.40399671673673 
1293	 0.404052089778396 
1294	 0.404068482277932 
1295	 0.404132190530108 
1296	 0.404054308631062 
1297	 0.404040859553577 
1298	 0.404020650512115 
1299	 0.403972453380628 
1300	 0.403913754597884 
1301	 0.403847814397161 
1302	 0.403770232182996 
1303	 0.403646160421185 
1304	 0.403460194202737 
1305	 0.403364285682297 
1306	 0.403285458300246 
1307	 0.403174394646683 
1308	 0.403172330761344 
1309	 0.403024851248627 
1310	 0.402751177341275 
1311	 0.402489066199026 
1312	 0.402156470832261 
1313	 0.40185566830004 
1314	 0.401540671734133 
1315	 0.401239439571152 
1316	 0.401019435141349 
1317	 0.400686966043494 
1318	 0.400265861664457 
1319	 0.399875533466743 
1320	 0.399401267892697 
1321	 0.398961852477346 
1322	 0.398550991349559 
1323	 0.398249146146713 
1324	 0.397718555799111 
1325	 0.397063497160744 
1326	 0.396479531557984 
1327	 0.395778371311713 
1328	 0.395125319593348 
1329	 0.39454307310268 
1330	 0.393910615421928 
1331	 0.393236013791026 
1332	 0.392533818687839 
1333	 0.391816179187659 
1334	 0.391156146260097 
1335	 0.3903846991304 
1336	 0.389803546763355 
1337	 0.389462925863051 
1338	 0.388976554600366 
1339	 0.388576193360467 
1340	 0.388005055967541 
1341	 0.38722114559721 
1342	 0.38637040450182 
1343	 0.385115242976798 
1344	 0.383999379282363 
1345	 0.382755058162699 
1346	 0.381401965083982 
1347	 0.379901605201478 
1348	 0.378192256751035 
1349	 0.376453946635377 
1350	 0.374181369005566 
1351	 0.372159463901347 
1352	 0.370872416846776 
1353	 0.368992027848941 
1354	 0.368081492218625 
1355	 0.365771048382973 
1356	 0.363390674297966 
1357	 0.359957895633824 
1358	 0.355030421776428 
1359	 0.35003965557787 
1360	 0.354165581678515 
1361	 0.351874346218565 
1362	 0.352930371436785 
1363	 0.349305624297004 
1364	 0.336406128671703 
1365	 0.3247380907032 
1366	 0.314299456647954 
1367	 0.309462411121637 
1368	 0.31126536404035 
1369	 0.3106734465014 
1370	 0.313048103054764 
1371	 0.314346231357687 
1372	 0.312869604055836 
1373	 0.312976717131619 
1374	 0.316491969986851 
1375	 0.315664617722252 
1376	 0.316201291458234 
1377	 0.314371575811721 
1378	 0.312562998325681 
1379	 0.309584789826267 
1380	 0.306491136049573 
1381	 0.302538524172054 
1382	 0.299440459305432 
1383	 0.295750917690972 
1384	 0.29395320836219 
1385	 0.293784737917608 
1386	 0.292810061998026 
1387	 0.292672298054612 
1388	 0.291760680579498 
1389	 0.289719633533149 
1390	 0.289363777229732 
1391	 0.289855925613864 
1392	 0.289649176981812 
1393	 0.290881835796974 
1394	 0.28988626457719 
1395	 0.287332281810863 
1396	 0.285501929247751 
1397	 0.281979406827194 
1398	 0.280531309337155 
1399	 0.281253744703241 
1400	 0.280205170117536 
1401	 0.278625546308873 
1402	 0.2781252145852 
1403	 0.276902463259463 
1404	 0.276449913566915 
1405	 0.277557421331335 
1406	 0.277777893780355 
1407	 0.277735488815765 
1408	 0.278167349329811 
1409	 0.277888243712122 
1410	 0.277951995748809 
1411	 0.277538143572094 
1412	 0.276482195721468 
1413	 0.276827910413639 
1414	 0.277512904891266 
1415	 0.277918871268933 
1416	 0.279135110745302 
1417	 0.279090997962573 
1418	 0.278221956390384 
1419	 0.278091451693821 
1420	 0.277486569025016 
1421	 0.277950473680183 
1422	 0.279351535915863 
1423	 0.279844197575822 
1424	 0.280563013203645 
1425	 0.28082322343152 
1426	 0.280435565176796 
1427	 0.280348234293062 
1428	 0.280184519191806 
1429	 0.280292724260514 
1430	 0.280745184579837 
1431	 0.280795661922959 
1432	 0.28087635159445 
1433	 0.280777069643884 
1434	 0.280131476300818 
1435	 0.279851608653348 
1436	 0.27967421823676 
1437	 0.279691780958228 
1438	 0.279865220164085 
1439	 0.280113607624991 
1440	 0.280696802134149 
1441	 0.280974197127226 
1442	 0.280907998333593 
1443	 0.281231531414388 
1444	 0.281591310437549 
1445	 0.282051070349831 
1446	 0.282830687036364 
1447	 0.283519358521767 
1448	 0.284061774423141 
1449	 0.284394582551844 
1450	 0.284937955781608 
1451	 0.285552000437634 
1452	 0.286021211059988 
1453	 0.286476244569818 
1454	 0.286980511443583 
1455	 0.287442503531716 
1456	 0.28788028208842 
1457	 0.288492831928847 
1458	 0.288809932422666 
1459	 0.288952321687752 
1460	 0.289143362034713 
1461	 0.289282933050019 
1462	 0.289373281075547 
1463	 0.289447573788454 
1464	 0.289480268774123 
1465	 0.289337137424319 
1466	 0.289364876992971 
1467	 0.289415547842709 
1468	 0.289601392557415 
1469	 0.289890584845848 
1470	 0.290284992706653 
1471	 0.290765541802839 
1472	 0.291335042418261 
1473	 0.292004558834677 
1474	 0.292671412085945 
1475	 0.293358013035637 
1476	 0.294122854174784 
1477	 0.294920390739768 
1478	 0.295736911786328 
1479	 0.296637816862534 
1480	 0.297479533416957 
1481	 0.298196241006139 
1482	 0.299058116498435 
1483	 0.299983416143885 
1484	 0.300891457970056 
1485	 0.301854503583639 
1486	 0.302812540324485 
1487	 0.303709688580318 
1488	 0.304634245526876 
1489	 0.305635451583042 
1490	 0.306643174721536 
1491	 0.307523129399986 
1492	 0.308283544100001 
1493	 0.309053391881548 
1494	 0.309781089730904 
1495	 0.31051350687965 
1496	 0.311306420978438 
1497	 0.31203817467066 
1498	 0.312710154172356 
1499	 0.313435959263954 
1500	 0.314224001400322 
1501	 0.314924777216117 
1502	 0.315605785712397 
1503	 0.316285109832034 
1504	 0.31691564132224 
1505	 0.31759113808347 
1506	 0.318277533166615 
1507	 0.318975259281035 
1508	 0.319688382988477 
1509	 0.320383155430648 
1510	 0.321063822469878 
1511	 0.321792578816413 
1512	 0.322536932055868 
1513	 0.323278212084404 
1514	 0.324076517193971 
1515	 0.324832795776185 
1516	 0.325576795433879 
1517	 0.326304633802944 
1518	 0.327022151135727 
1519	 0.327739977407817 
1520	 0.328428101421977 
1521	 0.329134049732616 
1522	 0.329836458104988 
1523	 0.330587026271482 
1524	 0.33144786364766 
1525	 0.33214327330641 
1526	 0.332807621805128 
1527	 0.333418948458686 
1528	 0.333788318343261 
1529	 0.334393695725988 
1530	 0.335161580023037 
1531	 0.335836954833856 
1532	 0.336636717334737 
1533	 0.337277248239753 
1534	 0.337728448384975 
1535	 0.338284402295019 
1536	 0.338790506353273 
1537	 0.339386546135577 
1538	 0.340124441543027 
1539	 0.340760138227457 
1540	 0.341404882879945 
1541	 0.3420058012652 
1542	 0.342518227441258 
1543	 0.343054433307255 
1544	 0.343569337992626 
1545	 0.344113940914808 
1546	 0.344725914353862 
1547	 0.345244758781216 
1548	 0.345667453489109 
1549	 0.346188678859426 
1550	 0.346695724696716 
1551	 0.34722749350136 
1552	 0.347895782378014 
1553	 0.348496243334736 
1554	 0.349057787953633 
1555	 0.349590845175068 
1556	 0.350104618501807 
1557	 0.350597815617449 
1558	 0.350969081686686 
1559	 0.351458509560116 
1560	 0.35205313787117 
1561	 0.352593665959666 
1562	 0.353235614265234 
1563	 0.353785358308818 
1564	 0.354260646581458 
1565	 0.354651198452198 
1566	 0.355109191742661 
1567	 0.355512043171235 
1568	 0.356009374808605 
1569	 0.356554722097909 
1570	 0.357095214745642 
1571	 0.357708777110894 
1572	 0.358170573550487 
1573	 0.358559884767169 
1574	 0.359003706596068 
1575	 0.359377612521201 
1576	 0.359804176580232 
1577	 0.360282866387454 
1578	 0.360743868584407 
1579	 0.361177048152311 
1580	 0.361622344782444 
1581	 0.36214199512187 
1582	 0.362487003311393 
1583	 0.362715244680288 
1584	 0.363045011919346 
1585	 0.363293171654148 
1586	 0.363694111463194 
1587	 0.364254311978099 
1588	 0.364656740807484 
1589	 0.365029706696334 
1590	 0.365447746825246 
1591	 0.365834190857296 
1592	 0.366215418025358 
1593	 0.366657241993041 
1594	 0.367025568103202 
1595	 0.367299647252615 
1596	 0.367660775306246 
1597	 0.368065149228984 
1598	 0.368433170794474 
1599	 0.368807934076832 
1600	 0.369173649072022 
1601	 0.369515055994375 
1602	 0.369886634816818 
1603	 0.37032380187446 
1604	 0.370598671401298 
1605	 0.370777723344303 
1606	 0.37104578365072 
1607	 0.37121427995142 
1608	 0.37153049542739 
1609	 0.372020699769793 
1610	 0.37233803061204 
1611	 0.372602611646835 
1612	 0.372903073062264 
1613	 0.373198746136821 
1614	 0.373400161963021 
1615	 0.373559600490482 
1616	 0.373774413549844 
1617	 0.373866172650822 
1618	 0.374150470741835 
1619	 0.374614449100921 
1620	 0.374967418139441 
1621	 0.375373832052318 
1622	 0.375653814004314 
1623	 0.375820976170668 
1624	 0.37610670070107 
1625	 0.37637667354076 
1626	 0.376651822798555 
1627	 0.377056647365693 
1628	 0.377282804489603 
1629	 0.377368944071898 
1630	 0.377557052566486 
1631	 0.377721958260519 
1632	 0.377897672252686 
1633	 0.378155094607234 
1634	 0.378281846081846 
1635	 0.378258028374361 
1636	 0.378481656868108 
1637	 0.378769058475869 
1638	 0.379041551021209 
1639	 0.379500413207254 
1640	 0.379761433381797 
1641	 0.379892739112394 
1642	 0.380039267323109 
1643	 0.380130088639845 
1644	 0.380304405495632 
1645	 0.380474576920017 
1646	 0.380638134454572 
1647	 0.380862547789404 
1648	 0.381062874588026 
1649	 0.381192784082728 
1650	 0.38139362614754 
1651	 0.381652873774407 
1652	 0.381897598419347 
1653	 0.382163974839666 
1654	 0.382399578604903 
1655	 0.382675509294336 
1656	 0.382802910598289 
1657	 0.38282461349855 
1658	 0.382884292061951 
1659	 0.382934474594568 
1660	 0.383115365710567 
1661	 0.383334535055872 
1662	 0.38343829254776 
1663	 0.383634531037376 
1664	 0.383797313562857 
1665	 0.383733726284067 
1666	 0.38380633268384 
1667	 0.383848954888498 
1668	 0.383862267634229 
1669	 0.384094862980626 
1670	 0.384201973967869 
1671	 0.384234257580426 
1672	 0.384407668849887 
1673	 0.384540562595343 
1674	 0.384542596908369 
1675	 0.384718284946264 
1676	 0.384990241551301 
1677	 0.385042034423475 
1678	 0.385070116492912 
1679	 0.385005822750518 
1680	 0.384805479113068 
1681	 0.384732404897886 
1682	 0.38485475462663 
1683	 0.385121985251737 
1684	 0.385321344557557 
1685	 0.38536323685356 
1686	 0.385452275422503 
1687	 0.385695281065102 
1688	 0.385896591563022 
1689	 0.386053309572752 
1690	 0.386013116248754 
1691	 0.385997536535389 
1692	 0.385874836490801 
1693	 0.385831936582369 
1694	 0.385880649244635 
1695	 0.385910791869948 
1696	 0.38596253829736 
1697	 0.3859807344056 
1698	 0.386044794081109 
1699	 0.386000181786599 
1700	 0.385774908404106 
1701	 0.385700324792146 
1702	 0.385630328963872 
1703	 0.385584108444189 
1704	 0.385626306860223 
1705	 0.385697819651459 
1706	 0.385942789211958 
1707	 0.385856969731361 
1708	 0.38561699116792 
1709	 0.385452512082242 
1710	 0.384964518320372 
1711	 0.384751915876962 
1712	 0.384877663589005 
1713	 0.384786403465043 
1714	 0.384622108043577 
1715	 0.38447653445102 
1716	 0.384259096959733 
1717	 0.384098471567019 
1718	 0.38402962838308 
1719	 0.383887404885371 
1720	 0.383665218732128 
1721	 0.383443237507914 
1722	 0.383161451850243 
1723	 0.383007750028648 
1724	 0.383030399067409 
1725	 0.382833998350647 
1726	 0.382520588807401 
1727	 0.382293424764415 
1728	 0.381978254693321 
1729	 0.381700862313411 
1730	 0.381575275709288 
1731	 0.38138179292 
1732	 0.381039467115286 
1733	 0.380677578007291 
1734	 0.38040897185033 
1735	 0.38014442866418 
1736	 0.379846463331882 
1737	 0.379740942115021 
1738	 0.379587688981081 
1739	 0.379322283865594 
1740	 0.379218622786473 
1741	 0.379059647519296 
1742	 0.378884868261923 
1743	 0.378689417007412 
1744	 0.378305047066017 
1745	 0.378090135328512 
1746	 0.377811134455121 
1747	 0.377413703963842 
1748	 0.37712694017718 
1749	 0.376744905407717 
1750	 0.376150849503556 
1751	 0.375646810426577 
1752	 0.375468888218354 
1753	 0.375181944078504 
1754	 0.374943198963339 
1755	 0.374833713874335 
1756	 0.374421339511353 
1757	 0.373842246741649 
1758	 0.373420911624781 
1759	 0.373017813702071 
1760	 0.372591194206616 
1761	 0.372263589727826 
1762	 0.371883753996405 
1763	 0.371477890365242 
1764	 0.370975876162725 
1765	 0.370274281830753 
1766	 0.369833267174185 
1767	 0.369511549760755 
1768	 0.369099751964521 
1769	 0.368873610181678 
1770	 0.368480323562576 
1771	 0.367786337873671 
1772	 0.367324360088079 
1773	 0.366937492707452 
1774	 0.366600839377488 
1775	 0.366572411883783 
1776	 0.366401593576031 
1777	 0.365974942390859 
1778	 0.365325675529098 
1779	 0.364599955792513 
1780	 0.363933664990915 
1781	 0.363444644355209 
1782	 0.363416205568461 
1783	 0.363267469516774 
1784	 0.363021086525391 
1785	 0.363158209042649 
1786	 0.362985573622322 
1787	 0.362439418218055 
1788	 0.362255630994633 
1789	 0.361621968180019 
1790	 0.360321131106999 
1791	 0.359658401209049 
1792	 0.358862144438099 
1793	 0.358011662615609 
1794	 0.357849186714084 
1795	 0.357301222711481 
1796	 0.35665416442169 
1797	 0.355878543125682 
1798	 0.354817373046573 
1799	 0.354497454683737 
1800	 0.353858762449882 
1801	 0.354036214994837 
1802	 0.352829472812323 
1803	 0.352130137284868 
1804	 0.352780016078596 
1805	 0.352377996200412 
1806	 0.351265163556211 
1807	 0.35037252461025 
1808	 0.348445222815361 
1809	 0.348113430246701 
1810	 0.347621372128308 
1811	 0.348022259575436 
1812	 0.346585778331414 
1813	 0.34372427404053 
1814	 0.342493258052147 
1815	 0.340251321859892 
1816	 0.339045372545937 
1817	 0.343721629624314 
1818	 0.343720045073551 
1819	 0.341463462551386 
1820	 0.334259420245578 
1821	 0.331200454704539 
1822	 0.325602247958095 
1823	 0.321804539876639 
1824	 0.320813256109835 
1825	 0.321485458664444 
1826	 0.325594161082392 
1827	 0.32798152141987 
1828	 0.331806426734391 
1829	 0.34629460063639 
1830	 0.35035365004652 
1831	 0.34199070902095 
1832	 0.335254899739647 
1833	 0.313357602731527 
1834	 0.297047171980693 
1835	 0.275796620201813 
1836	 0.257628525366533 
1837	 0.264969373013392 
1838	 0.269905387253097 
1839	 0.281697329599992 
1840	 0.300637558680471 
1841	 0.320158264369075 
1842	 0.349687969379779 
1843	 0.352779852370592 
1844	 0.346740239480871 
1845	 0.340482240165785 
1846	 0.309917940541418 
1847	 0.296006195645297 
1848	 0.287102757444039 
1849	 0.27617414161546 
1850	 0.287241747663823 
1851	 0.337973223224311 
1852	 0.333921323177014 
1853	 0.313776040004497 
1854	 0.310042472642004 
1855	 0.277074315902271 
1856	 0.267319698643459 
1857	 0.287311796335123 
1858	 0.284069887181858 
1859	 0.303569283548164 
1860	 0.333827688236123 
1861	 0.344767050479159 
1862	 0.364239810966937 
1863	 0.375762366800686 
1864	 0.371187953442117 
1865	 0.370153903628057 
1866	 0.37233551717638 
1867	 0.377860416890658 
1868	 0.369441462814252 
1869	 0.348180114556909 
1870	 0.339258748328001 
1871	 0.337667708084819 
1872	 0.330500888413807 
1873	 0.330623958543026 
1874	 0.321789744385924 
1875	 0.320699932697223 
1876	 0.299157259675678 
1877	 0.260915888909813 
1878	 0.251013001894125 
1879	 0.251945517198339 
1880	 0.258982696605475 
1881	 0.25963294279981 
1882	 0.26864775665537 
1883	 0.272493337613712 
1884	 0.273407402363757 
1885	 0.268003566064954 
1886	 0.256495441415539 
1887	 0.256105973812202 
1888	 0.262702713851407 
1889	 0.264136084798671 
1890	 0.261590988254952 
1891	 0.267977105887424 
1892	 0.268491048149576 
1893	 0.251068377988615 
1894	 0.246970133811318 
1895	 0.256206871195925 
1896	 0.260199765435631 
1897	 0.264921773304262 
1898	 0.268430493255439 
1899	 0.261567802995005 
1900	 0.259519685447432 
1901	 0.259117731253927 
1902	 0.246366736140296 
1903	 0.239811013365874 
1904	 0.256251259636205 
1905	 0.259509080363776 
1906	 0.246081622636483 
1907	 0.251500047551661 
1908	 0.264530592445343 
1909	 0.235367705500677 
1910	 0.226380463125363 
1911	 0.229007905624809 
1912	 0.230057368077897 
1913	 0.235193589275567 
1914	 0.23855416863425 
1915	 0.240949677611059 
1916	 0.243962113788133 
1917	 0.24875361388019 
1918	 0.250055205779081 
1919	 0.249983094414253 
1920	 0.243602165764553 
1921	 0.233541612163415 
1922	 0.226001861079173 
1923	 0.22240273746189 
1924	 0.220343748043025 
1925	 0.219549769751034 
1926	 0.220976829394044 
1927	 0.222116503835255 
1928	 0.224063455449742 
1929	 0.225972304157429 
1930	 0.225138812448715 
1931	 0.225873896089479 
1932	 0.227732192083948 
1933	 0.229152649007939 
1934	 0.23168008461466 
1935	 0.237458564075336 
1936	 0.239245155593319 
1937	 0.239783682516327 
1938	 0.239439001566853 
1939	 0.237584225082491 
1940	 0.235965093644431 
1941	 0.235734934064721 
1942	 0.236671315663571 
1943	 0.237539006032129 
1944	 0.239050182081276 
1945	 0.2416515486535 
1946	 0.24513775584579 
1947	 0.246633304804503 
1948	 0.248313493511618 
1949	 0.249194717522047 
1950	 0.249008345895034 
1951	 0.246693961818073 
1952	 0.247442061049918 
1953	 0.248280413551104 
1954	 0.248753217080836 
1955	 0.250706872499406 
1956	 0.251306691774614 
1957	 0.252294071838913 
1958	 0.253494594331578 
1959	 0.254801082516539 
1960	 0.255825599233315 
1961	 0.256972990453031 
1962	 0.257605856694024 
1963	 0.258452895220638 
1964	 0.259631052897995 
1965	 0.260926185038732 
1966	 0.261807568608306 
1967	 0.261887140920369 
1968	 0.261798617091157 
1969	 0.26208656887475 
1970	 0.262113451311925 
1971	 0.262688472167292 
1972	 0.263774339122731 
1973	 0.264756885455452 
1974	 0.265298175290486 
1975	 0.266040940770484 
1976	 0.266672590872506 
1977	 0.266880539734738 
1978	 0.267730665303577 
1979	 0.268587762944574 
1980	 0.269343118424574 
1981	 0.270313255415021 
1982	 0.27088353455255 
1983	 0.271119392098661 
1984	 0.271442523597062 
1985	 0.271915355753145 
1986	 0.272167357658395 
1987	 0.272703808515352 
1988	 0.273061268362649 
1989	 0.273327467171545 
1990	 0.273832216724287 
1991	 0.274345461201256 
1992	 0.274914353523473 
1993	 0.275759443627249 
1994	 0.276220046380329 
1995	 0.276436562405241 
1996	 0.276335210081585 
1997	 0.276558562622449 
1998	 0.276391891334382 
1999	 0.276905005952856 
2000	 0.278277305764141 
2001	 0.279333540069055 
2002	 0.280789266896283 
2003	 0.281654357635204 
2004	 0.282287196168739 
2005	 0.283685446702427 
2006	 0.284751628207023 
2007	 0.285410209471653 
2008	 0.286186294032544 
2009	 0.286702491775507 
2010	 0.28729938904689 
2011	 0.288134773377579 
2012	 0.288821002604738 
2013	 0.290488928065861 
2014	 0.291568603518537 
2015	 0.292714468684147 
2016	 0.293481202990437 
2017	 0.293020881895611 
2018	 0.29330414018073 
2019	 0.293683490852917 
2020	 0.293680736151838 
2021	 0.294147883042258 
2022	 0.295615455476081 
2023	 0.296778503987592 
2024	 0.29753099066999 
2025	 0.298303234479865 
2026	 0.298829132799833 
2027	 0.298981221864386 
2028	 0.299325749019148 
2029	 0.299505791498202 
2030	 0.299551577688074 
2031	 0.299755729129086 
2032	 0.300172101749234 
2033	 0.300697547470678 
2034	 0.301382803635263 
2035	 0.302225355103481 
2036	 0.302767457034923 
2037	 0.302968000934433 
2038	 0.303664683562763 
2039	 0.304232991056423 
2040	 0.304897523809113 
2041	 0.305843508544315 
2042	 0.306256487724493 
2043	 0.30659561611277 
2044	 0.306739646812541 
2045	 0.307118549991827 
2046	 0.307535971740471 
2047	 0.308292958589019 
2048	 0.308742456267207 
2049	 0.309497328667597 
2050	 0.310007168017733 
2051	 0.309777520591188 
2052	 0.309970169953676 
2053	 0.310688838239631 
2054	 0.311417479070016 
2055	 0.312577080851816 
2056	 0.313643115220782 
2057	 0.314242073125251 
2058	 0.314949091313429 
2059	 0.315395497055553 
2060	 0.315541787114667 
2061	 0.315814497026339 
2062	 0.316041465751344 
2063	 0.316115359981247 
2064	 0.316865917202142 
2065	 0.317556063334989 
2066	 0.317879274570022 
2067	 0.318379505141604 
2068	 0.318757788914691 
2069	 0.319094767639081 
2070	 0.319705402134953 
2071	 0.320226321635229 
2072	 0.320572637928084 
2073	 0.320702306734162 
2074	 0.320742390740808 
2075	 0.32109783194014 
2076	 0.321376261807144 
2077	 0.321862868279353 
2078	 0.322596774143594 
2079	 0.322657600607401 
2080	 0.322254209134444 
2081	 0.322236592339115 
2082	 0.322867050606721 
2083	 0.323404767159354 
2084	 0.324300363399323 
2085	 0.325072278170985 
2086	 0.325029646310983 
2087	 0.325344620925397 
2088	 0.325640250728757 
2089	 0.326303194171861 
2090	 0.326926196602561 
2091	 0.32750916269303 
2092	 0.328165471303064 
2093	 0.328909548473659 
2094	 0.329739012367366 
2095	 0.330930116685312 
2096	 0.331780609934511 
2097	 0.331891383773746 
2098	 0.331967444528143 
2099	 0.332069838202647 
2100	 0.332099416056523 
2101	 0.332928437971784 
2102	 0.333496081335376 
2103	 0.334339677515445 
2104	 0.334404364819374 
2105	 0.334757480087069 
2106	 0.334562549675957 
2107	 0.334397535866034 
2108	 0.335109154806383 
2109	 0.335701307177295 
2110	 0.336619653009006 
2111	 0.337382497091777 
2112	 0.337697507323232 
2113	 0.337852033272215 
2114	 0.337596295153992 
2115	 0.337537450155578 
2116	 0.337973110761967 
2117	 0.338534542382437 
2118	 0.339406791936108 
2119	 0.340220901750908 
2120	 0.34136536649204 
2121	 0.342180922001112 
2122	 0.342390683284049 
2123	 0.342666722896582 
2124	 0.342612879990011 
2125	 0.342136485072735 
2126	 0.342670789196999 
2127	 0.343436626996579 
2128	 0.343893757614715 
2129	 0.344972172689384 
2130	 0.345523609577111 
2131	 0.345761325214296 
2132	 0.346862380524143 
2133	 0.347318827400765 
2134	 0.347382273785307 
2135	 0.347116061351191 
2136	 0.346848233014008 
2137	 0.346029748455304 
2138	 0.346248309160408 
2139	 0.347013264286851 
2140	 0.347731020989185 
2141	 0.349049152872932 
2142	 0.349688708001309 
2143	 0.349976697892091 
2144	 0.350185782081719 
2145	 0.349883428719256 
2146	 0.349853344970587 
2147	 0.350143033160175 
2148	 0.350696609778722 
2149	 0.350859411634488 
2150	 0.350596920013219 
2151	 0.350487602998131 
2152	 0.350018179824128 
2153	 0.349730437181844 
2154	 0.349676345839356 
2155	 0.349578585576735 
2156	 0.349267371185681 
2157	 0.348821211013149 
2158	 0.348754531496868 
2159	 0.349329614577283 
2160	 0.349344313511578 
2161	 0.349205745630738 
2162	 0.349113067922805 
2163	 0.348931293350976 
2164	 0.349140406031042 
2165	 0.349580088665151 
2166	 0.350161396558988 
2167	 0.350300684246048 
2168	 0.350275504445905 
2169	 0.350192928713522 
2170	 0.349953241368025 
2171	 0.349430095529394 
2172	 0.348721745955356 
2173	 0.348369912256668 
2174	 0.348253441067507 
2175	 0.347936200118319 
2176	 0.347598238148117 
2177	 0.347712464704757 
2178	 0.347503411823052 
2179	 0.346972377093702 
2180	 0.347189036478287 
2181	 0.346760310725825 
2182	 0.345773946945893 
2183	 0.345485330168705 
2184	 0.34525031071786 
2185	 0.346128081023419 
2186	 0.347226491833427 
2187	 0.347314763141633 
2188	 0.347273592682082 
2189	 0.347136932456423 
2190	 0.346182415060932 
2191	 0.344757368550492 
2192	 0.344656613531885 
2193	 0.344514512209974 
2194	 0.344167626510153 
2195	 0.344502110150934 
2196	 0.345060769749842 
2197	 0.345311586102713 
2198	 0.345524853144361 
2199	 0.345310721998519 
2200	 0.344443158250917 
2201	 0.344026882613052 
2202	 0.343624518434861 
2203	 0.343548545359002 
2204	 0.343885437516049 
2205	 0.344155993314671 
2206	 0.34455840433162 
2207	 0.344284066792899 
2208	 0.344066945796551 
2209	 0.343896410864576 
2210	 0.343707505103805 
2211	 0.343215380641228 
2212	 0.342928977436911 
2213	 0.343181828392703 
2214	 0.343366107758908 
2215	 0.343228336485986 
2216	 0.343699261859337 
2217	 0.344568551779324 
2218	 0.345233654051551 
2219	 0.345638864462342 
2220	 0.346131308354877 
2221	 0.346348831097777 
2222	 0.346082623872227 
2223	 0.345626498395995 
2224	 0.345202263550216 
2225	 0.344958491064229 
2226	 0.344556002939639 
2227	 0.344573063294162 
2228	 0.345213309579936 
2229	 0.345478353909559 
2230	 0.345457606817036 
2231	 0.345319395417995 
2232	 0.344876261574873 
2233	 0.344320494639258 
2234	 0.343201322272597 
2235	 0.343476225489014 
2236	 0.344013718202311 
2237	 0.34400162707246 
2238	 0.344546823938696 
2239	 0.343994719053884 
2240	 0.343118974981155 
2241	 0.343513295143572 
2242	 0.343851340034816 
2243	 0.344605563558269 
2244	 0.344765292523803 
2245	 0.34418770210168 
2246	 0.344191192140784 
2247	 0.343830608148066 
2248	 0.343815942367782 
2249	 0.344183304644769 
2250	 0.343761552728305 
2251	 0.343723673607199 
2252	 0.343914600054067 
2253	 0.343166252809269 
2254	 0.342290052544449 
2255	 0.341274698720579 
2256	 0.340586484289705 
2257	 0.33945253605083 
2258	 0.33946488153353 
2259	 0.339870299667882 
2260	 0.340287372757325 
2261	 0.340905842872166 
2262	 0.341238167685577 
2263	 0.341464799746853 
2264	 0.341076686599138 
2265	 0.339928176421454 
2266	 0.339434623607703 
2267	 0.339428444429561 
2268	 0.339792686868085 
2269	 0.340592090883796 
2270	 0.340513293006556 
2271	 0.34087029313019 
2272	 0.341380412905989 
2273	 0.340942880889541 
2274	 0.340887979350718 
2275	 0.340073102001238 
2276	 0.339148475582227 
2277	 0.339678647093568 
2278	 0.339614183370079 
2279	 0.338787276046357 
2280	 0.338704843528881 
2281	 0.338034058074582 
2282	 0.33737495660997 
2283	 0.338433427211461 
2284	 0.338824946711604 
2285	 0.338707123381597 
2286	 0.338492545391094 
2287	 0.338218444690401 
2288	 0.336927166277075 
2289	 0.336841324413959 
2290	 0.33713998289488 
2291	 0.337930177292751 
2292	 0.339069489721605 
2293	 0.338167810424761 
2294	 0.337367826916194 
2295	 0.336544603751618 
2296	 0.335283155337314 
2297	 0.335470003184046 
2298	 0.335572698022841 
2299	 0.335117223155911 
2300	 0.334681457647366 
2301	 0.333905520117239 
2302	 0.332810323195368 
2303	 0.332369932050474 
2304	 0.332621111194804 
2305	 0.332649809713131 
2306	 0.332454892536943 
2307	 0.333165056221279 
2308	 0.334363285283157 
2309	 0.334843864503271 
2310	 0.33558338093197 
2311	 0.334959774195253 
2312	 0.332491752100016 
2313	 0.330459628405918 
2314	 0.329851574598899 
2315	 0.32993834037727 
2316	 0.330069390566118 
2317	 0.330955911791687 
2318	 0.331173754464535 
2319	 0.329718326541984 
2320	 0.328984221466532 
2321	 0.328441783149437 
2322	 0.32707046225422 
2323	 0.326085068020876 
2324	 0.325605356962596 
2325	 0.326456323233245 
2326	 0.326386459787302 
2327	 0.326855342625677 
2328	 0.327789897118195 
2329	 0.327314731917683 
2330	 0.32670793296583 
2331	 0.327203896352493 
2332	 0.327885693639668 
2333	 0.327611948740969 
2334	 0.326722059357961 
2335	 0.325752515943532 
2336	 0.324936658285333 
2337	 0.324645627317947 
2338	 0.324379622373036 
2339	 0.323545954780925 
2340	 0.322929398486217 
2341	 0.322186378929915 
2342	 0.32066437687613 
2343	 0.321372882624673 
2344	 0.323172290835158 
2345	 0.32357443737031 
2346	 0.323713823432297 
2347	 0.32344295632335 
2348	 0.321440909454037 
2349	 0.319432306165581 
2350	 0.320736307765942 
2351	 0.321441471509284 
2352	 0.319949423041609 
2353	 0.32028149243399 
2354	 0.32038558169058 
2355	 0.319145542385635 
2356	 0.319338332846559 
2357	 0.318098637277002 
2358	 0.314706379083319 
2359	 0.314515791004357 
2360	 0.316106859816651 
2361	 0.31680484743682 
2362	 0.318228677027876 
2363	 0.318318720826886 
2364	 0.316948499531911 
2365	 0.315951756120215 
2366	 0.315845997095815 
2367	 0.317300694692568 
2368	 0.31692277024831 
2369	 0.316430096599945 
2370	 0.317153539157331 
2371	 0.315701261577899 
2372	 0.315161140012297 
2373	 0.315944425704517 
2374	 0.31539517503804 
2375	 0.313625789190856 
2376	 0.312760143840833 
2377	 0.312627428010534 
2378	 0.311660497909245 
2379	 0.310855081160771 
2380	 0.310015477775551 
2381	 0.308418385357044 
2382	 0.30612162700958 
2383	 0.301693238627754 
2384	 0.301032603200342 
2385	 0.302284710703619 
2386	 0.302319098463693 
2387	 0.30444047396507 
2388	 0.306480502686219 
2389	 0.307500338201069 
2390	 0.307904145300395 
2391	 0.311153468639977 
2392	 0.311011309293723 
2393	 0.305857933384455 
2394	 0.304107032380984 
2395	 0.30249963004026 
2396	 0.301621895878615 
2397	 0.302216834689875 
2398	 0.303061321661169 
2399	 0.305413225944127 
2400	 0.305979132152899 
2401	 0.306260899884105 
2402	 0.306573233291605 
2403	 0.304722304282165 
2404	 0.301111256694702 
2405	 0.297289746711995 
2406	 0.293504792176978 
2407	 0.291415956123106 
2408	 0.291040170863249 
2409	 0.293129793569611 
2410	 0.295334092878781 
2411	 0.294610563834271 
2412	 0.296345897303529 
2413	 0.295925158775814 
2414	 0.295851664531334 
2415	 0.298009838630911 
2416	 0.292321945022959 
2417	 0.287788074822309 
2418	 0.285606354101916 
2419	 0.281789989577282 
2420	 0.28221331676357 
2421	 0.282757472104763 
2422	 0.283359631684935 
2423	 0.285724941723924 
2424	 0.286584977886731 
2425	 0.288773449278388 
2426	 0.290888148176625 
2427	 0.290629276145691 
2428	 0.289824120466792 
2429	 0.286660337184978 
2430	 0.280887273346694 
2431	 0.2788504394273 
2432	 0.283804159484388 
2433	 0.287400108331227 
2434	 0.288395107453806 
2435	 0.285716809628907 
2436	 0.284298569205541 
2437	 0.285969259333097 
2438	 0.283939987255507 
2439	 0.278470093245478 
2440	 0.277347536827698 
2441	 0.2735954820424 
2442	 0.272923843647917 
2443	 0.279536843169735 
2444	 0.281215816894785 
2445	 0.279942684897362 
2446	 0.279664098011003 
2447	 0.277877765698009 
2448	 0.277184203116112 
2449	 0.278113025908001 
2450	 0.280822557002503 
2451	 0.291324189236653 
2452	 0.287097794193427 
2453	 0.271922834637302 
2454	 0.268060867423222 
2455	 0.258138853792418 
2456	 0.254883828110339 
2457	 0.265127458828688 
2458	 0.266416049007226 
2459	 0.259642513179172 
2460	 0.26106148475021 
2461	 0.272431134469472 
2462	 0.270289063383249 
2463	 0.258559551269107 
2464	 0.255856019322976 
2465	 0.246844655146217 
2466	 0.243834653333693 
2467	 0.255428233273124 
2468	 0.264465816392366 
2469	 0.277195751425953 
2470	 0.279633185800717 
2471	 0.277553635275164 
2472	 0.274014247602454 
2473	 0.252289796847605 
2474	 0.245645948678792 
2475	 0.254656400767205 
2476	 0.26300156974142 
2477	 0.273633491543191 
2478	 0.28746090427281 
2479	 0.31507820330389 
2480	 0.313612035381932 
2481	 0.297510145108333 
2482	 0.280473533673861 
2483	 0.230782935265826 
2484	 0.220150849597732 
2485	 0.229331043890397 
2486	 0.280449667289891 
2487	 0.310509659332702 
2488	 0.289579727457674 
2489	 0.251849282185386 
2490	 0.233509657317244 
2491	 0.190804527780888 
2492	 0.167678225959487 
2493	 0.221572253404835 
2494	 0.225920104975056 
2495	 0.19198413462854 
2496	 0.151007716256761 
2497	 0.116338179981355 
2498	 0.149386119731641 
2499	 0.172111097236756 
2500	 0.228262232940748 
