Wavelength	ref00086.asd
350	 1.26060190139803E-02 
351	 1.27929091320241E-02 
352	 1.21401921106165E-02 
353	 1.20843318843581E-02 
354	 1.20426445430873E-02 
355	 1.23132346682086E-02 
356	 1.28337281590016E-02 
357	 1.24890279297075E-02 
358	 1.25147834767169E-02 
359	 1.28797364965557E-02 
360	 1.31477625513041E-02 
361	 1.30802449109631E-02 
362	 1.25402309039334E-02 
363	 1.22761444651578E-02 
364	 1.32253066073406E-02 
365	 0.012394791407249 
366	 1.18827151561205E-02 
367	 1.24676268876759E-02 
368	 0.012280683084681 
369	 0.011946403608047 
370	 1.17704012837638E-02 
371	 1.18566691488706E-02 
372	 1.19057665738288E-02 
373	 0.011969408168769 
374	 1.19016988980305E-02 
375	 0.011596351166655 
376	 1.19735496620161E-02 
377	 1.23536343757311E-02 
378	 1.25086993546939E-02 
379	 1.29074349020034E-02 
380	 1.25598427420837E-02 
381	 1.23035599703864E-02 
382	 1.27455629328046E-02 
383	 1.28154839983826E-02 
384	 1.29864686654477E-02 
385	 1.30041937701681E-02 
386	 1.25266055820191E-02 
387	 1.26295275987099E-02 
388	 1.31714442816898E-02 
389	 1.36832530781735E-02 
390	 1.35303175153996E-02 
391	 1.32593578759766E-02 
392	 0.013330377948229 
393	 1.37513084689401E-02 
394	 1.35790788831298E-02 
395	 1.35870605334205E-02 
396	 0.013899482487831 
397	 0.014294266654139 
398	 1.41365944721616E-02 
399	 0.013771049872028 
400	 1.36663198434431E-02 
401	 1.42231872735438E-02 
402	 1.42522299177877E-02 
403	 1.39039738856986E-02 
404	 1.36775874886718E-02 
405	 1.44387056696533E-02 
406	 1.45350472200357E-02 
407	 1.41884683363532E-02 
408	 1.41535776890202E-02 
409	 1.42114624904162E-02 
410	 1.43514507639484E-02 
411	 1.44819311895953E-02 
412	 1.44649920582523E-02 
413	 0.014598090500019 
414	 1.46624397120446E-02 
415	 1.45721367197544E-02 
416	 1.46823003929764E-02 
417	 1.48590641256283E-02 
418	 1.48744898895073E-02 
419	 1.46024012263304E-02 
420	 1.45625387224978E-02 
421	 0.014698050101066 
422	 1.48322702091054E-02 
423	 0.014743421539136 
424	 1.48147161646363E-02 
425	 1.49048743317257E-02 
426	 1.48595978253242E-02 
427	 1.46576085164167E-02 
428	 1.47297865092558E-02 
429	 1.48095423111247E-02 
430	 1.45645296531854E-02 
431	 1.47173121113904E-02 
432	 1.49137126372167E-02 
433	 1.49272717579945E-02 
434	 1.47281084551153E-02 
435	 1.46980851988338E-02 
436	 1.47993628693181E-02 
437	 0.014889841905927 
438	 1.47421793056531E-02 
439	 1.48037345989859E-02 
440	 1.49145746506788E-02 
441	 1.48131619928002E-02 
442	 1.49612279577828E-02 
443	 1.50351892381394E-02 
444	 0.014999935922778 
445	 1.51203571359751E-02 
446	 0.015217903356905 
447	 1.53069260601277E-02 
448	 1.53880120038767E-02 
449	 1.53264724631129E-02 
450	 1.53472705909706E-02 
451	 1.53876981274804E-02 
452	 1.53292553832357E-02 
453	 1.55780388521304E-02 
454	 1.57106684510496E-02 
455	 1.56528950208851E-02 
456	 1.58019440978665E-02 
457	 1.58170631158347E-02 
458	 1.57707655687769E-02 
459	 1.57791710849627E-02 
460	 1.58076980659422E-02 
461	 1.57983501167733E-02 
462	 1.57846212662849E-02 
463	 1.58315645298045E-02 
464	 1.57888047229608E-02 
465	 1.58151308114524E-02 
466	 1.59233482204567E-02 
467	 1.58639127747612E-02 
468	 1.57978750836881E-02 
469	 1.57883359460812E-02 
470	 1.58361881093116E-02 
471	 1.58082243578305E-02 
472	 1.58538538750688E-02 
473	 0.015941935676979 
474	 1.59291885632013E-02 
475	 1.59920822829074E-02 
476	 1.60189933650578E-02 
477	 1.59769640479495E-02 
478	 1.60514249009169E-02 
479	 1.61836656425144E-02 
480	 1.62774031492255E-02 
481	 1.62495555106099E-02 
482	 1.61515538785811E-02 
483	 1.61748314266211E-02 
484	 1.63590519579687E-02 
485	 1.65746665040122E-02 
486	 1.66155330005629E-02 
487	 0.016595597546471 
488	 1.66491638311726E-02 
489	 1.67667344065868E-02 
490	 1.69714349349874E-02 
491	 1.71184273999237E-02 
492	 0.017076218804018 
493	 1.72716383986944E-02 
494	 1.74764098590651E-02 
495	 1.76240736984522E-02 
496	 1.79063938116859E-02 
497	 1.81427144733793E-02 
498	 1.83734117066333E-02 
499	 1.86655200862694E-02 
500	 1.89842787690179E-02 
501	 1.93815701874774E-02 
502	 1.98197505686985E-02 
503	 0.020219889148806 
504	 2.06896720234429E-02 
505	 2.11288472540424E-02 
506	 2.15538889728355E-02 
507	 2.22111827882113E-02 
508	 0.02287770295182 
509	 2.35157730834881E-02 
510	 0.02415027913474 
511	 2.47842957299251E-02 
512	 2.56863064444126E-02 
513	 2.66965655350302E-02 
514	 2.73450869595638E-02 
515	 2.84835219138538E-02 
516	 2.97481918810496E-02 
517	 3.08199309131585E-02 
518	 3.20589921946842E-02 
519	 3.31976229553596E-02 
520	 3.42496572288524E-02 
521	 3.53311738255652E-02 
522	 3.64057980294675E-02 
523	 3.76125972742445E-02 
524	 3.88822560580008E-02 
525	 3.98979738252964E-02 
526	 4.11391900466117E-02 
527	 0.042416637388058 
528	 0.043473747273169 
529	 4.43291075600988E-02 
530	 4.51113666301967E-02 
531	 0.045903534745132 
532	 0.046742174969392 
533	 4.75237416835406E-02 
534	 4.81897971796064E-02 
535	 4.87155234941238E-02 
536	 4.91124146872091E-02 
537	 4.96012111529441E-02 
538	 5.01235485757636E-02 
539	 5.05560318045578E-02 
540	 5.09255416854577E-02 
541	 5.14160228990533E-02 
542	 5.18660425308954E-02 
543	 5.18772730220337E-02 
544	 5.22123431712756E-02 
545	 5.26553194301377E-02 
546	 5.29647206587689E-02 
547	 5.32215757321363E-02 
548	 5.35563608034429E-02 
549	 5.38716648853477E-02 
550	 5.40114759531689E-02 
551	 5.41404958269006E-02 
552	 5.42353380532062E-02 
553	 5.42584117168635E-02 
554	 5.41732583743336E-02 
555	 5.41159518384973E-02 
556	 0.054001390458767 
557	 5.37628514478819E-02 
558	 0.053604664254121 
559	 5.33100286754417E-02 
560	 5.28271133399562E-02 
561	 5.22437143141477E-02 
562	 5.18304694839678E-02 
563	 5.13424499007874E-02 
564	 5.06718430746828E-02 
565	 5.00711881932463E-02 
566	 4.95423161116963E-02 
567	 4.89956765817061E-02 
568	 4.83480827011149E-02 
569	 4.77520108315481E-02 
570	 4.70989163487096E-02 
571	 4.63719218291927E-02 
572	 4.56463134841916E-02 
573	 4.48839189312746E-02 
574	 4.42258618712316E-02 
575	 4.36956864331471E-02 
576	 4.29565902299617E-02 
577	 0.042220336305215 
578	 4.15785137580871E-02 
579	 4.10502044883616E-02 
580	 4.05546911374078E-02 
581	 0.040161240589868 
582	 3.98112245994632E-02 
583	 3.92623529084423E-02 
584	 3.88713593811354E-02 
585	 3.86124432460551E-02 
586	 3.83493340839467E-02 
587	 3.79194879284846E-02 
588	 3.76695304260065E-02 
589	 3.75949611406577E-02 
590	 3.74244462298262E-02 
591	 3.71248338159107E-02 
592	 3.68777467575897E-02 
593	 3.67365081602131E-02 
594	 3.64790204228581E-02 
595	 3.62850190880476E-02 
596	 3.60867369866911E-02 
597	 3.57861279903064E-02 
598	 3.55755183609704E-02 
599	 3.53209837617841E-02 
600	 3.50357670672892E-02 
601	 0.034884091247056 
602	 3.46757053745702E-02 
603	 0.034453332099763 
604	 3.42618639651154E-02 
605	 3.40246120242958E-02 
606	 3.37536181513227E-02 
607	 3.34801069455595E-02 
608	 3.32337882082079E-02 
609	 3.29176455927277E-02 
610	 3.26543689596372E-02 
611	 0.032488299347825 
612	 0.032327581903192 
613	 3.20593065313298E-02 
614	 3.17764800889269E-02 
615	 3.15707647072096E-02 
616	 3.12855167275451E-02 
617	 3.09964603704816E-02 
618	 3.07296759682193E-02 
619	 0.030469374170847 
620	 3.02150182586223E-02 
621	 3.00557742904285E-02 
622	 2.99832044517983E-02 
623	 2.97707768638907E-02 
624	 2.96606213466998E-02 
625	 2.95940625095501E-02 
626	 2.94582177212196E-02 
627	 2.94492512238355E-02 
628	 2.94434518402103E-02 
629	 2.94014120752977E-02 
630	 2.93764597390148E-02 
631	 2.93005646135814E-02 
632	 2.91978059785734E-02 
633	 2.90833130605963E-02 
634	 2.89029224972656E-02 
635	 2.86667107532254E-02 
636	 2.83764966909813E-02 
637	 2.80353454172988E-02 
638	 2.76557848523443E-02 
639	 2.72267806830703E-02 
640	 2.67370236329669E-02 
641	 2.61913570094081E-02 
642	 2.57872978861506E-02 
643	 2.53323064335898E-02 
644	 0.024703283284197 
645	 2.43603688676272E-02 
646	 2.39422895157679E-02 
647	 2.34903749429828E-02 
648	 2.32547318998936E-02 
649	 2.29295891233257E-02 
650	 2.25916056701437E-02 
651	 2.23625328392602E-02 
652	 2.23482291629883E-02 
653	 2.22404874973678E-02 
654	 2.20664750536718E-02 
655	 0.021935891493436 
656	 2.18561240458045E-02 
657	 2.17661978600893E-02 
658	 2.16013656064732E-02 
659	 2.13079847450917E-02 
660	 2.10227548825535E-02 
661	 2.07597598346272E-02 
662	 2.05124206531388E-02 
663	 2.02474198069296E-02 
664	 2.00482202537637E-02 
665	 1.98053187526743E-02 
666	 1.94369769115862E-02 
667	 1.93460217177203E-02 
668	 1.92782515053246E-02 
669	 1.91255984058603E-02 
670	 1.89507322107468E-02 
671	 0.018908502228989 
672	 1.89596341716817E-02 
673	 1.90021941727759E-02 
674	 1.88528090853326E-02 
675	 1.89446396497759E-02 
676	 1.91691595074065E-02 
677	 1.92540141286918E-02 
678	 1.93738440836353E-02 
679	 1.95111508411854E-02 
680	 1.96874655831239E-02 
681	 1.99729073011096E-02 
682	 2.04012633641583E-02 
683	 2.09153944074986E-02 
684	 2.14604193940583E-02 
685	 2.20083888541709E-02 
686	 0.022852073020921 
687	 2.40302329418506E-02 
688	 2.53186074474875E-02 
689	 2.65552345371364E-02 
690	 2.79894274279539E-02 
691	 2.97671293095219E-02 
692	 3.17748411978265E-02 
693	 0.0339970580636 
694	 3.66098431670674E-02 
695	 3.96612977012878E-02 
696	 4.28162600372566E-02 
697	 4.62435862294178E-02 
698	 0.04995651352911 
699	 5.38970480729441E-02 
700	 5.81304659855702E-02 
701	 6.27159754148142E-02 
702	 6.75094471478156E-02 
703	 7.21385361711306E-02 
704	 7.70184049239697E-02 
705	 8.20936665072055E-02 
706	 8.72919144335497E-02 
707	 9.26035100900869E-02 
708	 0.098149748843252 
709	 0.103923587807775 
710	 0.109832249797835 
711	 0.116007763754012 
712	 0.122321023599111 
713	 0.128686317142859 
714	 0.1351070322493 
715	 0.141852858392556 
716	 0.149051052121287 
717	 0.156870237867945 
718	 0.164997532868189 
719	 0.172893841484113 
720	 0.179982983488623 
721	 0.186177468481796 
722	 0.192153424380198 
723	 0.19881747030158 
724	 0.206366937664189 
725	 0.213354889331059 
726	 0.219773646985403 
727	 0.225787326079681 
728	 0.231681051385943 
729	 0.237298256596679 
730	 0.242759023389377 
731	 0.247786185473604 
732	 0.25209159959045 
733	 0.25584663404651 
734	 0.259613286201551 
735	 0.263537717550912 
736	 0.267279191267721 
737	 0.27082788328359 
738	 0.274147819869822 
739	 0.277215824846613 
740	 0.279857953120526 
741	 0.282436107060776 
742	 0.284812583800947 
743	 0.28680520062954 
744	 0.288955131405953 
745	 0.29092172459642 
746	 0.292624585362862 
747	 0.294202879717897 
748	 0.295644739291102 
749	 0.297024184693538 
750	 0.298355616635655 
751	 0.299543410180576 
752	 0.300508204902414 
753	 0.301365818419197 
754	 0.302231733592341 
755	 0.303018481807218 
756	 0.303542900016858 
757	 0.303915680605646 
758	 0.304500976535063 
759	 0.306105987803245 
760	 0.308962654994091 
761	 0.312010850794937 
762	 0.311395310889677 
763	 0.311151456603547 
764	 0.311114868556982 
765	 0.310650798234582 
766	 0.310034224805035 
767	 0.309725898316372 
768	 0.309661146966565 
769	 0.309673121223256 
770	 0.309845026262505 
771	 0.31009664365159 
772	 0.310343835261935 
773	 0.310521922321774 
774	 0.310786589484609 
775	 0.311041818830036 
776	 0.311239712704685 
777	 0.311483100224987 
778	 0.311658317137196 
779	 0.311844199694364 
780	 0.312113947415483 
781	 0.312332655285697 
782	 0.312597924115951 
783	 0.312865939647015 
784	 0.313050021248714 
785	 0.313310191075625 
786	 0.313692845180148 
787	 0.31413076703953 
788	 0.314462631072727 
789	 0.314921380084208 
790	 0.315281221825879 
791	 0.315407809954761 
792	 0.315517638953727 
793	 0.315792521907577 
794	 0.316120375535868 
795	 0.31636048975576 
796	 0.316745066354712 
797	 0.316919783519456 
798	 0.317021906727586 
799	 0.31740333930276 
800	 0.317609020793112 
801	 0.31785713983861 
802	 0.318166283391079 
803	 0.31827864046287 
804	 0.318418454907912 
805	 0.318598288573503 
806	 0.318772938938297 
807	 0.318852350340834 
808	 0.319170137405952 
809	 0.319573433721413 
810	 0.319893185880813 
811	 0.320547193697507 
812	 0.321437872817061 
813	 0.322481566059199 
814	 0.32359733641388 
815	 0.32476178559073 
816	 0.325603954092878 
817	 0.325907201413529 
818	 0.325721997796131 
819	 0.325300260432197 
820	 0.324868057953912 
821	 0.324786760703453 
822	 0.325691092394147 
823	 0.326239898811762 
824	 0.326039056800256 
825	 0.325356801329682 
826	 0.325297128810012 
827	 0.325636880509481 
828	 0.326124419991073 
829	 0.326450848545605 
830	 0.326332817219599 
831	 0.326259264895067 
832	 0.326334238345497 
833	 0.326351740123379 
834	 0.3264557312294 
835	 0.3263436970868 
836	 0.326088389546111 
837	 0.326215722675373 
838	 0.326310749550723 
839	 0.326419260025448 
840	 0.32657060917315 
841	 0.326584645952993 
842	 0.326781750978708 
843	 0.327042393495942 
844	 0.327187281825562 
845	 0.327299085282021 
846	 0.327449967860568 
847	 0.327603633805389 
848	 0.327714052341894 
849	 0.327972930263534 
850	 0.328235830970717 
851	 0.328409318577092 
852	 0.328517019042518 
853	 0.329038948247168 
854	 0.329659142782726 
855	 0.329908836599417 
856	 0.329393853279164 
857	 0.32928093321628 
858	 0.329541566637012 
859	 0.329906557491024 
860	 0.330093054565944 
861	 0.330343245798018 
862	 0.33057784750898 
863	 0.330700339868176 
864	 0.330720176892936 
865	 0.331301190249647 
866	 0.331962954376896 
867	 0.331998531562549 
868	 0.331557388821069 
869	 0.331380207714531 
870	 0.331612451752694 
871	 0.332010322687092 
872	 0.332166337944679 
873	 0.332474169904221 
874	 0.332830232426615 
875	 0.332832612073118 
876	 0.332841655915447 
877	 0.333025904410034 
878	 0.333306296090411 
879	 0.333413466701119 
880	 0.33362302290042 
881	 0.333761463668078 
882	 0.333810620746914 
883	 0.334030553305806 
884	 0.334242125518941 
885	 0.334476689953563 
886	 0.334701840335404 
887	 0.334703990287067 
888	 0.334834212573843 
889	 0.335113413800415 
890	 0.335417286999249 
891	 0.33545250978282 
892	 0.336317114109987 
893	 0.337418844580739 
894	 0.337978394043118 
895	 0.338726016653864 
896	 0.339731286924782 
897	 0.34070655623361 
898	 0.341337128573684 
899	 0.342104665546552 
900	 0.342277174745508 
901	 0.341859925342381 
902	 0.341243984317597 
903	 0.340246603492394 
904	 0.339903808955428 
905	 0.340315438698255 
906	 0.340992598997551 
907	 0.342155702011192 
908	 0.343323762351818 
909	 0.344049006155451 
910	 0.344069090421651 
911	 0.343722556826443 
912	 0.343866139272525 
913	 0.344349845942315 
914	 0.344186708630136 
915	 0.344647948531585 
916	 0.344632930676016 
917	 0.34382706132591 
918	 0.343119870997925 
919	 0.342604114362468 
920	 0.342247385705736 
921	 0.342039983000772 
922	 0.342056620868844 
923	 0.342576955416892 
924	 0.342829345902531 
925	 0.342613434783275 
926	 0.342890930046424 
927	 0.343758275975459 
928	 0.345447663163651 
929	 0.347842703807096 
930	 0.350171146580732 
931	 0.352945408918656 
932	 0.355924240488203 
933	 0.358298069667802 
934	 0.358808115490006 
935	 0.358993169687333 
936	 0.358060164753861 
937	 0.355647165462819 
938	 0.353265824222919 
939	 0.351450733415913 
940	 0.350565312580952 
941	 0.350357302894072 
942	 0.349695167458612 
943	 0.350590003062373 
944	 0.350943156191744 
945	 0.349704592767047 
946	 0.350316399960697 
947	 0.349294806723134 
948	 0.348026759797295 
949	 0.34779825874346 
950	 0.346934094879212 
951	 0.346295409011494 
952	 0.345307453234452 
953	 0.344110388385144 
954	 0.344873604631286 
955	 0.343701517374993 
956	 0.341830329425563 
957	 0.340870213186334 
958	 0.340468346451015 
959	 0.338559363720277 
960	 0.337139485736903 
961	 0.337233722945079 
962	 0.336389587048663 
963	 0.334527387507062 
964	 0.333276723685122 
965	 0.332910954411321 
966	 0.330968215946676 
967	 0.330732449114147 
968	 0.330339813759973 
969	 0.328605695483149 
970	 0.327120067403756 
971	 0.327698077201292 
972	 0.328498167783369 
973	 0.328453029844863 
974	 0.328702295176837 
975	 0.328602635513466 
976	 0.328625352008642 
977	 0.328469010628948 
978	 0.326930905575601 
979	 0.3270266215185 
980	 0.326315765307091 
981	 0.324954191758603 
982	 0.326211004280352 
983	 0.32683109761798 
984	 0.326160419221257 
985	 0.324949364122573 
986	 0.324674587509755 
987	 0.324556994459394 
988	 0.325309840270611 
989	 0.326007243438552 
990	 0.325156854293173 
991	 0.326469811292766 
992	 0.325808705972286 
993	 0.32514582916344 
994	 0.328484607726215 
995	 0.328169835036543 
996	 0.326059489107759 
997	 0.325419900047528 
998	 0.327875762625583 
999	 0.327046673624411 
1000	 0.32617762769539 
1001	 0.341336752630059 
1002	 0.341719812683628 
1003	 0.342113498670342 
1004	 0.342526536044794 
1005	 0.342795884216119 
1006	 0.343112182373921 
1007	 0.343399595742922 
1008	 0.343499252345651 
1009	 0.343728712526323 
1010	 0.344068857220078 
1011	 0.344363949522948 
1012	 0.344656405599475 
1013	 0.344984752184043 
1014	 0.345268612260969 
1015	 0.345554857597414 
1016	 0.345947386389182 
1017	 0.346381504553121 
1018	 0.346736414147451 
1019	 0.347226265289836 
1020	 0.34748681706311 
1021	 0.347431152402189 
1022	 0.347665849940577 
1023	 0.347974048575539 
1024	 0.348248017611415 
1025	 0.348672331943032 
1026	 0.34910350091926 
1027	 0.349327207336578 
1028	 0.349470683884698 
1029	 0.349612403632665 
1030	 0.349726380972134 
1031	 0.349863576082506 
1032	 0.350085081657091 
1033	 0.350293171081646 
1034	 0.350587996942628 
1035	 0.35076617682777 
1036	 0.350882847697575 
1037	 0.351015575024334 
1038	 0.351130999858345 
1039	 0.351148575813694 
1040	 0.351278003953204 
1041	 0.351375768085007 
1042	 0.35150464407078 
1043	 0.351789695364978 
1044	 0.351993322032032 
1045	 0.352161761853863 
1046	 0.352354931546759 
1047	 0.352437143121084 
1048	 0.352548478677729 
1049	 0.352773135447137 
1050	 0.352924174080909 
1051	 0.353051375384864 
1052	 0.353166728204842 
1053	 0.353389370679608 
1054	 0.353678521844349 
1055	 0.353983461375057 
1056	 0.354254704669156 
1057	 0.35439727732854 
1058	 0.354465341265331 
1059	 0.354648643524153 
1060	 0.354853730899444 
1061	 0.355025788431805 
1062	 0.355248207299503 
1063	 0.355461185237551 
1064	 0.355712374872278 
1065	 0.35597648947188 
1066	 0.356356030341746 
1067	 0.356569951636821 
1068	 0.356634273567231 
1069	 0.356814438411394 
1070	 0.35704226682161 
1071	 0.357297083014121 
1072	 0.357553908062912 
1073	 0.357712594008302 
1074	 0.357902321651447 
1075	 0.35810621098096 
1076	 0.358320280493618 
1077	 0.3586248455779 
1078	 0.358787523261006 
1079	 0.358798197677702 
1080	 0.358951697785893 
1081	 0.359135995596449 
1082	 0.359343307357678 
1083	 0.359532387842566 
1084	 0.359803465888929 
1085	 0.360021557120493 
1086	 0.360145847000986 
1087	 0.360130731835601 
1088	 0.360075641459698 
1089	 0.360178998645224 
1090	 0.360335990502763 
1091	 0.360550862770033 
1092	 0.360994139707269 
1093	 0.361328081270519 
1094	 0.361510134027595 
1095	 0.361906630350393 
1096	 0.36225834367455 
1097	 0.362590139068345 
1098	 0.362894447086538 
1099	 0.363242768130913 
1100	 0.363523303883653 
1101	 0.363714132038109 
1102	 0.363949757747973 
1103	 0.364234498318084 
1104	 0.364457428035862 
1105	 0.364725175058022 
1106	 0.365101211776437 
1107	 0.365606369917371 
1108	 0.366281687568823 
1109	 0.367086567303394 
1110	 0.367951836622761 
1111	 0.368910862090943 
1112	 0.370031641616665 
1113	 0.371141144950339 
1114	 0.372442106780789 
1115	 0.373764662501776 
1116	 0.375133771002548 
1117	 0.376585383897156 
1118	 0.37808505027293 
1119	 0.379391335684198 
1120	 0.380653239138519 
1121	 0.38161068039558 
1122	 0.382135436552294 
1123	 0.382505130549625 
1124	 0.382533809702116 
1125	 0.382212839269486 
1126	 0.381533896600112 
1127	 0.380683898977813 
1128	 0.379280719682423 
1129	 0.377291361850827 
1130	 0.375414548233582 
1131	 0.373281110504535 
1132	 0.371364530440959 
1133	 0.369474177275657 
1134	 0.367661310620442 
1135	 0.365949054972918 
1136	 0.36412903418369 
1137	 0.36221057814045 
1138	 0.36022431313322 
1139	 0.358522731384626 
1140	 0.35686620984333 
1141	 0.355214004507313 
1142	 0.353826397284052 
1143	 0.352210674110929 
1144	 0.350473759649093 
1145	 0.348632723512812 
1146	 0.346833632476164 
1147	 0.34475000991577 
1148	 0.342541302459316 
1149	 0.340259523064497 
1150	 0.337785155686607 
1151	 0.335479330715584 
1152	 0.333251657873414 
1153	 0.331197004332172 
1154	 0.329204472377028 
1155	 0.327339854245182 
1156	 0.32556610899889 
1157	 0.323905588162555 
1158	 0.32227967817218 
1159	 0.320840599322484 
1160	 0.319571016220991 
1161	 0.318368297421614 
1162	 0.317338167443433 
1163	 0.316525644873853 
1164	 0.315678252146057 
1165	 0.314862116176291 
1166	 0.314124473521422 
1167	 0.313339626752397 
1168	 0.312729271029462 
1169	 0.312252697384562 
1170	 0.311815747317002 
1171	 0.311382625789327 
1172	 0.310978214095518 
1173	 0.310544871640467 
1174	 0.310116384321962 
1175	 0.309819977945234 
1176	 0.309606202163936 
1177	 0.309363054228368 
1178	 0.309201451208874 
1179	 0.308943119907708 
1180	 0.308638708452607 
1181	 0.30833610820588 
1182	 0.308001623317475 
1183	 0.307681424573981 
1184	 0.307364742580573 
1185	 0.30702277160975 
1186	 0.306630378435687 
1187	 0.306302655489749 
1188	 0.305990071420948 
1189	 0.305701897645706 
1190	 0.305434357408731 
1191	 0.305220451666195 
1192	 0.304956344372667 
1193	 0.304750282118121 
1194	 0.304611631425598 
1195	 0.304530456659319 
1196	 0.304455479701772 
1197	 0.304453598113225 
1198	 0.304424160639595 
1199	 0.304354770550815 
1200	 0.304399535475089 
1201	 0.304554130012038 
1202	 0.304597566089557 
1203	 0.304645215653948 
1204	 0.304704256326144 
1205	 0.304692122400284 
1206	 0.304725203326172 
1207	 0.304787404770146 
1208	 0.30490550784008 
1209	 0.305127596131593 
1210	 0.30518920879011 
1211	 0.305326600752905 
1212	 0.305414447112926 
1213	 0.305447767038922 
1214	 0.305310368622118 
1215	 0.305407705071672 
1216	 0.30558556941069 
1217	 0.305757409108734 
1218	 0.306065930651245 
1219	 0.306267119677933 
1220	 0.306401748055208 
1221	 0.306564228650969 
1222	 0.306705724083885 
1223	 0.3068789809759 
1224	 0.307085548719951 
1225	 0.307271488875036 
1226	 0.307451588507833 
1227	 0.307645593347239 
1228	 0.307818329165056 
1229	 0.308028485280656 
1230	 0.308261729683594 
1231	 0.308460493978511 
1232	 0.308689789787703 
1233	 0.308918389223882 
1234	 0.309159766251198 
1235	 0.309455728969687 
1236	 0.309671341112028 
1237	 0.30983865501794 
1238	 0.310045882844768 
1239	 0.310222201323278 
1240	 0.310416289508079 
1241	 0.310639341741373 
1242	 0.310872232307313 
1243	 0.311154377182346 
1244	 0.311347504725925 
1245	 0.311474858179759 
1246	 0.31166716584685 
1247	 0.311863243077962 
1248	 0.312004012752359 
1249	 0.312164280772936 
1250	 0.312330688936853 
1251	 0.312427759886632 
1252	 0.31253696273011 
1253	 0.312640835981408 
1254	 0.312800249216377 
1255	 0.312901390803329 
1256	 0.312955377827978 
1257	 0.313001726246304 
1258	 0.31303828853249 
1259	 0.313082893486262 
1260	 0.313076516988353 
1261	 0.313118302712284 
1262	 0.313234380133332 
1263	 0.313276010114482 
1264	 0.313264920884361 
1265	 0.31329976543063 
1266	 0.313332221614189 
1267	 0.313352149325369 
1268	 0.313411767828484 
1269	 0.313439298759505 
1270	 0.313397191984315 
1271	 0.313399515326683 
1272	 0.313472854520641 
1273	 0.313446868315519 
1274	 0.313472992552104 
1275	 0.313518964709002 
1276	 0.313550491612856 
1277	 0.313578367909102 
1278	 0.313597644175965 
1279	 0.313615730647309 
1280	 0.313626933488222 
1281	 0.313637236807929 
1282	 0.313621796863542 
1283	 0.31360216295476 
1284	 0.313558822884216 
1285	 0.313496285733611 
1286	 0.313407955147606 
1287	 0.313267536798484 
1288	 0.313172822713604 
1289	 0.313065186771724 
1290	 0.312980390811823 
1291	 0.312961385171787 
1292	 0.312896007105069 
1293	 0.312840509552613 
1294	 0.312730784195938 
1295	 0.312564052091481 
1296	 0.312406661168409 
1297	 0.312197915369241 
1298	 0.311935238720192 
1299	 0.311681092699944 
1300	 0.311414901222108 
1301	 0.31111498064704 
1302	 0.310840289786722 
1303	 0.31041618287057 
1304	 0.309854029031955 
1305	 0.309379460329352 
1306	 0.308846614234767 
1307	 0.30832595442623 
1308	 0.307924110577532 
1309	 0.307360041243671 
1310	 0.306663437907773 
1311	 0.305981042092527 
1312	 0.305295132346526 
1313	 0.30449461580717 
1314	 0.3036149090905 
1315	 0.30272192798903 
1316	 0.301702860587821 
1317	 0.300718649985189 
1318	 0.299743830083612 
1319	 0.298760892206781 
1320	 0.297732830654598 
1321	 0.296725709375312 
1322	 0.2957577200726 
1323	 0.294757163578723 
1324	 0.293905940320513 
1325	 0.293206099154177 
1326	 0.292304292026115 
1327	 0.291446354382083 
1328	 0.290416195005616 
1329	 0.28913998349018 
1330	 0.28794476314235 
1331	 0.286725785070946 
1332	 0.285506373592972 
1333	 0.284310628245965 
1334	 0.283050130958519 
1335	 0.281665435267729 
1336	 0.280464010031964 
1337	 0.27907652620557 
1338	 0.278101950887951 
1339	 0.27751565057551 
1340	 0.276864433311556 
1341	 0.276272691092317 
1342	 0.275943925422506 
1343	 0.275684754992779 
1344	 0.275673150593595 
1345	 0.2762084063696 
1346	 0.277121345455698 
1347	 0.278075170762369 
1348	 0.27938911132635 
1349	 0.280829122318076 
1350	 0.282652710610491 
1351	 0.284966403085988 
1352	 0.288435750135105 
1353	 0.29163729069906 
1354	 0.294720610608553 
1355	 0.299055810001108 
1356	 0.300799058281699 
1357	 0.305892293190445 
1358	 0.312354072577979 
1359	 0.322785302253852 
1360	 0.333885817478062 
1361	 0.347147738467164 
1362	 0.347704531033047 
1363	 0.35313339753178 
1364	 0.338706037565925 
1365	 0.328427904693961 
1366	 0.319469344039852 
1367	 0.31512806718042 
1368	 0.309422619415156 
1369	 0.3090479249323 
1370	 0.321268753254377 
1371	 0.320276405086426 
1372	 0.315026190977458 
1373	 0.310575939436351 
1374	 0.301417802406846 
1375	 0.291992025132517 
1376	 0.290859000973363 
1377	 0.288001043044418 
1378	 0.28494376518814 
1379	 0.285634493642471 
1380	 0.277425522905098 
1381	 0.262487261524338 
1382	 0.252880618475307 
1383	 0.24219083149097 
1384	 0.232618153272031 
1385	 0.228409582084438 
1386	 0.219912911786051 
1387	 0.208051491259242 
1388	 0.201716340791194 
1389	 0.198514494316417 
1390	 0.192814175064712 
1391	 0.189995499372714 
1392	 0.182712407295723 
1393	 0.169562702481079 
1394	 0.162742679738206 
1395	 0.157684119622415 
1396	 0.151834781336062 
1397	 0.148727633492151 
1398	 0.144199474847866 
1399	 0.137509186945636 
1400	 0.13234174544543 
1401	 0.128822722773409 
1402	 0.124240680630776 
1403	 0.119176600481433 
1404	 0.114885713826912 
1405	 0.110861562940263 
1406	 0.107305874254174 
1407	 0.104806778493049 
1408	 0.102300857399111 
1409	 9.85609185901338E-02 
1410	 9.50494144631165E-02 
1411	 9.22627901066593E-02 
1412	 8.94486716627132E-02 
1413	 8.70592210341379E-02 
1414	 8.50758548932439E-02 
1415	 8.36424955008219E-02 
1416	 0.082235833515802 
1417	 8.11180883531989E-02 
1418	 8.09957564761263E-02 
1419	 7.96470212660905E-02 
1420	 7.76046767504493E-02 
1421	 7.63474366018207E-02 
1422	 7.49209014582057E-02 
1423	 7.38299247583232E-02 
1424	 7.32425998597197E-02 
1425	 0.072454633896957 
1426	 7.13899574410226E-02 
1427	 7.07220781311271E-02 
1428	 7.03274847437324E-02 
1429	 6.97672535239391E-02 
1430	 6.91810802199747E-02 
1431	 6.87221031119678E-02 
1432	 6.82049895197805E-02 
1433	 0.067780942695169 
1434	 6.75646588051214E-02 
1435	 6.72954849661788E-02 
1436	 6.70774930770703E-02 
1437	 6.67384434416098E-02 
1438	 6.62454576446212E-02 
1439	 6.59176157235936E-02 
1440	 6.57093927274348E-02 
1441	 0.065382715721878 
1442	 6.50864982466546E-02 
1443	 6.47963006934502E-02 
1444	 6.45607139168576E-02 
1445	 6.42086128890156E-02 
1446	 6.38460431335907E-02 
1447	 6.35514528728945E-02 
1448	 6.32231536854541E-02 
1449	 6.26874694773695E-02 
1450	 0.062559167426207 
1451	 6.26949554104386E-02 
1452	 6.26073070162306E-02 
1453	 6.25724162824386E-02 
1454	 0.062483460734729 
1455	 6.21925456989043E-02 
1456	 6.21629922352569E-02 
1457	 6.23186726099425E-02 
1458	 6.23587370080247E-02 
1459	 6.24255342633242E-02 
1460	 6.25066270002378E-02 
1461	 6.24895606254447E-02 
1462	 6.26318604466086E-02 
1463	 6.28525191437655E-02 
1464	 6.32036807190099E-02 
1465	 6.37412236296412E-02 
1466	 6.42437939679551E-02 
1467	 6.49075266627916E-02 
1468	 0.065442658201315 
1469	 6.59294771234662E-02 
1470	 0.06637897420721 
1471	 6.66768288546894E-02 
1472	 6.70712663049146E-02 
1473	 6.74202823193807E-02 
1474	 6.77888788204692E-02 
1475	 0.068158881503739 
1476	 6.86094443382142E-02 
1477	 6.90594529285148E-02 
1478	 6.95664619109773E-02 
1479	 7.02343773636319E-02 
1480	 7.07459126359718E-02 
1481	 7.11513167705017E-02 
1482	 7.16220606930158E-02 
1483	 7.20102867535734E-02 
1484	 0.072467360296234 
1485	 7.30535416277242E-02 
1486	 7.35497694010635E-02 
1487	 7.40114260757547E-02 
1488	 7.44414349515786E-02 
1489	 0.074841532364544 
1490	 7.52214187338404E-02 
1491	 7.56385851649708E-02 
1492	 7.61070919256367E-02 
1493	 7.66325959262048E-02 
1494	 0.077220983202691 
1495	 7.78220568508619E-02 
1496	 7.85203933029361E-02 
1497	 7.90801475015353E-02 
1498	 7.95891418918046E-02 
1499	 8.01878415145455E-02 
1500	 8.07499270071415E-02 
1501	 8.14147458777902E-02 
1502	 8.22037894568089E-02 
1503	 8.29506419491963E-02 
1504	 8.37034350239172E-02 
1505	 0.084461520780699 
1506	 8.52501625412707E-02 
1507	 8.59886586756958E-02 
1508	 8.66890541793578E-02 
1509	 0.087440018559938 
1510	 0.088191196562759 
1511	 8.89469968395405E-02 
1512	 8.97805958160628E-02 
1513	 9.04962263473039E-02 
1514	 9.11158754819874E-02 
1515	 9.18353989172118E-02 
1516	 9.25488000068235E-02 
1517	 9.32798543467027E-02 
1518	 0.094071554934242 
1519	 9.48692749896692E-02 
1520	 9.56704980768215E-02 
1521	 9.64673536801117E-02 
1522	 9.73018331217763E-02 
1523	 9.81226175640968E-02 
1524	 9.89633668808868E-02 
1525	 9.97195681979111E-02 
1526	 0.100412331345576 
1527	 0.101178727242251 
1528	 0.101889751639666 
1529	 0.102663283147979 
1530	 0.103542941017867 
1531	 0.104391946224693 
1532	 0.105285315686946 
1533	 0.106089863844165 
1534	 0.106852753517602 
1535	 0.107624353351213 
1536	 0.108279771197767 
1537	 0.109042541328307 
1538	 0.109900712919604 
1539	 0.110731849698954 
1540	 0.111585360866034 
1541	 0.112442347462614 
1542	 0.113353807276413 
1543	 0.114169111203576 
1544	 0.114915232442783 
1545	 0.115703497727166 
1546	 0.116399890271387 
1547	 0.117181921844783 
1548	 0.118120364330202 
1549	 0.118952246106778 
1550	 0.119731059732183 
1551	 0.120539929724024 
1552	 0.121319605983335 
1553	 0.122092110816973 
1554	 0.122904238621107 
1555	 0.123691187403427 
1556	 0.124437412010015 
1557	 0.125179973278921 
1558	 0.125874836345417 
1559	 0.126635873043957 
1560	 0.127437332952339 
1561	 0.128230086898072 
1562	 0.129189011562024 
1563	 0.12996675473946 
1564	 0.130639109194971 
1565	 0.131208365570499 
1566	 0.131845724395163 
1567	 0.132460728055616 
1568	 0.133153480572504 
1569	 0.133970662334545 
1570	 0.13472038550261 
1571	 0.135443011893515 
1572	 0.136175276097157 
1573	 0.136923228154561 
1574	 0.137678583041019 
1575	 0.138436939390565 
1576	 0.139108645504005 
1577	 0.139760744259442 
1578	 0.14040019720553 
1579	 0.140898486976623 
1580	 0.141613528733441 
1581	 0.142479803909719 
1582	 0.143157554520259 
1583	 0.143866384401353 
1584	 0.144459516218624 
1585	 0.144866827777862 
1586	 0.145451965745109 
1587	 0.14611356272941 
1588	 0.146678491851474 
1589	 0.147229598073536 
1590	 0.147839940468268 
1591	 0.148408870483257 
1592	 0.149039805240744 
1593	 0.149796509534782 
1594	 0.150421011082893 
1595	 0.151001998971765 
1596	 0.15154756160146 
1597	 0.152053797629216 
1598	 0.152547008641395 
1599	 0.152938715281793 
1600	 0.15351176131399 
1601	 0.15419935897441 
1602	 0.15473503890341 
1603	 0.155304622618313 
1604	 0.155837859629588 
1605	 0.156247546107303 
1606	 0.156696030973316 
1607	 0.157174607150819 
1608	 0.157692232125827 
1609	 0.158184954189349 
1610	 0.158655355111569 
1611	 0.159170868329513 
1612	 0.159707424169896 
1613	 0.160206792895647 
1614	 0.160675182216764 
1615	 0.161232579036637 
1616	 0.16166031218503 
1617	 0.161920668768006 
1618	 0.162312108875152 
1619	 0.162745297814805 
1620	 0.163157822443226 
1621	 0.163607952618391 
1622	 0.163988870235183 
1623	 0.164311444279871 
1624	 0.164711570822849 
1625	 0.165121552711282 
1626	 0.165507870207352 
1627	 0.165932157693432 
1628	 0.166334705900581 
1629	 0.166714248205592 
1630	 0.167066634604991 
1631	 0.167437543600183 
1632	 0.167766767171884 
1633	 0.168002517645613 
1634	 0.168331367349443 
1635	 0.168729865866832 
1636	 0.169051426265198 
1637	 0.169401439949615 
1638	 0.169636341268207 
1639	 0.169740858855009 
1640	 0.169956350028872 
1641	 0.170170567630256 
1642	 0.170365688578113 
1643	 0.170596252115829 
1644	 0.170817956130149 
1645	 0.170964581646599 
1646	 0.171232477260686 
1647	 0.171639671564534 
1648	 0.171851712754668 
1649	 0.172021380463715 
1650	 0.172160693495383 
1651	 0.172156773376202 
1652	 0.172292174398385 
1653	 0.17249887719725 
1654	 0.172676703307468 
1655	 0.172893592615994 
1656	 0.173032992592973 
1657	 0.173169186569036 
1658	 0.17310299172584 
1659	 0.17305826880787 
1660	 0.172978842743749 
1661	 0.173015088312384 
1662	 0.173266136171745 
1663	 0.173498147004142 
1664	 0.173830508339392 
1665	 0.174001547581859 
1666	 0.173975387103625 
1667	 0.174008685573798 
1668	 0.173919861892633 
1669	 0.173963703303447 
1670	 0.174074846001679 
1671	 0.174108957437947 
1672	 0.174270014023536 
1673	 0.174307957253756 
1674	 0.1742790657539 
1675	 0.174309901996898 
1676	 0.174155626437664 
1677	 0.174023461016804 
1678	 0.174121873209922 
1679	 0.174169568438097 
1680	 0.174229023352873 
1681	 0.174210754206013 
1682	 0.173952708127202 
1683	 0.173780433779923 
1684	 0.173531678022705 
1685	 0.173414700278361 
1686	 0.173482276438735 
1687	 0.173306500199952 
1688	 0.173203579952879 
1689	 0.173093256328674 
1690	 0.172912175398371 
1691	 0.172691036528312 
1692	 0.172350919387834 
1693	 0.172156637182192 
1694	 0.172060876792262 
1695	 0.171849027076745 
1696	 0.171681627436606 
1697	 0.17149548542681 
1698	 0.17121606251838 
1699	 0.170892204236864 
1700	 0.17056652488924 
1701	 0.170245548897334 
1702	 0.169697165899615 
1703	 0.169443400028846 
1704	 0.169472589250836 
1705	 0.169368384354382 
1706	 0.169448040082778 
1707	 0.169277342722537 
1708	 0.16888510806089 
1709	 0.168534073857344 
1710	 0.167978593602244 
1711	 0.167686008226574 
1712	 0.167569499417388 
1713	 0.167381481140301 
1714	 0.167413303803173 
1715	 0.16717444297882 
1716	 0.166760750800357 
1717	 0.166241931064488 
1718	 0.165424136428904 
1719	 0.164908519118126 
1720	 0.164397232923734 
1721	 0.164090030400729 
1722	 0.164154466797605 
1723	 0.163864564404444 
1724	 0.163542065598323 
1725	 0.163058402677584 
1726	 0.162279685688229 
1727	 0.161738658974263 
1728	 0.161182462968293 
1729	 0.160714901656413 
1730	 0.160425406884308 
1731	 0.16010449276305 
1732	 0.159719810874356 
1733	 0.159522191520476 
1734	 0.15910229753679 
1735	 0.158665628661394 
1736	 0.158376012807517 
1737	 0.158087999549255 
1738	 0.157851057177793 
1739	 0.157539561482019 
1740	 0.157223245909845 
1741	 0.156674433809387 
1742	 0.155948440647678 
1743	 0.155503084178691 
1744	 0.154974341451165 
1745	 0.154396807662919 
1746	 0.153945649109571 
1747	 0.153392753375864 
1748	 0.152861664493654 
1749	 0.152411893876406 
1750	 0.151945687319163 
1751	 0.151253845665303 
1752	 0.150518607436644 
1753	 0.149793374563246 
1754	 0.148998010027153 
1755	 0.148518029257043 
1756	 0.147952213850288 
1757	 0.147298588390231 
1758	 0.146809784161197 
1759	 0.146260549466117 
1760	 0.145763210363678 
1761	 0.145456213386495 
1762	 0.145014254798314 
1763	 0.144459783459834 
1764	 0.144051644479328 
1765	 0.143688462131376 
1766	 0.143306604401953 
1767	 0.142993683293443 
1768	 0.142609666449687 
1769	 0.142217782911312 
1770	 0.141904832738915 
1771	 0.141543038690275 
1772	 0.141419059102575 
1773	 0.141430494384516 
1774	 0.141334960646723 
1775	 0.141208122382968 
1776	 0.140842924133807 
1777	 0.140685021875049 
1778	 0.140659696007858 
1779	 0.140573761423591 
1780	 0.140658384898379 
1781	 0.140932481459105 
1782	 0.14075351509962 
1783	 0.140491366508901 
1784	 0.140326746674328 
1785	 0.13995122414763 
1786	 0.13991758581377 
1787	 0.140423787408954 
1788	 0.140951256868441 
1789	 0.141212944385091 
1790	 0.141572816005825 
1791	 0.141617893264401 
1792	 0.1414501079295 
1793	 0.141624153811942 
1794	 0.141966610626705 
1795	 0.142184518294928 
1796	 0.142257612368162 
1797	 0.142675311557199 
1798	 0.143605931067696 
1799	 0.145128134649778 
1800	 0.146800695608323 
1801	 0.149317156654805 
1802	 0.15172624494221 
1803	 0.152605266808275 
1804	 0.15142398056291 
1805	 0.152400549942932 
1806	 0.154138807083144 
1807	 0.155280343843716 
1808	 0.15702915615731 
1809	 0.16022806568519 
1810	 0.161285226136711 
1811	 0.15911918981047 
1812	 0.160706603823689 
1813	 0.164784030956283 
1814	 0.166249689909662 
1815	 0.168037188633434 
1816	 0.17014778157861 
1817	 0.169708303580494 
1818	 0.170122578143866 
1819	 0.171119575774378 
1820	 0.17463365588449 
1821	 0.177169113890843 
1822	 0.178599247327833 
1823	 0.180567821737179 
1824	 0.184609964610255 
1825	 0.187701789452844 
1826	 0.190895519352467 
1827	 0.192182351888283 
1828	 0.191906617127661 
1829	 0.189363565185953 
1830	 0.18710858731787 
1831	 0.169549635142875 
1832	 0.173514877700802 
1833	 0.21134415328848 
1834	 0.24075045452276 
1835	 0.310261094383587 
1836	 0.364169368157503 
1837	 0.338882825883167 
1838	 0.341790353936556 
1839	 0.341137896391415 
1840	 0.330043151672184 
1841	 0.321951741251061 
1842	 0.329893219958729 
1843	 0.310182690751932 
1844	 0.269074993153666 
1845	 0.244405190153188 
1846	 0.19344604984721 
1847	 0.174693702018991 
1848	 0.170435077459756 
1849	 0.194717413108109 
1850	 0.185732041414746 
1851	 0.170409629198948 
1852	 0.170103075964846 
1853	 0.144680666801399 
1854	 0.155209858569435 
1855	 0.212861165032917 
1856	 0.250257807005436 
1857	 0.320608905464501 
1858	 0.30669557369066 
1859	 0.296194071331345 
1860	 0.272011395171488 
1861	 0.252720172435085 
1862	 0.194558935098673 
1863	 0.185830652561247 
1864	 0.21506512708036 
1865	 0.218013143222363 
1866	 0.240102111894676 
1867	 0.239701089019692 
1868	 0.197113751118041 
1869	 0.16581867354709 
1870	 0.158594624027415 
1871	 0.174479771985978 
1872	 0.172749601924141 
1873	 0.189994492589942 
1874	 0.186016447794119 
1875	 0.179816398423342 
1876	 0.159091528932606 
1877	 0.131577746485945 
1878	 0.110310938507466 
1879	 9.96199489833065E-02 
1880	 7.61488141574329E-02 
1881	 7.96256523335203E-02 
1882	 0.105036449004964 
1883	 0.111974624846139 
1884	 0.127488977764548 
1885	 0.128557919772433 
1886	 0.121286279997199 
1887	 0.10708445151901 
1888	 9.27661552603177E-02 
1889	 7.56499015901276E-02 
1890	 6.72636113584796E-02 
1891	 6.12119617267814E-02 
1892	 5.92280518225056E-02 
1893	 6.30332047412616E-02 
1894	 6.53531599313833E-02 
1895	 7.69293902278603E-02 
1896	 7.66343107683115E-02 
1897	 6.68943181519777E-02 
1898	 0.061707148640143 
1899	 5.57714588778227E-02 
1900	 4.00419762943167E-02 
1901	 3.51277545144983E-02 
1902	 4.47625829470461E-02 
1903	 6.46160430476693E-02 
1904	 0.118541291313892 
1905	 0.136303161428875 
1906	 0.167365724726386 
1907	 0.133646577925493 
1908	 8.53720136275314E-02 
1909	 6.42206047963697E-02 
1910	 4.54604519251206E-02 
1911	 4.77642626317819E-02 
1912	 4.44805888015705E-02 
1913	 4.33699368967619E-02 
1914	 3.64804764200412E-02 
1915	 2.53856612894364E-02 
1916	 2.57666759775869E-02 
1917	 2.95830156276641E-02 
1918	 0.030479793090538 
1919	 3.42346202281128E-02 
1920	 0.039184466490039 
1921	 3.60403370812877E-02 
1922	 3.32102377283088E-02 
1923	 3.28301356016844E-02 
1924	 3.25384420665586E-02 
1925	 3.35664040976251E-02 
1926	 3.60296051285793E-02 
1927	 3.74694884967132E-02 
1928	 0.041278863023947 
1929	 4.06620899809296E-02 
1930	 3.55835513425837E-02 
1931	 3.26875464934398E-02 
1932	 2.58920220986653E-02 
1933	 2.06278184491853E-02 
1934	 1.96919150071242E-02 
1935	 2.25360315194892E-02 
1936	 0.023288601585317 
1937	 2.63338072045317E-02 
1938	 2.60567268115367E-02 
1939	 2.39433940290855E-02 
1940	 2.20221509154795E-02 
1941	 2.14316312554842E-02 
1942	 2.00293159299457E-02 
1943	 1.88904237957634E-02 
1944	 2.06104251457812E-02 
1945	 2.14885355756682E-02 
1946	 2.21812778481568E-02 
1947	 2.27861582530938E-02 
1948	 2.35520750552886E-02 
1949	 2.37264712449302E-02 
1950	 2.30343418220795E-02 
1951	 2.37870518967906E-02 
1952	 2.38777116345363E-02 
1953	 2.43522129267581E-02 
1954	 2.45181277679756E-02 
1955	 2.37789167742194E-02 
1956	 2.39605076187538E-02 
1957	 2.36843164619121E-02 
1958	 2.36323328719556E-02 
1959	 2.40459712325539E-02 
1960	 2.38991979612282E-02 
1961	 2.34586814153931E-02 
1962	 2.31128535144446E-02 
1963	 0.023194543573477 
1964	 2.32056588743425E-02 
1965	 2.21469430608276E-02 
1966	 2.19896597556632E-02 
1967	 2.25426949529493E-02 
1968	 2.22907478268102E-02 
1969	 2.23658789280213E-02 
1970	 2.33175350601412E-02 
1971	 2.36827350370535E-02 
1972	 2.35114542290805E-02 
1973	 2.35000322028306E-02 
1974	 0.024286698729773 
1975	 2.48082905610732E-02 
1976	 2.45842191334745E-02 
1977	 2.42773238852073E-02 
1978	 2.39955351187886E-02 
1979	 0.02346084772125 
1980	 2.33238401986876E-02 
1981	 2.38408547955654E-02 
1982	 2.41593219230813E-02 
1983	 2.44604101866836E-02 
1984	 2.48801986250761E-02 
1985	 2.55630408141635E-02 
1986	 2.58430161066883E-02 
1987	 2.59776944465777E-02 
1988	 2.60221029082941E-02 
1989	 2.55750213368007E-02 
1990	 0.025362506306535 
1991	 2.52796560338266E-02 
1992	 2.52670297343965E-02 
1993	 2.61395223909658E-02 
1994	 2.68964220306205E-02 
1995	 2.74410743598599E-02 
1996	 0.028141925373651 
1997	 2.89269398738052E-02 
1998	 2.86271437680502E-02 
1999	 2.83215817145477E-02 
2000	 2.87465507234178E-02 
2001	 2.92570246904025E-02 
2002	 3.01923620629883E-02 
2003	 3.13764335651288E-02 
2004	 3.22670467891363E-02 
2005	 3.27511120289807E-02 
2006	 3.28944679493586E-02 
2007	 3.24685905040175E-02 
2008	 0.032445884670379 
2009	 0.032326282820828 
2010	 0.031963332334016 
2011	 3.22851557245637E-02 
2012	 3.23159366352198E-02 
2013	 3.20617127243774E-02 
2014	 3.24052258244404E-02 
2015	 3.31209811549408E-02 
2016	 3.38674301027694E-02 
2017	 3.40446544496744E-02 
2018	 3.35681828103923E-02 
2019	 3.34734299147775E-02 
2020	 3.29930701583976E-02 
2021	 0.033075213642942 
2022	 3.38640533706007E-02 
2023	 3.45008052469189E-02 
2024	 3.47925742911479E-02 
2025	 3.48516183270174E-02 
2026	 3.48916374790304E-02 
2027	 0.035169807765625 
2028	 3.54489361740384E-02 
2029	 3.57065642472854E-02 
2030	 3.60422955272344E-02 
2031	 3.63317636185201E-02 
2032	 3.65273651627174E-02 
2033	 3.68270231242993E-02 
2034	 3.71558204178367E-02 
2035	 3.73283423970377E-02 
2036	 3.71731262807653E-02 
2037	 3.71964004955428E-02 
2038	 3.74408103815615E-02 
2039	 3.75689262906233E-02 
2040	 3.80085752373339E-02 
2041	 3.83805436057276E-02 
2042	 3.88383013149975E-02 
2043	 3.91704053918157E-02 
2044	 3.91870715043931E-02 
2045	 3.95290314165252E-02 
2046	 4.02136858152007E-02 
2047	 4.06481641022409E-02 
2048	 4.10994982251214E-02 
2049	 4.15845633842203E-02 
2050	 4.17257145921774E-02 
2051	 4.21550202965675E-02 
2052	 4.20257450076394E-02 
2053	 4.19008331487235E-02 
2054	 0.042525158864767 
2055	 4.27445621834986E-02 
2056	 4.31519842336444E-02 
2057	 0.044044609515594 
2058	 4.50171001360927E-02 
2059	 4.55393251406683E-02 
2060	 4.60177828093856E-02 
2061	 4.57542429136107E-02 
2062	 4.50548038105211E-02 
2063	 4.44695918252792E-02 
2064	 4.42062007515536E-02 
2065	 4.44956965616848E-02 
2066	 4.54684256616698E-02 
2067	 4.57125845219568E-02 
2068	 4.51626842259767E-02 
2069	 4.57705315908027E-02 
2070	 0.046240263064251 
2071	 4.62369042170628E-02 
2072	 4.66340913049869E-02 
2073	 4.75010924227795E-02 
2074	 4.76635400643404E-02 
2075	 0.047653972389365 
2076	 4.83505526028264E-02 
2077	 4.86991312218561E-02 
2078	 4.86917617553625E-02 
2079	 4.91353133682744E-02 
2080	 4.93694847260721E-02 
2081	 4.96094546245136E-02 
2082	 5.00322935022689E-02 
2083	 5.04008826576704E-02 
2084	 5.06628848234268E-02 
2085	 5.08296872277435E-02 
2086	 0.051103363666997 
2087	 5.13831012444259E-02 
2088	 5.14772648186326E-02 
2089	 5.20422790940692E-02 
2090	 5.26634217416152E-02 
2091	 0.053037734764171 
2092	 5.36162237978855E-02 
2093	 5.37702066249535E-02 
2094	 5.38942298729056E-02 
2095	 5.45235135708849E-02 
2096	 5.47800859361594E-02 
2097	 5.49777269547949E-02 
2098	 5.54082944891394E-02 
2099	 5.54394002571005E-02 
2100	 5.57397629516836E-02 
2101	 5.62992854882434E-02 
2102	 5.67411018212559E-02 
2103	 5.72218168297414E-02 
2104	 5.75810107414922E-02 
2105	 5.79205451259332E-02 
2106	 5.82186461212361E-02 
2107	 0.058451613177253 
2108	 5.89849008130573E-02 
2109	 5.92351178276493E-02 
2110	 5.95855010309613E-02 
2111	 6.00933481631537E-02 
2112	 6.02777856922369E-02 
2113	 6.08212396293254E-02 
2114	 6.14629210494381E-02 
2115	 6.13759932859003E-02 
2116	 6.13510085434804E-02 
2117	 0.061507849900267 
2118	 6.13638104290796E-02 
2119	 6.14300027252215E-02 
2120	 0.061753724706913 
2121	 6.24100254228974E-02 
2122	 6.26948177083188E-02 
2123	 6.32123653800107E-02 
2124	 6.37504688459845E-02 
2125	 6.38695891228561E-02 
2126	 6.39523304836035E-02 
2127	 6.41357923162767E-02 
2128	 6.41658026436167E-02 
2129	 0.064370221043561 
2130	 6.45214050714011E-02 
2131	 6.41770112476827E-02 
2132	 6.38239359781317E-02 
2133	 6.34450382896928E-02 
2134	 6.34247426910476E-02 
2135	 6.34644193573206E-02 
2136	 6.41022101440768E-02 
2137	 6.49317222469194E-02 
2138	 6.56664079154729E-02 
2139	 6.62340936866767E-02 
2140	 6.63953947153124E-02 
2141	 0.066468980871481 
2142	 6.67516650804741E-02 
2143	 6.70498105427487E-02 
2144	 6.74970766437349E-02 
2145	 6.75426755560302E-02 
2146	 6.74965984059103E-02 
2147	 6.76106736867058E-02 
2148	 6.74479730992146E-02 
2149	 6.78361208680195E-02 
2150	 0.068537502309967 
2151	 6.90321021998739E-02 
2152	 6.96021300411108E-02 
2153	 0.069997789452596 
2154	 7.02252865678694E-02 
2155	 7.04750260275227E-02 
2156	 0.07076921659751 
2157	 7.10003483785403E-02 
2158	 7.13467407280961E-02 
2159	 7.13717693894659E-02 
2160	 7.12515425990995E-02 
2161	 7.14032383599307E-02 
2162	 7.14785849413097E-02 
2163	 7.18211576642008E-02 
2164	 0.071992599907403 
2165	 7.17078729120548E-02 
2166	 7.18290274294176E-02 
2167	 7.19260432398897E-02 
2168	 7.20504826470123E-02 
2169	 7.25218831364691E-02 
2170	 7.27775193073131E-02 
2171	 7.30147468390581E-02 
2172	 7.27691004940918E-02 
2173	 7.25089185009734E-02 
2174	 7.26386530148834E-02 
2175	 7.28436104750763E-02 
2176	 7.28270177112822E-02 
2177	 0.072725962755296 
2178	 7.26429606123487E-02 
2179	 7.26309993896829E-02 
2180	 7.31930951692981E-02 
2181	 0.074268974175677 
2182	 7.46032883090199E-02 
2183	 7.43895916704898E-02 
2184	 7.41038378365634E-02 
2185	 7.35704167119503E-02 
2186	 7.36019536983825E-02 
2187	 7.35744963741396E-02 
2188	 7.35392802152365E-02 
2189	 7.36940351645341E-02 
2190	 7.41233679113468E-02 
2191	 7.41095322874385E-02 
2192	 7.44650970678596E-02 
2193	 7.50097657581039E-02 
2194	 7.49321791847982E-02 
2195	 7.53214244130714E-02 
2196	 7.53661746611711E-02 
2197	 7.49016280168678E-02 
2198	 7.47899139878866E-02 
2199	 7.48935642210705E-02 
2200	 7.55765888657371E-02 
2201	 7.63378955155794E-02 
2202	 7.65407072398142E-02 
2203	 7.60415347118104E-02 
2204	 7.57888690783436E-02 
2205	 7.58876003526609E-02 
2206	 7.59919524936943E-02 
2207	 7.66366289423254E-02 
2208	 7.67840586863855E-02 
2209	 7.61120615321404E-02 
2210	 0.075931411184222 
2211	 7.59302995419266E-02 
2212	 7.57499625112425E-02 
2213	 7.59706109423001E-02 
2214	 7.58993783783536E-02 
2215	 7.53166973124916E-02 
2216	 0.075209380813189 
2217	 7.47306748175407E-02 
2218	 7.43474428444026E-02 
2219	 7.45916056345595E-02 
2220	 7.41213546611137E-02 
2221	 7.38039756318713E-02 
2222	 7.38880858723848E-02 
2223	 7.40821617063252E-02 
2224	 7.52296338577708E-02 
2225	 7.63077534390783E-02 
2226	 7.65233749036084E-02 
2227	 7.62545049563992E-02 
2228	 7.56455203720817E-02 
2229	 7.49584456268697E-02 
2230	 7.50047451131279E-02 
2231	 7.49981760500547E-02 
2232	 7.53400128700617E-02 
2233	 7.52627827598823E-02 
2234	 7.51633250638265E-02 
2235	 7.46488997024137E-02 
2236	 7.41372628997421E-02 
2237	 7.43654604201293E-02 
2238	 7.49504748398539E-02 
2239	 7.49888345000463E-02 
2240	 7.46979603835437E-02 
2241	 7.42306687462016E-02 
2242	 7.29020722509889E-02 
2243	 7.25465624335409E-02 
2244	 7.27865655305018E-02 
2245	 7.25019839712306E-02 
2246	 7.26708289706387E-02 
2247	 0.071965555067022 
2248	 7.09298854812187E-02 
2249	 7.04850934257539E-02 
2250	 7.01399249837383E-02 
2251	 7.00303606331706E-02 
2252	 6.95228557671051E-02 
2253	 6.93861844259797E-02 
2254	 6.88804968541167E-02 
2255	 0.068463126807517 
2256	 6.85080963880093E-02 
2257	 6.92277784871435E-02 
2258	 6.91396583766877E-02 
2259	 6.92999768805574E-02 
2260	 6.93101070637678E-02 
2261	 6.87887852257557E-02 
2262	 6.83130544989154E-02 
2263	 0.067420665721529 
2264	 6.64759377750699E-02 
2265	 6.60430587693833E-02 
2266	 6.55705630678058E-02 
2267	 6.56990701681052E-02 
2268	 6.68394668129131E-02 
2269	 6.68119507177811E-02 
2270	 6.67497672600373E-02 
2271	 6.69195560071973E-02 
2272	 0.065739114878331 
2273	 6.52452786206349E-02 
2274	 6.55412526912181E-02 
2275	 6.48483836706111E-02 
2276	 0.064514476880019 
2277	 6.49274700610299E-02 
2278	 6.44085150301884E-02 
2279	 6.41377677346349E-02 
2280	 6.44368432935609E-02 
2281	 0.064459662888513 
2282	 6.42374614223001E-02 
2283	 6.41102202192615E-02 
2284	 6.37319217808066E-02 
2285	 6.26215171035189E-02 
2286	 0.062046600387149 
2287	 0.06171218118955 
2288	 6.14817721995421E-02 
2289	 6.10055125869141E-02 
2290	 6.07585391221228E-02 
2291	 6.07403552536765E-02 
2292	 6.08974727646738E-02 
2293	 6.10698207386522E-02 
2294	 6.11680571535917E-02 
2295	 6.01830207414783E-02 
2296	 5.89291910086396E-02 
2297	 5.81289508875266E-02 
2298	 5.73608265535131E-02 
2299	 5.80293053377199E-02 
2300	 5.87004988343394E-02 
2301	 5.84503633828597E-02 
2302	 5.84643549036241E-02 
2303	 5.74594541864336E-02 
2304	 5.63251194228318E-02 
2305	 5.64669340444929E-02 
2306	 5.66507730826087E-02 
2307	 5.56456657853381E-02 
2308	 5.50742753995322E-02 
2309	 5.47655108301003E-02 
2310	 5.41538266151073E-02 
2311	 5.49902382621874E-02 
2312	 5.51689254812777E-02 
2313	 5.44863432521445E-02 
2314	 5.48649446879053E-02 
2315	 5.49472733238803E-02 
2316	 5.51133837876409E-02 
2317	 5.56584190289179E-02 
2318	 5.49610678457383E-02 
2319	 5.46441270103827E-02 
2320	 5.51291667264557E-02 
2321	 5.48904387102498E-02 
2322	 5.39255699454736E-02 
2323	 5.39063504406419E-02 
2324	 5.41912047426373E-02 
2325	 5.40186493799213E-02 
2326	 5.38404433538396E-02 
2327	 5.43914210820303E-02 
2328	 5.34640123735477E-02 
2329	 5.22915395159614E-02 
2330	 5.19245015009774E-02 
2331	 5.17164079475574E-02 
2332	 5.12987864458658E-02 
2333	 5.09686958253928E-02 
2334	 5.08174058664537E-02 
2335	 5.00669759679806E-02 
2336	 0.049575928706998 
2337	 4.88931923195976E-02 
2338	 4.89729008708596E-02 
2339	 0.050053860648089 
2340	 5.03207714127017E-02 
2341	 5.02796904833572E-02 
2342	 4.86411951935288E-02 
2343	 4.57404234489899E-02 
2344	 4.47541850413845E-02 
2345	 4.39934498258051E-02 
2346	 4.32244415057292E-02 
2347	 0.043982780854143 
2348	 4.43552463132724E-02 
2349	 4.33587749372019E-02 
2350	 4.32789329666884E-02 
2351	 4.46174258629219E-02 
2352	 4.44902522472239E-02 
2353	 4.58258473356397E-02 
2354	 4.83847019057878E-02 
2355	 4.76285002468148E-02 
2356	 4.66415597528664E-02 
2357	 4.59977261152927E-02 
2358	 4.40153055342222E-02 
2359	 4.35207676546144E-02 
2360	 4.42224280853805E-02 
2361	 4.48194615895053E-02 
2362	 4.55620449873873E-02 
2363	 4.55321873601666E-02 
2364	 4.49441073443002E-02 
2365	 4.28924244571016E-02 
2366	 4.05995039721142E-02 
2367	 4.11201358255858E-02 
2368	 4.01300467654454E-02 
2369	 3.87442808973326E-02 
2370	 3.89814580909093E-02 
2371	 3.61865167649818E-02 
2372	 3.62590378583621E-02 
2373	 3.99229933610016E-02 
2374	 4.11678637134636E-02 
2375	 4.27590337917943E-02 
2376	 4.33148709769681E-02 
2377	 0.041060158959746 
2378	 4.02496530454044E-02 
2379	 0.040367445905642 
2380	 4.03049422696405E-02 
2381	 4.09567585110793E-02 
2382	 4.06118888310459E-02 
2383	 3.88231276816029E-02 
2384	 3.92741720082825E-02 
2385	 0.040378421057287 
2386	 4.04768372253904E-02 
2387	 4.23138057392674E-02 
2388	 4.24566691441806E-02 
2389	 4.00028738081035E-02 
2390	 4.03360401743462E-02 
2391	 4.24214114835922E-02 
2392	 4.17949239219526E-02 
2393	 4.09186973027648E-02 
2394	 3.91840304628216E-02 
2395	 3.47144319836604E-02 
2396	 3.30435015236025E-02 
2397	 3.30223316363098E-02 
2398	 3.21305609645627E-02 
2399	 3.13770339644791E-02 
2400	 3.10802684071754E-02 
2401	 3.03745135009411E-02 
2402	 0.031102590735478 
2403	 3.23570119457655E-02 
2404	 0.033135824863872 
2405	 3.32760544017362E-02 
2406	 3.41549794116928E-02 
2407	 0.035512075045757 
2408	 3.65054965182031E-02 
2409	 3.78751702928058E-02 
2410	 3.78836896433364E-02 
2411	 3.77713229812112E-02 
2412	 3.79279226257088E-02 
2413	 3.46802705078233E-02 
2414	 3.36679857595922E-02 
2415	 3.54670022672518E-02 
2416	 3.30103711753437E-02 
2417	 3.28342563397859E-02 
2418	 3.39558059284276E-02 
2419	 3.17264480440016E-02 
2420	 3.24578237251718E-02 
2421	 3.58323561115552E-02 
2422	 3.78292826396783E-02 
2423	 3.66229072675671E-02 
2424	 3.55978954685164E-02 
2425	 3.51701231083162E-02 
2426	 3.22557375384554E-02 
2427	 2.92546332456748E-02 
2428	 2.67680516550298E-02 
2429	 2.45497583433081E-02 
2430	 2.38987388321744E-02 
2431	 2.48524931205581E-02 
2432	 2.89448348513511E-02 
2433	 3.41833407700657E-02 
2434	 3.72781396328825E-02 
2435	 4.80886336922943E-02 
2436	 4.82436282947873E-02 
2437	 3.49067854856677E-02 
2438	 2.97315862007625E-02 
2439	 1.83586031769478E-02 
2440	 1.40772927566567E-02 
2441	 2.20196749877298E-02 
2442	 2.60972319607277E-02 
2443	 3.15553451212158E-02 
2444	 3.62341927083493E-02 
2445	 4.22136036858915E-02 
2446	 4.24708555960088E-02 
2447	 3.93185633451351E-02 
2448	 3.88720854829484E-02 
2449	 3.15853013320394E-02 
2450	 2.89241894468406E-02 
2451	 3.26633771458427E-02 
2452	 3.22360408668418E-02 
2453	 3.16068211128686E-02 
2454	 2.94212445231793E-02 
2455	 2.23723470914408E-02 
2456	 2.26606340187329E-02 
2457	 2.69575168552956E-02 
2458	 2.86838296317945E-02 
2459	 3.55453490669916E-02 
2460	 0.036358653352802 
2461	 2.68406571225348E-02 
2462	 2.71527964868416E-02 
2463	 3.75451145332951E-02 
2464	 3.80366535419405E-02 
2465	 3.74600941653293E-02 
2466	 3.29637205985284E-02 
2467	 1.17961715570139E-02 
2468	 6.92856396344503E-03 
2469	 0.015818507131952 
2470	 1.69900944545876E-02 
2471	 2.09013540328027E-02 
2472	 2.47321077093892E-02 
2473	 0.019947641166457 
2474	 2.89631427616978E-02 
2475	 0.056541234513893 
2476	 6.54979137837431E-02 
2477	 7.47617514086868E-02 
2478	 6.58821297335761E-02 
2479	 2.18695891465598E-02 
2480	 1.82634119229887E-02 
2481	 2.57308368673433E-02 
2482	 2.52603819320142E-02 
2483	 6.52766614709667E-02 
2484	 6.35850198631669E-02 
2485	 1.01584969027256E-02 
2486	-1.71087529262247E-03 
2487	-2.89488460054266E-02 
2488	-3.92946314204698E-02 
2489	-0.029601526849067 
2490	 2.24628607382757E-03 
2491	 0.011323235562372 
2492	 2.78055277311696E-02 
2493	 4.81471311756037E-02 
2494	 6.46767090610944E-02 
2495	 7.04889382162568E-02 
2496	 3.84089482036503E-02 
2497	 4.18268466668121E-02 
2498	 8.11414462065932E-02 
2499	 0.114292596736608 
2500	 0.155516518526122 
