Wavelength	ref00124.asd
350	 0.370687201785399 
351	 0.37964344664347 
352	 0.389157076364607 
353	 0.380865107953731 
354	 0.369708263474109 
355	 0.366669879668766 
356	 0.371264638382946 
357	 0.357796781596134 
358	 0.358173491514354 
359	 0.359032402835334 
360	 0.343544318317106 
361	 0.337429110141619 
362	 0.337691881427707 
363	 0.337201288012312 
364	 0.329079248382882 
365	 0.336053777995418 
366	 0.3316476714485 
367	 0.312394790957227 
368	 0.312635061228564 
369	 0.313788412813441 
370	 0.324128264428349 
371	 0.342057316959777 
372	 0.31477208526909 
373	 0.300607933189309 
374	 0.303848295637768 
375	 0.302361594677527 
376	 0.292766705561434 
377	 0.282043737448654 
378	 0.280003567674729 
379	 0.297531406419953 
380	 0.292967891755956 
381	 0.284407872469923 
382	 0.289743388690091 
383	 0.292754022399105 
384	 0.288714845878954 
385	 0.283594004591999 
386	 0.285222474129392 
387	 0.278086112460298 
388	 0.271099799691731 
389	 0.268283022688835 
390	 0.266683580200311 
391	 0.265359468878913 
392	 0.26341262915615 
393	 0.261195716896369 
394	 0.262129372652681 
395	 0.262421149023995 
396	 0.262499434088172 
397	 0.262805902652647 
398	 0.25607055327025 
399	 0.25284238655883 
400	 0.253352353144274 
401	 0.249902743390871 
402	 0.249328354245789 
403	 0.249957693359584 
404	 0.250483958024584 
405	 0.25319703337701 
406	 0.251073980465983 
407	 0.247192916382464 
408	 0.246257979071519 
409	 0.241930060168387 
410	 0.244329001629716 
411	 0.250073815560015 
412	 0.245542850354852 
413	 0.245019318320509 
414	 0.247928682830158 
415	 0.25049931250086 
416	 0.247023696335149 
417	 0.245474170589502 
418	 0.246499585614995 
419	 0.24811599802802 
420	 0.248895643723077 
421	 0.247712749719743 
422	 0.246939416365266 
423	 0.251130580081601 
424	 0.252044808096201 
425	 0.252497013830081 
426	 0.254457585399628 
427	 0.253717630757035 
428	 0.257980606661849 
429	 0.261869406567372 
430	 0.258597567931228 
431	 0.257658684800562 
432	 0.258552471288107 
433	 0.260590867209667 
434	 0.263213739736072 
435	 0.262929085819373 
436	 0.262866840242459 
437	 0.264997772295054 
438	 0.267076529883722 
439	 0.268184576860706 
440	 0.266916150982836 
441	 0.263403171486633 
442	 0.265730941813465 
443	 0.266555750461798 
444	 0.265271181314441 
445	 0.267911005949975 
446	 0.269440647288946 
447	 0.270396318092294 
448	 0.27157122936629 
449	 0.271969757920351 
450	 0.271155332844959 
451	 0.270862561701513 
452	 0.272875758414773 
453	 0.273200891695626 
454	 0.273100307834707 
455	 0.273117789881416 
456	 0.272513359574691 
457	 0.272333845431021 
458	 0.272406062853549 
459	 0.272176954271884 
460	 0.270674881013462 
461	 0.270277912100204 
462	 0.270295499710458 
463	 0.268729664418956 
464	 0.267748799272255 
465	 0.267469698222635 
466	 0.267681339588733 
467	 0.268100282338887 
468	 0.266109626208665 
469	 0.264699586522426 
470	 0.266232193284196 
471	 0.264567541860845 
472	 0.263063096335164 
473	 0.262846788302928 
474	 0.263245069998051 
475	 0.263350012914722 
476	 0.262910010178486 
477	 0.261890215546307 
478	 0.260223389059007 
479	 0.260850552144352 
480	 0.262114476982602 
481	 0.261262173983638 
482	 0.258451504169745 
483	 0.257966982872907 
484	 0.259840158663077 
485	 0.259872324014408 
486	 0.260034620682011 
487	 0.259535824830518 
488	 0.258271377632631 
489	 0.259054732176506 
490	 0.259579706959651 
491	 0.259895111660472 
492	 0.260925937623747 
493	 0.262440117619643 
494	 0.26375847446974 
495	 0.265006702931626 
496	 0.267288784090869 
497	 0.26880062635136 
498	 0.271121828787094 
499	 0.275477904130522 
500	 0.279356088529378 
501	 0.283384190782307 
502	 0.287853937574931 
503	 0.292906578567182 
504	 0.298735167368268 
505	 0.304494607422406 
506	 0.310130886779917 
507	 0.317108085932296 
508	 0.323925672539034 
509	 0.331033336044096 
510	 0.33934995583966 
511	 0.348987562342535 
512	 0.359075288988932 
513	 0.369342307850978 
514	 0.380200770411962 
515	 0.391676979091915 
516	 0.405351099714303 
517	 0.421186783143429 
518	 0.435091090169342 
519	 0.447427960195353 
520	 0.460284757283376 
521	 0.475439970990736 
522	 0.48778582715316 
523	 0.500596495743167 
524	 0.514750414582139 
525	 0.527721790450211 
526	 0.540143688458883 
527	 0.552034221276615 
528	 0.563566287458634 
529	 0.575623006553051 
530	 0.585935474496903 
531	 0.594791486844325 
532	 0.603863434533513 
533	 0.612613063941576 
534	 0.620179450729734 
535	 0.626556597497087 
536	 0.633257996597178 
537	 0.637164305308533 
538	 0.64101301851921 
539	 0.647679430180893 
540	 0.65227514816381 
541	 0.655887740508899 
542	 0.659054994687455 
543	 0.661691888728682 
544	 0.664267688857711 
545	 0.666825628478559 
546	 0.669497743309715 
547	 0.672924981970127 
548	 0.675854538640797 
549	 0.677757856388622 
550	 0.678577043297091 
551	 0.678930271139184 
552	 0.678710142636662 
553	 0.677748069912968 
554	 0.675875724619835 
555	 0.67322574282953 
556	 0.66991397123811 
557	 0.665788469981279 
558	 0.659842589702499 
559	 0.653934314156552 
560	 0.647970485456527 
561	 0.640793814437307 
562	 0.634926929461821 
563	 0.627860686843082 
564	 0.619028663559934 
565	 0.612421483421402 
566	 0.604544371241715 
567	 0.595809234475286 
568	 0.587404024597484 
569	 0.57780969910838 
570	 0.567761550989078 
571	 0.557945709591644 
572	 0.548783721477386 
573	 0.539073749408841 
574	 0.530200743758953 
575	 0.522793691719541 
576	 0.514580679059674 
577	 0.506418874422296 
578	 0.499139890248282 
579	 0.493291042288922 
580	 0.4875087665278 
581	 0.481701655925421 
582	 0.475853747787422 
583	 0.46985296875425 
584	 0.46487538115671 
585	 0.460406101361721 
586	 0.455637333220832 
587	 0.450285653159051 
588	 0.44623569494893 
589	 0.443217673836789 
590	 0.439506095203777 
591	 0.436129533283907 
592	 0.433165110717786 
593	 0.430460213393797 
594	 0.427916788625226 
595	 0.425508924102627 
596	 0.422984077060831 
597	 0.420144957700619 
598	 0.417451794192652 
599	 0.414728532627641 
600	 0.411974918107254 
601	 0.40937876735914 
602	 0.406422061085956 
603	 0.403087818441997 
604	 0.399471645922034 
605	 0.395539125835652 
606	 0.391937875564363 
607	 0.388461469494002 
608	 0.384478612827866 
609	 0.379816637566789 
610	 0.375037478258387 
611	 0.370431423974863 
612	 0.365777403017767 
613	 0.361215750814108 
614	 0.356560178940363 
615	 0.351824223736604 
616	 0.348000227968582 
617	 0.344114660769571 
618	 0.339911470547564 
619	 0.335727280992433 
620	 0.332898958126118 
621	 0.330286247511018 
622	 0.327280832063708 
623	 0.324931435938367 
624	 0.323038470943791 
625	 0.321171823471223 
626	 0.319137427788715 
627	 0.318502738443208 
628	 0.317610028165894 
629	 0.316090372203487 
630	 0.314946644790392 
631	 0.314197247901356 
632	 0.312908814907106 
633	 0.310687773847825 
634	 0.309029544910845 
635	 0.306502356348888 
636	 0.302853368101487 
637	 0.298594958585962 
638	 0.295259159645416 
639	 0.291021258975245 
640	 0.285629467020322 
641	 0.281273857327183 
642	 0.276566795728831 
643	 0.271407316054658 
644	 0.266028904553147 
645	 0.260843996592272 
646	 0.255760247819081 
647	 0.250978736383148 
648	 0.24679715974227 
649	 0.242571394014221 
650	 0.23884865873696 
651	 0.23601263126455 
652	 0.233800968685714 
653	 0.231244452234513 
654	 0.228293884526952 
655	 0.225340129451072 
656	 0.223916278739293 
657	 0.220482488611555 
658	 0.215748757012921 
659	 0.212748157280955 
660	 0.208335317586812 
661	 0.203669568417439 
662	 0.199730938825289 
663	 0.195776756546462 
664	 0.191784050877755 
665	 0.187756655871993 
666	 0.183882256285823 
667	 0.181204690119334 
668	 0.178312463975579 
669	 0.175158134307996 
670	 0.172937364779321 
671	 0.171057791571898 
672	 0.169860069832053 
673	 0.169238743213084 
674	 0.16755973296634 
675	 0.166796681944391 
676	 0.166983879666261 
677	 0.167354413427038 
678	 0.16734430838862 
679	 0.167666331580517 
680	 0.168966894488417 
681	 0.171631776362086 
682	 0.174041988588928 
683	 0.17732162017365 
684	 0.182457111137786 
685	 0.188680818565108 
686	 0.196456553167603 
687	 0.206739511080014 
688	 0.219376856449169 
689	 0.232266545561941 
690	 0.247142811429273 
691	 0.264644967970307 
692	 0.283113200747893 
693	 0.304453638059292 
694	 0.328283148879591 
695	 0.353676414156168 
696	 0.379825034407578 
697	 0.407640409366783 
698	 0.437047549105756 
699	 0.467130934956296 
700	 0.496490378538587 
701	 0.52689767582376 
702	 0.558146210679327 
703	 0.58767618163823 
704	 0.61725918690018 
705	 0.646365072602114 
706	 0.674927471245013 
707	 0.704633117027715 
708	 0.733839734147533 
709	 0.762166271362648 
710	 0.789760272524106 
711	 0.817872282490041 
712	 0.846151277465165 
713	 0.874291710064015 
714	 0.902308197811438 
715	 0.929160531822441 
716	 0.954442077604372 
717	 0.979225372230047 
718	 1.00540088607546 
719	 1.03463459475692 
720	 1.06553465415155 
721	 1.09527637674902 
722	 1.12272762907667 
723	 1.14860167905616 
724	 1.17410888490027 
725	 1.19812692903452 
726	 1.22270045582225 
727	 1.24759933145784 
728	 1.27249051485456 
729	 1.29601373890682 
730	 1.31859720225448 
731	 1.34049532788361 
732	 1.36206683026273 
733	 1.38352723057027 
734	 1.40247902048364 
735	 1.41887687105157 
736	 1.434449569849 
737	 1.45025811499516 
738	 1.46481696066927 
739	 1.47762581951473 
740	 1.49059831873952 
741	 1.5027151923244 
742	 1.51349343189849 
743	 1.52271934469634 
744	 1.53105321739921 
745	 1.53816946917629 
746	 1.5444110305509 
747	 1.55050694860649 
748	 1.55552387437034 
749	 1.55933765150925 
750	 1.56243106020961 
751	 1.56609972822742 
752	 1.56833686178971 
753	 1.57012926409134 
754	 1.5723660436032 
755	 1.57243532640233 
756	 1.57290799961007 
757	 1.57312134776132 
758	 1.57118367661528 
759	 1.5727750049373 
760	 1.57634023381294 
761	 1.57806203357754 
762	 1.57325287648807 
763	 1.57200309863179 
764	 1.57102335763 
765	 1.56798666212245 
766	 1.56690281355942 
767	 1.56457709513132 
768	 1.56201318346062 
769	 1.56065476135129 
770	 1.55844155471139 
771	 1.55612379259358 
772	 1.55413239885939 
773	 1.55240759790909 
774	 1.54958694841039 
775	 1.54731835496796 
776	 1.54596911408556 
777	 1.54301192253287 
778	 1.54025689351897 
779	 1.53781299956684 
780	 1.53547618232562 
781	 1.53355810079636 
782	 1.53186918905857 
783	 1.53007101298351 
784	 1.52775702283585 
785	 1.52459232174337 
786	 1.52146939296001 
787	 1.51869427364695 
788	 1.51583578797767 
789	 1.51220338855449 
790	 1.50956502105491 
791	 1.50841978021633 
792	 1.50572675897206 
793	 1.50352756995713 
794	 1.50185175883558 
795	 1.49982900089586 
796	 1.49553128212129 
797	 1.49274949570705 
798	 1.49130499864454 
799	 1.48884903581489 
800	 1.48652584752555 
801	 1.48401643479063 
802	 1.48149278354211 
803	 1.47969819849702 
804	 1.47797990473977 
805	 1.47561166322028 
806	 1.47286472189621 
807	 1.4721192551318 
808	 1.46930457621002 
809	 1.4656524160697 
810	 1.46308168474251 
811	 1.45916126560271 
812	 1.45440236801776 
813	 1.44947385895393 
814	 1.44502802244644 
815	 1.44038838873126 
816	 1.43696946022595 
817	 1.43473965666697 
818	 1.43207217868154 
819	 1.43117412266058 
820	 1.43125472075799 
821	 1.4309400137769 
822	 1.42878303401256 
823	 1.42655263982911 
824	 1.42397180314114 
825	 1.42115505647295 
826	 1.42075177581105 
827	 1.42006066519366 
828	 1.41859720348237 
829	 1.41672066613339 
830	 1.41353444862313 
831	 1.41168412283137 
832	 1.41083636733755 
833	 1.40871806755982 
834	 1.40762006975919 
835	 1.40667420263293 
836	 1.40538568385991 
837	 1.40413867209171 
838	 1.40353662066226 
839	 1.40240561992756 
840	 1.40009488713003 
841	 1.39753777248621 
842	 1.39696150423094 
843	 1.39651112303674 
844	 1.39430560535211 
845	 1.39272808984133 
846	 1.39041369457641 
847	 1.3882443201199 
848	 1.38745553131228 
849	 1.38581069948411 
850	 1.38359574518141 
851	 1.38134831936329 
852	 1.37973030683617 
853	 1.37967868473686 
854	 1.37884955886962 
855	 1.37590045131642 
856	 1.3714637760848 
857	 1.36997427900722 
858	 1.36890185078637 
859	 1.36685407844972 
860	 1.36610680612499 
861	 1.36364193051392 
862	 1.36107908740373 
863	 1.36021315049039 
864	 1.3605205553815 
865	 1.35894875002507 
866	 1.35689664327848 
867	 1.35619249493062 
868	 1.35365352275838 
869	 1.35028430774386 
870	 1.3479254727781 
871	 1.34771463680523 
872	 1.34595987217711 
873	 1.34421690741214 
874	 1.34252381277784 
875	 1.33993916515586 
876	 1.33781641931406 
877	 1.33602761250086 
878	 1.33422691875122 
879	 1.33209519184591 
880	 1.33031102481373 
881	 1.32852309818712 
882	 1.32680020250359 
883	 1.32586969825644 
884	 1.32405137943501 
885	 1.32180595276186 
886	 1.31999016127084 
887	 1.31932266969432 
888	 1.31673920407045 
889	 1.3140394397285 
890	 1.31236962246399 
891	 1.30789399173541 
892	 1.30446806908487 
893	 1.30165597494159 
894	 1.29795034890798 
895	 1.29309947641857 
896	 1.29144431597104 
897	 1.28968140224552 
898	 1.28380263955005 
899	 1.28296335255672 
900	 1.28202916082483 
901	 1.27974817453395 
902	 1.27748917393584 
903	 1.27720414072585 
904	 1.27465126609172 
905	 1.27118032443013 
906	 1.27078893181549 
907	 1.26977925243003 
908	 1.26567242819253 
909	 1.26073513003762 
910	 1.2599471262488 
911	 1.25745343264914 
912	 1.25477064897908 
913	 1.25242150118523 
914	 1.24960821773991 
915	 1.24988204180334 
916	 1.24863034428065 
917	 1.24562246406785 
918	 1.24594121899241 
919	 1.24369634933654 
920	 1.24227134173146 
921	 1.24277543024473 
922	 1.24187701075991 
923	 1.240988316307 
924	 1.2372172399072 
925	 1.23104442909048 
926	 1.22864055772748 
927	 1.22219265410835 
928	 1.21439568017638 
929	 1.20892107827054 
930	 1.20672986580417 
931	 1.2042610378637 
932	 1.19694424032572 
933	 1.18645796039897 
934	 1.18713744466709 
935	 1.180319402603 
936	 1.16951202204622 
937	 1.16256730953455 
938	 1.16180261366047 
939	 1.16020041887686 
940	 1.15977869927848 
941	 1.16172283260356 
942	 1.16177921654295 
943	 1.16083217499826 
944	 1.16069202405242 
945	 1.15975186030174 
946	 1.14891993083285 
947	 1.14411377153913 
948	 1.14026501233632 
949	 1.13345139251048 
950	 1.13351737383785 
951	 1.13295805220026 
952	 1.1310477376569 
953	 1.1274909053455 
954	 1.11928353051274 
955	 1.11901339476916 
956	 1.12126709400709 
957	 1.11920463037808 
958	 1.11317882517466 
959	 1.1092850204818 
960	 1.11095499896677 
961	 1.11522110509729 
962	 1.1103508687273 
963	 1.11123943891572 
964	 1.11010833899938 
965	 1.10421892615121 
966	 1.1066339899685 
967	 1.11025792884145 
968	 1.10898197982448 
969	 1.10281466830207 
970	 1.10039387056884 
971	 1.10748258349056 
972	 1.11042834220582 
973	 1.10572926100498 
974	 1.1088175072909 
975	 1.10207077384563 
976	 1.09782038404944 
977	 1.10116458305524 
978	 1.10142723962594 
979	 1.10146041670132 
980	 1.10174968982105 
981	 1.10169948567558 
982	 1.09985090052511 
983	 1.0940791293058 
984	 1.09598486603591 
985	 1.10392110232413 
986	 1.10443904739021 
987	 1.10428902193811 
988	 1.10356167736768 
989	 1.10265092571626 
990	 1.10216769547034 
991	 1.10022080165954 
992	 1.10011312648698 
993	 1.10314104961628 
994	 1.10730156186876 
995	 1.10393878864838 
996	 1.09837855532081 
997	 1.09794470334211 
998	 1.1053199272705 
999	 1.10472734510562 
1000	 1.10336755800147 
1001	 1.13292592703546 
1002	 1.13420714020114 
1003	 1.13468214211447 
1004	 1.13466118553157 
1005	 1.13488200948393 
1006	 1.1350648160903 
1007	 1.1353415329452 
1008	 1.13599626976233 
1009	 1.13602531786584 
1010	 1.13604085589711 
1011	 1.13555492643578 
1012	 1.13446097217738 
1013	 1.13397024408466 
1014	 1.13406876329955 
1015	 1.13447980507309 
1016	 1.13492737112902 
1017	 1.13530215644714 
1018	 1.13591245004544 
1019	 1.13684453372068 
1020	 1.13724613639379 
1021	 1.13782612298587 
1022	 1.13789743501511 
1023	 1.13738563322104 
1024	 1.13682605740819 
1025	 1.13653212345568 
1026	 1.13631824465601 
1027	 1.13648577549964 
1028	 1.13655463546786 
1029	 1.13659813149798 
1030	 1.13669703606911 
1031	 1.13634386366893 
1032	 1.13590430223719 
1033	 1.13568283551701 
1034	 1.13541962839824 
1035	 1.13528555062976 
1036	 1.13551572869737 
1037	 1.13522372397764 
1038	 1.13468165164808 
1039	 1.13415873513718 
1040	 1.13330271389955 
1041	 1.13308216883169 
1042	 1.13333696883452 
1043	 1.13337406780767 
1044	 1.13352443092925 
1045	 1.13344269331173 
1046	 1.13287154637589 
1047	 1.13175897251251 
1048	 1.13068703680506 
1049	 1.13056484222905 
1050	 1.13029374106455 
1051	 1.13035106432355 
1052	 1.13007104694432 
1053	 1.13003268779433 
1054	 1.12982082070604 
1055	 1.12926104089644 
1056	 1.1293342118208 
1057	 1.12921011198287 
1058	 1.12874764657656 
1059	 1.12881869648777 
1060	 1.12858286251682 
1061	 1.12821761423554 
1062	 1.12745990487337 
1063	 1.12637828715717 
1064	 1.12595001665108 
1065	 1.12540850840614 
1066	 1.12497101868034 
1067	 1.12477083097831 
1068	 1.12492183788861 
1069	 1.12442460491787 
1070	 1.12412126317984 
1071	 1.12407764484289 
1072	 1.12327743227161 
1073	 1.12260444214631 
1074	 1.12215345369252 
1075	 1.12121995078256 
1076	 1.12028948245485 
1077	 1.11977657561245 
1078	 1.11915502619357 
1079	 1.11855677300361 
1080	 1.11803308513507 
1081	 1.11708657634467 
1082	 1.11560447618295 
1083	 1.114282620235 
1084	 1.11332265297039 
1085	 1.11262100862848 
1086	 1.1120400453457 
1087	 1.11114816337631 
1088	 1.11029697757224 
1089	 1.10858465122314 
1090	 1.10654166336869 
1091	 1.10509978743141 
1092	 1.10327548052712 
1093	 1.10150706494401 
1094	 1.10018096894189 
1095	 1.09875714136348 
1096	 1.09720032537418 
1097	 1.09580507716313 
1098	 1.09385327639698 
1099	 1.09159118148967 
1100	 1.08904890172824 
1101	 1.08652175047701 
1102	 1.08426060494612 
1103	 1.0821600720284 
1104	 1.08012672765514 
1105	 1.07806869129937 
1106	 1.07574318226791 
1107	 1.07333297802257 
1108	 1.07067289341141 
1109	 1.06766556213516 
1110	 1.06437503350813 
1111	 1.06076034081221 
1112	 1.05660615258473 
1113	 1.05248519001381 
1114	 1.04787433843577 
1115	 1.04303641080561 
1116	 1.03803819538763 
1117	 1.03236526906125 
1118	 1.02669732500507 
1119	 1.02061145949115 
1120	 1.01465793620889 
1121	 1.00986731429137 
1122	 1.00510323758599 
1123	 1.00111728601132 
1124	 0.997607370230777 
1125	 0.993616503209816 
1126	 0.990589159124007 
1127	 0.988631285990273 
1128	 0.985901293503036 
1129	 0.983826418914566 
1130	 0.981337862388632 
1131	 0.978521693007777 
1132	 0.975684487199101 
1133	 0.972852626517122 
1134	 0.969976729603712 
1135	 0.967292700351394 
1136	 0.963661479252302 
1137	 0.960071530164132 
1138	 0.956248759303034 
1139	 0.951349171376913 
1140	 0.946505360501851 
1141	 0.941242245673821 
1142	 0.935933123926425 
1143	 0.930514023501221 
1144	 0.924658810775172 
1145	 0.91915993667314 
1146	 0.913584447000765 
1147	 0.908370258170047 
1148	 0.903144250232389 
1149	 0.899146876688684 
1150	 0.896285336562393 
1151	 0.893142506532966 
1152	 0.890580179703076 
1153	 0.888280551739285 
1154	 0.885897730902701 
1155	 0.884150534565148 
1156	 0.883137472727171 
1157	 0.882549379724876 
1158	 0.882202691954766 
1159	 0.881401766433035 
1160	 0.880581419505703 
1161	 0.879617229887742 
1162	 0.878988671804064 
1163	 0.878453651571271 
1164	 0.877702382138034 
1165	 0.877050660803506 
1166	 0.876274890234357 
1167	 0.875245800131091 
1168	 0.874286962329726 
1169	 0.873294869401916 
1170	 0.872456789807453 
1171	 0.871764879397513 
1172	 0.870763290586816 
1173	 0.86998959566275 
1174	 0.869312475109323 
1175	 0.86815515870424 
1176	 0.866990676325461 
1177	 0.865828425103443 
1178	 0.864555866315436 
1179	 0.863294661478279 
1180	 0.862033299890098 
1181	 0.860809817495784 
1182	 0.859508012565816 
1183	 0.858373243853598 
1184	 0.857296810669242 
1185	 0.856281109817261 
1186	 0.85548890198252 
1187	 0.854592369764669 
1188	 0.853628266216604 
1189	 0.852768254265024 
1190	 0.852092440642351 
1191	 0.851263027331947 
1192	 0.850612035848182 
1193	 0.850148458804526 
1194	 0.849543251880266 
1195	 0.848899441701383 
1196	 0.84820842280241 
1197	 0.847398669781132 
1198	 0.846788834416706 
1199	 0.846189361129516 
1200	 0.845682356425192 
1201	 0.845285419398298 
1202	 0.845013079431327 
1203	 0.844737791225227 
1204	 0.84464395476918 
1205	 0.844882654479817 
1206	 0.844974627211857 
1207	 0.845175143767817 
1208	 0.845263376509312 
1209	 0.845263288122315 
1210	 0.845109784832777 
1211	 0.845335770334192 
1212	 0.845500034805472 
1213	 0.845755124255279 
1214	 0.846120916777369 
1215	 0.84673234826251 
1216	 0.847442695925694 
1217	 0.848165597388459 
1218	 0.849213602020695 
1219	 0.850020037455439 
1220	 0.850564942747565 
1221	 0.851395808758014 
1222	 0.852460325016058 
1223	 0.853346486887703 
1224	 0.85438593813932 
1225	 0.855159267892104 
1226	 0.855603781529081 
1227	 0.856193590583204 
1228	 0.856781819385657 
1229	 0.857246492807791 
1230	 0.857891671761984 
1231	 0.85865553042195 
1232	 0.859298060214135 
1233	 0.860012707916734 
1234	 0.860493919479791 
1235	 0.860862251990514 
1236	 0.861165408835688 
1237	 0.861168865550783 
1238	 0.861510338962321 
1239	 0.862039804966432 
1240	 0.862413554418076 
1241	 0.863002750554391 
1242	 0.863251320824435 
1243	 0.863189315301018 
1244	 0.863184406791751 
1245	 0.862892314080018 
1246	 0.862932431773196 
1247	 0.863221981788685 
1248	 0.863347415823372 
1249	 0.863656239885387 
1250	 0.86379506900804 
1251	 0.863660572973154 
1252	 0.863616527838401 
1253	 0.863547568082005 
1254	 0.863475213029843 
1255	 0.863338071503515 
1256	 0.863216733925851 
1257	 0.862939289565919 
1258	 0.862510944837144 
1259	 0.862155555827041 
1260	 0.861765292192277 
1261	 0.861309217950306 
1262	 0.860816369675694 
1263	 0.860340628324213 
1264	 0.859793667193531 
1265	 0.859263120576352 
1266	 0.858714493754136 
1267	 0.858269845609978 
1268	 0.857870933181187 
1269	 0.857474327112297 
1270	 0.857435958114923 
1271	 0.856993084870546 
1272	 0.856315684172907 
1273	 0.855546761033471 
1274	 0.854759648740624 
1275	 0.853590019809006 
1276	 0.853028891523379 
1277	 0.852744188485783 
1278	 0.852373596782503 
1279	 0.852402573384332 
1280	 0.851889676787311 
1281	 0.851155292399081 
1282	 0.850342944433905 
1283	 0.849191934392895 
1284	 0.848244501571608 
1285	 0.847328527424025 
1286	 0.846367637351389 
1287	 0.845475319127058 
1288	 0.844473005238978 
1289	 0.843401231568184 
1290	 0.842272433575968 
1291	 0.841201324332289 
1292	 0.839877733045045 
1293	 0.838316955663683 
1294	 0.83676527153684 
1295	 0.835151871852759 
1296	 0.833273976964484 
1297	 0.831460738750416 
1298	 0.829716946424454 
1299	 0.827658929106174 
1300	 0.825353102190964 
1301	 0.823134237753415 
1302	 0.820790112992326 
1303	 0.818407549018181 
1304	 0.816085134250015 
1305	 0.813531525924618 
1306	 0.810706760985982 
1307	 0.808003740990325 
1308	 0.805390473598408 
1309	 0.802449944082401 
1310	 0.79921900063176 
1311	 0.796212408148381 
1312	 0.793282156835652 
1313	 0.790002081649272 
1314	 0.786796618497037 
1315	 0.783383530865421 
1316	 0.779311073713274 
1317	 0.775554937671854 
1318	 0.772182524645184 
1319	 0.768446102842026 
1320	 0.764450656578107 
1321	 0.760538480793342 
1322	 0.756444722163839 
1323	 0.751958399506383 
1324	 0.747707768655266 
1325	 0.743653235111161 
1326	 0.738974460680571 
1327	 0.733823224127409 
1328	 0.728877572195451 
1329	 0.723558990247063 
1330	 0.718389272184424 
1331	 0.713409593287368 
1332	 0.708402076564818 
1333	 0.703096619235803 
1334	 0.698401998561308 
1335	 0.694395107631398 
1336	 0.690050778793582 
1337	 0.685643792176307 
1338	 0.681443252151037 
1339	 0.676871386753408 
1340	 0.672590280550973 
1341	 0.668443970905718 
1342	 0.664200329557719 
1343	 0.65934023681108 
1344	 0.654660709128453 
1345	 0.649570536376462 
1346	 0.64426817509441 
1347	 0.639273061086702 
1348	 0.633515462728628 
1349	 0.627829590171187 
1350	 0.622410427867874 
1351	 0.615670995416579 
1352	 0.608503941705096 
1353	 0.600252005025432 
1354	 0.591310886387569 
1355	 0.581321473179188 
1356	 0.577545907751635 
1357	 0.56752758758325 
1358	 0.562505744401084 
1359	 0.551326618940187 
1360	 0.540870669534563 
1361	 0.528567986409916 
1362	 0.536269685020413 
1363	 0.529921283464022 
1364	 0.532831312112968 
1365	 0.522636638764002 
1366	 0.511247892041905 
1367	 0.487248198236184 
1368	 0.450467384122567 
1369	 0.436199066643865 
1370	 0.428590898726268 
1371	 0.422397207004366 
1372	 0.422125823747881 
1373	 0.424273441963446 
1374	 0.432246828222568 
1375	 0.428984480002442 
1376	 0.419595203807786 
1377	 0.41929243618844 
1378	 0.410145016441981 
1379	 0.387631889033384 
1380	 0.377305906388651 
1381	 0.373783210963577 
1382	 0.36395406006905 
1383	 0.356682518237177 
1384	 0.344780158353918 
1385	 0.327297502501151 
1386	 0.317308821729547 
1387	 0.310053069390102 
1388	 0.303294680092458 
1389	 0.299450319917477 
1390	 0.295980409494491 
1391	 0.290700750835435 
1392	 0.289058579237309 
1393	 0.295883172616015 
1394	 0.290572126621309 
1395	 0.278494709431766 
1396	 0.271182016480149 
1397	 0.260827729041507 
1398	 0.251193502021684 
1399	 0.244206938228808 
1400	 0.238308634592724 
1401	 0.230026394382291 
1402	 0.22303826164386 
1403	 0.219900048629302 
1404	 0.216179412512416 
1405	 0.212131895250606 
1406	 0.208617215296511 
1407	 0.205055610709691 
1408	 0.199666809851029 
1409	 0.193614213350796 
1410	 0.191496534638777 
1411	 0.189227861629549 
1412	 0.188419473616395 
1413	 0.187047100755692 
1414	 0.185761171058394 
1415	 0.184347325045274 
1416	 0.183480144527439 
1417	 0.181743595497352 
1418	 0.179333813226229 
1419	 0.177903401201495 
1420	 0.176523705664391 
1421	 0.175043464896658 
1422	 0.173876894852512 
1423	 0.173004626385776 
1424	 0.171761774945732 
1425	 0.171051065365247 
1426	 0.170960524548821 
1427	 0.170666460292724 
1428	 0.170656078885028 
1429	 0.170025657581084 
1430	 0.169411898469997 
1431	 0.168348788694709 
1432	 0.165843950657038 
1433	 0.164916719533897 
1434	 0.164709620379669 
1435	 0.164195677544335 
1436	 0.164732818684555 
1437	 0.164540704747942 
1438	 0.163240127454639 
1439	 0.162859360956153 
1440	 0.16303389724221 
1441	 0.162799661136724 
1442	 0.162377587428949 
1443	 0.162749180870268 
1444	 0.162347512625526 
1445	 0.162132712401225 
1446	 0.162844833860088 
1447	 0.163416260123416 
1448	 0.163967929540071 
1449	 0.164706865519801 
1450	 0.165231908791486 
1451	 0.165630626150005 
1452	 0.165997254335155 
1453	 0.166505868922155 
1454	 0.166582050369114 
1455	 0.166230073892141 
1456	 0.166360310662712 
1457	 0.166595309052015 
1458	 0.166660545946211 
1459	 0.166995957237592 
1460	 0.167015345154813 
1461	 0.166343578825883 
1462	 0.166511901114247 
1463	 0.167192055351271 
1464	 0.167662907090124 
1465	 0.168299004573093 
1466	 0.169192574983251 
1467	 0.170266904889568 
1468	 0.171146935548891 
1469	 0.172032327713474 
1470	 0.173325086395475 
1471	 0.174642080006074 
1472	 0.175777155236378 
1473	 0.177070966494301 
1474	 0.178521695196074 
1475	 0.17961741922078 
1476	 0.180898384234385 
1477	 0.182734262765875 
1478	 0.184219584630276 
1479	 0.185072455390419 
1480	 0.186544437179072 
1481	 0.188272766252925 
1482	 0.190005479725482 
1483	 0.191884984794593 
1484	 0.194007513794848 
1485	 0.196300455633418 
1486	 0.198414489973851 
1487	 0.200599887131122 
1488	 0.202830527162119 
1489	 0.204654422995168 
1490	 0.206467875448813 
1491	 0.208277131178195 
1492	 0.210070187375498 
1493	 0.211960426487763 
1494	 0.213849584125938 
1495	 0.215721570602657 
1496	 0.217677068531855 
1497	 0.219561509312673 
1498	 0.22139980395085 
1499	 0.223386397702166 
1500	 0.225578148325412 
1501	 0.227448832411866 
1502	 0.229211601196522 
1503	 0.231088028369306 
1504	 0.232849388764667 
1505	 0.234706072205282 
1506	 0.236694624166071 
1507	 0.238613086116247 
1508	 0.240335670027373 
1509	 0.242377378133188 
1510	 0.244845049572774 
1511	 0.24671392516708 
1512	 0.248351774236938 
1513	 0.250187485339108 
1514	 0.251722578355387 
1515	 0.253533260488027 
1516	 0.255815375667587 
1517	 0.257720422123004 
1518	 0.259333914128361 
1519	 0.261225095786377 
1520	 0.26327569880811 
1521	 0.265115265494544 
1522	 0.266962507582907 
1523	 0.268820390532935 
1524	 0.270440781666138 
1525	 0.272290888134351 
1526	 0.274510286128089 
1527	 0.276349578688245 
1528	 0.277899078155565 
1529	 0.279769486918705 
1530	 0.281690560187133 
1531	 0.283528211506162 
1532	 0.285658868347046 
1533	 0.287517583612643 
1534	 0.288929460707929 
1535	 0.29067601166197 
1536	 0.292696107686734 
1537	 0.294443123609054 
1538	 0.296038036060713 
1539	 0.297867849885936 
1540	 0.299710669924586 
1541	 0.301464276301364 
1542	 0.303515741729234 
1543	 0.305291861212737 
1544	 0.306688710497752 
1545	 0.30822389650631 
1546	 0.309700487157229 
1547	 0.311279188264194 
1548	 0.312925834667852 
1549	 0.314595391425762 
1550	 0.316429675941254 
1551	 0.318146179833249 
1552	 0.319888398856932 
1553	 0.321487771164014 
1554	 0.32287193632794 
1555	 0.32435840050326 
1556	 0.325812922253359 
1557	 0.327260561292651 
1558	 0.32880562451387 
1559	 0.330281054638851 
1560	 0.331627389013309 
1561	 0.333057486993424 
1562	 0.334574705210474 
1563	 0.336025212600312 
1564	 0.337535969353774 
1565	 0.338950911443595 
1566	 0.340399943438382 
1567	 0.341682201320129 
1568	 0.343038433842922 
1569	 0.344385663647223 
1570	 0.345771490796577 
1571	 0.347120276238488 
1572	 0.348612776030839 
1573	 0.350251439586475 
1574	 0.351635796058158 
1575	 0.352999980605152 
1576	 0.354262001235516 
1577	 0.355252314121682 
1578	 0.356533558499527 
1579	 0.357994378872628 
1580	 0.359098299820606 
1581	 0.360109162455531 
1582	 0.361185346476093 
1583	 0.361992271375266 
1584	 0.363173259176771 
1585	 0.364705120809128 
1586	 0.365840640839205 
1587	 0.366857562836214 
1588	 0.368051826632901 
1589	 0.369135224208013 
1590	 0.370375738586742 
1591	 0.372012393757872 
1592	 0.372988361328177 
1593	 0.373465358487726 
1594	 0.374666481854564 
1595	 0.375984689325701 
1596	 0.377037824451779 
1597	 0.378516553208109 
1598	 0.379534684365004 
1599	 0.379846646146378 
1600	 0.38083195748815 
1601	 0.382242849987339 
1602	 0.383236855818507 
1603	 0.384195050467158 
1604	 0.385105217788015 
1605	 0.385706478071672 
1606	 0.386763864909645 
1607	 0.38820294991565 
1608	 0.389060606797513 
1609	 0.389902020804656 
1610	 0.390537078156763 
1611	 0.39046104827726 
1612	 0.391336947403538 
1613	 0.392757693087159 
1614	 0.393666337169695 
1615	 0.394780095289138 
1616	 0.395672372563676 
1617	 0.396192575460962 
1618	 0.396840616695195 
1619	 0.397552954991651 
1620	 0.398318674217524 
1621	 0.398937332313712 
1622	 0.399696205482511 
1623	 0.400762408770241 
1624	 0.401553633160937 
1625	 0.402161581499831 
1626	 0.402884135461982 
1627	 0.403623283598567 
1628	 0.404298754780581 
1629	 0.405037856176642 
1630	 0.405545106960789 
1631	 0.40587640922773 
1632	 0.406311550564932 
1633	 0.406702013960962 
1634	 0.407025746485549 
1635	 0.407289318562812 
1636	 0.40777091476359 
1637	 0.408257354098299 
1638	 0.40866525586548 
1639	 0.409322590003069 
1640	 0.409709655915144 
1641	 0.409779984973604 
1642	 0.410076526149162 
1643	 0.410525607647664 
1644	 0.410647109235908 
1645	 0.410607722791948 
1646	 0.410727205199646 
1647	 0.41070697940232 
1648	 0.410820691274082 
1649	 0.41110982018672 
1650	 0.411252173309576 
1651	 0.411427842367153 
1652	 0.411326798042135 
1653	 0.411098582280911 
1654	 0.410884883589843 
1655	 0.410445559255969 
1656	 0.410155764996384 
1657	 0.409998750328396 
1658	 0.409380858440824 
1659	 0.408876732866469 
1660	 0.408813008615711 
1661	 0.408981919332299 
1662	 0.40916276883583 
1663	 0.409171587990664 
1664	 0.408797377122189 
1665	 0.408478114572398 
1666	 0.408055522287687 
1667	 0.407910121725852 
1668	 0.408060047946929 
1669	 0.407770608971925 
1670	 0.408147805238709 
1671	 0.408771102781183 
1672	 0.408543441422566 
1673	 0.40870035678016 
1674	 0.409026481739549 
1675	 0.408694775311111 
1676	 0.408699265784898 
1677	 0.409027889551445 
1678	 0.408912484824034 
1679	 0.408893090657052 
1680	 0.40923878663396 
1681	 0.409116218455533 
1682	 0.408470642895424 
1683	 0.408175573213961 
1684	 0.408031879643789 
1685	 0.40772834875242 
1686	 0.407458503426223 
1687	 0.407070007955118 
1688	 0.406697464361469 
1689	 0.406361703578779 
1690	 0.405934642909257 
1691	 0.405541988766246 
1692	 0.404612578739114 
1693	 0.404065257467604 
1694	 0.4041925414982 
1695	 0.403881908468333 
1696	 0.403473016635256 
1697	 0.402778865695789 
1698	 0.401518664468825 
1699	 0.400701533848162 
1700	 0.400124008266385 
1701	 0.399389579786992 
1702	 0.398778548612177 
1703	 0.39809566197023 
1704	 0.397096757778062 
1705	 0.396197741414364 
1706	 0.395574993730958 
1707	 0.394697289919324 
1708	 0.393472934277577 
1709	 0.392662695714782 
1710	 0.392124087158676 
1711	 0.391221657030729 
1712	 0.390312535418377 
1713	 0.389428398494372 
1714	 0.388210396273084 
1715	 0.387308594736571 
1716	 0.386831249242746 
1717	 0.385990286451244 
1718	 0.384863746538974 
1719	 0.384046807763886 
1720	 0.383477135748515 
1721	 0.382460350941212 
1722	 0.381370307504294 
1723	 0.380273138590785 
1724	 0.378645206155119 
1725	 0.377451581028895 
1726	 0.37665771986148 
1727	 0.375641517822931 
1728	 0.374632486363784 
1729	 0.373750751602367 
1730	 0.372828258728297 
1731	 0.372218856533605 
1732	 0.371203287114276 
1733	 0.369978867029262 
1734	 0.36924824449618 
1735	 0.368352754161682 
1736	 0.367419711196498 
1737	 0.366779799263566 
1738	 0.366481500080103 
1739	 0.365808597167799 
1740	 0.364542315443046 
1741	 0.363154342073502 
1742	 0.361614345418497 
1743	 0.360731331734868 
1744	 0.360833090735113 
1745	 0.360611162077251 
1746	 0.359613602549315 
1747	 0.358333223553385 
1748	 0.356623160572283 
1749	 0.354991511981539 
1750	 0.354165411946206 
1751	 0.353309823008909 
1752	 0.352163544144228 
1753	 0.351626094352408 
1754	 0.351055933544483 
1755	 0.349892881922949 
1756	 0.348675420163759 
1757	 0.346680033321704 
1758	 0.345011474881446 
1759	 0.343397575133712 
1760	 0.342240069819291 
1761	 0.341410029018181 
1762	 0.340462370633462 
1763	 0.339863588979259 
1764	 0.339007628546347 
1765	 0.338089419836522 
1766	 0.337031347244237 
1767	 0.335896518010523 
1768	 0.334728709051529 
1769	 0.33320015001656 
1770	 0.332046214941395 
1771	 0.33071882531336 
1772	 0.329920273436452 
1773	 0.329874904873668 
1774	 0.328506382640342 
1775	 0.328297064379516 
1776	 0.327520171352013 
1777	 0.325795628258435 
1778	 0.324838685998353 
1779	 0.324128653434786 
1780	 0.323412124437138 
1781	 0.322818577205591 
1782	 0.322889806911603 
1783	 0.322946978635313 
1784	 0.322080562536006 
1785	 0.321544373986297 
1786	 0.32082718197101 
1787	 0.319349149206317 
1788	 0.318436013383945 
1789	 0.317981583394884 
1790	 0.317333460369802 
1791	 0.316471868535905 
1792	 0.315366535878217 
1793	 0.31418152935345 
1794	 0.312125832033886 
1795	 0.310668012022295 
1796	 0.311324999957317 
1797	 0.311759774803762 
1798	 0.312477501502503 
1799	 0.313119476779993 
1800	 0.31208840938022 
1801	 0.306431256196622 
1802	 0.30496809951051 
1803	 0.303359814613046 
1804	 0.30194000616274 
1805	 0.301230052086781 
1806	 0.300984601868064 
1807	 0.299570586352018 
1808	 0.298333724654005 
1809	 0.296758598287443 
1810	 0.296837135509682 
1811	 0.296818658225616 
1812	 0.295487929533922 
1813	 0.296412380027189 
1814	 0.2955450545966 
1815	 0.290138149384274 
1816	 0.286608899781162 
1817	 0.282400687416414 
1818	 0.281413463166238 
1819	 0.282126933362052 
1820	 0.284325623208224 
1821	 0.285069512879148 
1822	 0.289159584917901 
1823	 0.294519755138123 
1824	 0.303082197476841 
1825	 0.305457604854286 
1826	 0.307001506057376 
1827	 0.310071255856885 
1828	 0.31043597545144 
1829	 0.292262326544702 
1830	 0.288222932780777 
1831	 0.297394894093964 
1832	 0.308921210913589 
1833	 0.333311766758513 
1834	 0.36019189458445 
1835	 0.403149994202756 
1836	 0.44309390753582 
1837	 0.465271563537112 
1838	 0.475296847261333 
1839	 0.474999587937997 
1840	 0.502314384424455 
1841	 0.440052476590638 
1842	 0.250169684664257 
1843	 0.216462850731093 
1844	 0.253858162887692 
1845	 0.232514734421015 
1846	 0.243327827503169 
1847	 0.257049290517249 
1848	 0.257815052690522 
1849	 0.183059907517039 
1850	 0.183715341339865 
1851	 0.260189250924641 
1852	 0.277185464850438 
1853	 0.286783186692927 
1854	 0.274117836803879 
1855	 0.219590381650623 
1856	 0.20658367119285 
1857	 0.168376086166269 
1858	 0.188817093139939 
1859	 0.219028799494421 
1860	 0.313698717762448 
1861	 0.307151966953207 
1862	 0.264390657172968 
1863	 0.253182184737851 
1864	 0.184603513857185 
1865	 0.155176536464924 
1866	 0.1867863168381 
1867	 0.198196933046895 
1868	 0.155794485093206 
1869	 0.147743719716353 
1870	 0.137526517400726 
1871	 0.134208808852643 
1872	 0.13763980345119 
1873	 0.150657316689976 
1874	 0.150075726213937 
1875	 0.168839793499981 
1876	 0.153542324185476 
1877	 0.112651333513646 
1878	 9.85753052290544E-02 
1879	 9.02544605801031E-02 
1880	 6.65643554555773E-02 
1881	 6.97567415039666E-02 
1882	 9.34567275464286E-02 
1883	 0.111028554038836 
1884	 0.147980139852903 
1885	 0.149445086592262 
1886	 0.14462912045662 
1887	 0.124142779201086 
1888	 8.19896569161584E-02 
1889	 5.65279005814122E-02 
1890	 0.050735584459983 
1891	 0.0611289356778 
1892	 7.17943467038092E-02 
1893	 0.117380776103238 
1894	 0.134122032723328 
1895	 0.133600786205195 
1896	 0.140654806861593 
1897	 0.128984820443057 
1898	 0.13981801860587 
1899	 0.165005953697394 
1900	 0.189141949795054 
1901	 0.2214677572166 
1902	 0.273880213471725 
1903	 0.26991955633779 
1904	 0.229008460812376 
1905	 0.2123665493871 
1906	 0.164318174989251 
1907	 0.106430063514401 
1908	 0.142716630447535 
1909	 0.141715810007562 
1910	 0.114884613882356 
1911	 0.14200082578688 
1912	 0.159020287739651 
1913	 0.180666195985527 
1914	 0.170440719455351 
1915	 0.166962180906218 
1916	 0.154993757223208 
1917	 0.11478978730202 
1918	 0.11226823998317 
1919	 0.124448200183135 
1920	 0.117449224220035 
1921	 0.114599635272149 
1922	 9.99365806265872E-02 
1923	 8.85366619208971E-02 
1924	 6.87044177159693E-02 
1925	 5.96947714472207E-02 
1926	 5.18728776566495E-02 
1927	 5.01577082107409E-02 
1928	 0.05522116117779 
1929	 5.35544559473163E-02 
1930	 0.05506194372133 
1931	 6.66168305498101E-02 
1932	 6.55448606600208E-02 
1933	 7.25556986857853E-02 
1934	 7.41237733138822E-02 
1935	 7.14564307755705E-02 
1936	 7.05670540261955E-02 
1937	 6.96213892953144E-02 
1938	 6.67274381455328E-02 
1939	 6.36233617576887E-02 
1940	 6.27739160965799E-02 
1941	 5.85775114465445E-02 
1942	 5.71387457473734E-02 
1943	 5.43392615963345E-02 
1944	 5.07280312334713E-02 
1945	 5.06810677279835E-02 
1946	 5.40281594626232E-02 
1947	 5.51258168913189E-02 
1948	 5.80680655298794E-02 
1949	 6.00510236474241E-02 
1950	 6.29731655188255E-02 
1951	 5.75072572031695E-02 
1952	 5.91910413025704E-02 
1953	 6.16771373554936E-02 
1954	 5.68317756552307E-02 
1955	 0.058601839758774 
1956	 5.69556151649764E-02 
1957	 5.22685651941458E-02 
1958	 5.22719539679401E-02 
1959	 5.55133978923015E-02 
1960	 5.71767730671378E-02 
1961	 5.89375312427973E-02 
1962	 6.23221174639327E-02 
1963	 6.64882353255215E-02 
1964	 6.81496431075446E-02 
1965	 6.75480720492197E-02 
1966	 6.60871516840189E-02 
1967	 6.31121341866564E-02 
1968	 6.14621288848558E-02 
1969	 6.13162901737815E-02 
1970	 6.35858330801321E-02 
1971	 6.43573191590154E-02 
1972	 6.56216895195368E-02 
1973	 6.52457725885641E-02 
1974	 6.51694553352731E-02 
1975	 6.47821937136781E-02 
1976	 6.37465443657815E-02 
1977	 6.46304269198683E-02 
1978	 6.61743648982037E-02 
1979	 6.68452904178585E-02 
1980	 0.067206698691214 
1981	 6.76684103176837E-02 
1982	 6.75300334181108E-02 
1983	 6.57830956551701E-02 
1984	 6.55808925708306E-02 
1985	 6.78372324207634E-02 
1986	 6.82942993813268E-02 
1987	 6.97999374094721E-02 
1988	 7.16963145033497E-02 
1989	 7.16847726900552E-02 
1990	 7.27506850083854E-02 
1991	 7.24423277932734E-02 
1992	 7.17968450626862E-02 
1993	 7.20656946235441E-02 
1994	 7.12107782034331E-02 
1995	 0.071319922763558 
1996	 7.31990190642959E-02 
1997	 7.40605314690957E-02 
1998	 7.31826703433923E-02 
1999	 7.44771571241615E-02 
2000	 7.43299793529962E-02 
2001	 7.56642944056295E-02 
2002	 7.89636374696401E-02 
2003	 0.078047619260205 
2004	 7.60519911782841E-02 
2005	 7.41912633749239E-02 
2006	 7.48552888522116E-02 
2007	 7.56126414903872E-02 
2008	 8.07621925792207E-02 
2009	 8.52025352528939E-02 
2010	 8.78276884088378E-02 
2011	 8.99115713958199E-02 
2012	 8.93428161042905E-02 
2013	 8.91646942108799E-02 
2014	 9.12019383214773E-02 
2015	 0.091257264224973 
2016	 9.08079376074057E-02 
2017	 9.20549986332651E-02 
2018	 0.091756406355537 
2019	 9.21991211070692E-02 
2020	 9.31178378847151E-02 
2021	 9.41634068456237E-02 
2022	 9.29688341626233E-02 
2023	 9.38131381115424E-02 
2024	 9.48534221215379E-02 
2025	 9.46484398843539E-02 
2026	 9.52529238801348E-02 
2027	 9.60579394330859E-02 
2028	 9.63891836200579E-02 
2029	 9.67310200564423E-02 
2030	 0.097930904389427 
2031	 9.91177145341571E-02 
2032	 9.93726082495353E-02 
2033	 9.88950574340804E-02 
2034	 0.09794200533401 
2035	 9.81035401305544E-02 
2036	 9.79730714336969E-02 
2037	 9.77431311937087E-02 
2038	 9.91008946304634E-02 
2039	 9.92899556291238E-02 
2040	 9.94718443808428E-02 
2041	 0.100117899896741 
2042	 0.100792170979467 
2043	 0.102894594209468 
2044	 0.104065727344335 
2045	 0.104865526436001 
2046	 0.105529480878173 
2047	 0.106505809147166 
2048	 0.106904026002878 
2049	 0.10762119214415 
2050	 0.109373428517632 
2051	 0.111899691087975 
2052	 0.112833017269174 
2053	 0.11247865389593 
2054	 0.112694341170378 
2055	 0.112795276681328 
2056	 0.112289143697063 
2057	 0.11403752095006 
2058	 0.117129007688541 
2059	 0.118188279343823 
2060	 0.117603567230392 
2061	 0.118242687730512 
2062	 0.120697657904633 
2063	 0.12154620207414 
2064	 0.122738126569424 
2065	 0.124617869111567 
2066	 0.124245582623964 
2067	 0.122948310725087 
2068	 0.12367856321941 
2069	 0.124922862522188 
2070	 0.124531546099408 
2071	 0.124987137686107 
2072	 0.125572497901552 
2073	 0.126440015149538 
2074	 0.125621013643003 
2075	 0.125663175334489 
2076	 0.125979858436178 
2077	 0.125066662986047 
2078	 0.12513836592478 
2079	 0.12665283407741 
2080	 0.127849259584027 
2081	 0.128914365048677 
2082	 0.131015089340258 
2083	 0.133141102106015 
2084	 0.134281790089113 
2085	 0.134876629528882 
2086	 0.135319848305469 
2087	 0.135232521305523 
2088	 0.134109576447743 
2089	 0.133086092589557 
2090	 0.132835132339254 
2091	 0.132665045574612 
2092	 0.133843178163807 
2093	 0.136097495627777 
2094	 0.138205126577779 
2095	 0.139475599955809 
2096	 0.139780852046584 
2097	 0.140473811439107 
2098	 0.140961820645933 
2099	 0.142096362950953 
2100	 0.143523794001241 
2101	 0.14231252357046 
2102	 0.14190880805136 
2103	 0.141007254490765 
2104	 0.141196587199401 
2105	 0.141531482769496 
2106	 0.143444379683469 
2107	 0.145833684506767 
2108	 0.146741258546092 
2109	 0.145604578967804 
2110	 0.145526811019689 
2111	 0.145784992259359 
2112	 0.145139806214341 
2113	 0.14673540550714 
2114	 0.148448905379461 
2115	 0.149511427330009 
2116	 0.15086632916992 
2117	 0.151516563426257 
2118	 0.151596524785235 
2119	 0.1514394943173 
2120	 0.150489840315923 
2121	 0.150106955808435 
2122	 0.150164147856051 
2123	 0.150978606864939 
2124	 0.151885967863451 
2125	 0.15368203176747 
2126	 0.155365368986357 
2127	 0.15590398965436 
2128	 0.156036409306152 
2129	 0.154993986358981 
2130	 0.153534800509951 
2131	 0.153604881161503 
2132	 0.154637906310413 
2133	 0.15537272449344 
2134	 0.155974619113929 
2135	 0.15688855424462 
2136	 0.156903642965893 
2137	 0.156659834897604 
2138	 0.157356616957221 
2139	 0.157841590575057 
2140	 0.157934956029109 
2141	 0.158348471663541 
2142	 0.15878276227935 
2143	 0.159659710540851 
2144	 0.161587772826485 
2145	 0.162749819004531 
2146	 0.163188351407257 
2147	 0.163736845652519 
2148	 0.162255740554034 
2149	 0.16092259708588 
2150	 0.160972680847942 
2151	 0.16111465642909 
2152	 0.162147767971148 
2153	 0.162755565124495 
2154	 0.163698664231553 
2155	 0.163838010220169 
2156	 0.16405437622791 
2157	 0.163174159222512 
2158	 0.162826688805999 
2159	 0.163354540747313 
2160	 0.163922107163647 
2161	 0.164515607475194 
2162	 0.166151059887481 
2163	 0.168321509538211 
2164	 0.16943992530769 
2165	 0.170631517388798 
2166	 0.171316186153223 
2167	 0.171522533061572 
2168	 0.171951774830026 
2169	 0.172230371579415 
2170	 0.172451103159471 
2171	 0.173044001738206 
2172	 0.172731270017434 
2173	 0.172350391292697 
2174	 0.173148926209916 
2175	 0.173865816793304 
2176	 0.17550924511998 
2177	 0.177736742002309 
2178	 0.178885354596605 
2179	 0.178806327153121 
2180	 0.178540039215049 
2181	 0.177813268543104 
2182	 0.177397201148311 
2183	 0.179285082416776 
2184	 0.180254037709457 
2185	 0.177749684217583 
2186	 0.175355513118595 
2187	 0.17509736671094 
2188	 0.174797168784896 
2189	 0.175389719517158 
2190	 0.178551572082186 
2191	 0.181479244755223 
2192	 0.181140211120278 
2193	 0.179093532973462 
2194	 0.178724969853043 
2195	 0.178722123205796 
2196	 0.179451258985388 
2197	 0.182131056595399 
2198	 0.184067859647072 
2199	 0.185284981655206 
2200	 0.185989249109278 
2201	 0.185061036179309 
2202	 0.183393367198582 
2203	 0.18335221513516 
2204	 0.183616577579962 
2205	 0.183363870856709 
2206	 0.184876539869062 
2207	 0.185240061068428 
2208	 0.185991523559715 
2209	 0.187953937830317 
2210	 0.18929717083521 
2211	 0.190451951079643 
2212	 0.190756328748906 
2213	 0.19050916146139 
2214	 0.18908888215113 
2215	 0.187752521798459 
2216	 0.186166788746711 
2217	 0.185954268817012 
2218	 0.185467917601329 
2219	 0.184777616979856 
2220	 0.186294573035452 
2221	 0.187711977370121 
2222	 0.187753499328173 
2223	 0.186874146772713 
2224	 0.185768703724644 
2225	 0.183651308697206 
2226	 0.182027046485034 
2227	 0.183620556974908 
2228	 0.18580485888429 
2229	 0.186368099743133 
2230	 0.186336044805782 
2231	 0.186686432498005 
2232	 0.185567812514281 
2233	 0.184709487636084 
2234	 0.183801085373656 
2235	 0.18617962690038 
2236	 0.186986495974249 
2237	 0.184918870770996 
2238	 0.183937197583576 
2239	 0.181468445705284 
2240	 0.177991119203792 
2241	 0.178493594044612 
2242	 0.179876381068995 
2243	 0.178918983569692 
2244	 0.178366661402549 
2245	 0.17784425122086 
2246	 0.178058905488802 
2247	 0.180061280025604 
2248	 0.181869355326916 
2249	 0.183386765739204 
2250	 0.183548921379121 
2251	 0.182356726642364 
2252	 0.18096640565563 
2253	 0.178894363409388 
2254	 0.177049542905515 
2255	 0.17732468474535 
2256	 0.176945385235582 
2257	 0.176846982159212 
2258	 0.176542373040914 
2259	 0.177193262014752 
2260	 0.176051910515252 
2261	 0.175255623860301 
2262	 0.175008374298543 
2263	 0.174544018220148 
2264	 0.173934257518628 
2265	 0.172416404262874 
2266	 0.172224310685976 
2267	 0.170474896420063 
2268	 0.167733162314297 
2269	 0.167333762808695 
2270	 0.1662716093582 
2271	 0.167595788242799 
2272	 0.169097423429814 
2273	 0.168668878189358 
2274	 0.168111027217166 
2275	 0.16450162730815 
2276	 0.161630226015274 
2277	 0.159784965696034 
2278	 0.160244995745175 
2279	 0.162029066602589 
2280	 0.161192069575298 
2281	 0.161274857242754 
2282	 0.161902324391298 
2283	 0.160639256920775 
2284	 0.157634098435559 
2285	 0.15728068105267 
2286	 0.157414933342567 
2287	 0.156992221436178 
2288	 0.156261415493825 
2289	 0.16061148137053 
2290	 0.162695015304611 
2291	 0.160335205888537 
2292	 0.160919200905877 
2293	 0.160434862322772 
2294	 0.155692097061636 
2295	 0.15525464832645 
2296	 0.154428885083685 
2297	 0.151016015046153 
2298	 0.150113650707007 
2299	 0.147451922295155 
2300	 0.146285600947002 
2301	 0.146097972465868 
2302	 0.14433096665645 
2303	 0.14383978717261 
2304	 0.14105923738032 
2305	 0.137282600804495 
2306	 0.137342010020363 
2307	 0.139142538608563 
2308	 0.141312799519702 
2309	 0.142953623000246 
2310	 0.141160748287003 
2311	 0.138156581997546 
2312	 0.136966958761235 
2313	 0.135646005031246 
2314	 0.136480003359027 
2315	 0.136352034770479 
2316	 0.132034166802717 
2317	 0.133358662928749 
2318	 0.13612082895264 
2319	 0.137208883575639 
2320	 0.14059704080773 
2321	 0.141925665064733 
2322	 0.138038323933438 
2323	 0.136711564469877 
2324	 0.136456185296337 
2325	 0.137082354523534 
2326	 0.135476435843919 
2327	 0.133397701705191 
2328	 0.132468154823154 
2329	 0.133811125407441 
2330	 0.132955813882254 
2331	 0.135124964406224 
2332	 0.138947452167284 
2333	 0.133915660271592 
2334	 0.133939727127301 
2335	 0.13665104334402 
2336	 0.132527764292521 
2337	 0.133998578180601 
2338	 0.139007268515825 
2339	 0.136910242075025 
2340	 0.136136466642629 
2341	 0.139549514140816 
2342	 0.132921163777486 
2343	 0.12636217695727 
2344	 0.127069257245137 
2345	 0.123456020532578 
2346	 0.123226165515428 
2347	 0.125441609660484 
2348	 0.123950410374475 
2349	 0.119469757780038 
2350	 0.116752883436671 
2351	 0.118507312626398 
2352	 0.115833513501551 
2353	 0.118975562582137 
2354	 0.120142090321943 
2355	 0.110019034581847 
2356	 0.108293986874336 
2357	 0.111623202573454 
2358	 0.113283367076185 
2359	 0.117952716497296 
2360	 0.120838299888513 
2361	 0.114440323143053 
2362	 0.105840629557154 
2363	 0.105277900773713 
2364	 0.1104028079421 
2365	 0.116516541803072 
2366	 0.121248252429207 
2367	 0.120722504305877 
2368	 0.116085799192357 
2369	 0.113407836944877 
2370	 0.110072333090451 
2371	 0.109463618999988 
2372	 0.109052188665116 
2373	 0.107348734588922 
2374	 0.105379271935344 
2375	 0.10545702811782 
2376	 0.103120050455543 
2377	 9.91021311150298E-02 
2378	 9.57146657013322E-02 
2379	 8.93800717093006E-02 
2380	 9.02404711373943E-02 
2381	 9.49367623184794E-02 
2382	 9.76612036408865E-02 
2383	 0.105796266774892 
2384	 0.108604373125397 
2385	 0.110540357246394 
2386	 0.108088244393643 
2387	 9.72321420030151E-02 
2388	 9.57442241930523E-02 
2389	 9.39088857963741E-02 
2390	 9.32322975399486E-02 
2391	 0.102886223185985 
2392	 0.103063626293839 
2393	 9.70895278808808E-02 
2394	 9.52925240900333E-02 
2395	 9.16963856541157E-02 
2396	 8.92312020254161E-02 
2397	 0.086729253940735 
2398	 8.49733072022434E-02 
2399	 8.45235271317774E-02 
2400	 8.51690649908557E-02 
2401	 8.62143278883916E-02 
2402	 9.23424100103899E-02 
2403	 0.102318059908414 
2404	 9.66888340184433E-02 
2405	 9.42739049775061E-02 
2406	 9.48287873901945E-02 
2407	 9.03080437249504E-02 
2408	 9.25844389223858E-02 
2409	 9.22591888091578E-02 
2410	 8.92347164990061E-02 
2411	 8.05044161738175E-02 
2412	 7.10993243531831E-02 
2413	 6.97729982429937E-02 
2414	 6.82497950523898E-02 
2415	 5.97252777207752E-02 
2416	 5.80724450027058E-02 
2417	 7.13712735325806E-02 
2418	 7.93084076032538E-02 
2419	 8.64263935033011E-02 
2420	 9.00958646550278E-02 
2421	 7.57392160530771E-02 
2422	 5.90047363818725E-02 
2423	 4.92447371958494E-02 
2424	 4.50188707888777E-02 
2425	 4.96801689910462E-02 
2426	 5.23497300115005E-02 
2427	 4.82998508438053E-02 
2428	 4.57421509947543E-02 
2429	 4.71734336285981E-02 
2430	 5.33747814458487E-02 
2431	 6.29599622002575E-02 
2432	 7.27406217071714E-02 
2433	 0.077362852278589 
2434	 7.32072141521165E-02 
2435	 5.70950167723991E-02 
2436	 6.06736884289136E-02 
2437	 7.26995641367007E-02 
2438	 6.56109450329896E-02 
2439	 6.03454163286673E-02 
2440	 6.03375807852158E-02 
2441	 4.20404283737195E-02 
2442	 3.79863015308787E-02 
2443	 5.92193296268386E-02 
2444	 6.56288410272253E-02 
2445	 6.12832667613669E-02 
2446	 5.74048735989741E-02 
2447	 4.68345177558205E-02 
2448	 5.20207466742314E-02 
2449	 8.35174793937239E-02 
2450	 7.91827718449194E-02 
2451	 0.040527897949863 
2452	 4.60467400454551E-02 
2453	 5.49659944764526E-02 
2454	 5.52679936642455E-02 
2455	 9.49040502833585E-02 
2456	 0.110387053511977 
2457	 9.08351029708175E-02 
2458	 9.04109681771728E-02 
2459	 9.96147901784883E-02 
2460	 0.106987790966662 
2461	 0.120459681469044 
2462	 0.110080503898383 
2463	 8.27527188425943E-02 
2464	 7.01174288669378E-02 
2465	 4.87100851454366E-02 
2466	 0.035012659590514 
2467	 0.038153428120066 
2468	 4.27570900547251E-02 
2469	 4.66743392212781E-02 
2470	 3.10763887403431E-02 
2471	 5.08845489159438E-03 
2472	 8.4777841867393E-03 
2473	 1.89065894333319E-03 
2474	 2.38183966439227E-02 
2475	 0.125685981115191 
2476	 0.17448130197755 
2477	 0.226953147760662 
2478	 0.215726001711929 
2479	 9.99662519824746E-02 
2480	 2.45996002798422E-02 
2481	-9.83735079669602E-02 
2482	-0.130970963724702 
2483	-0.100820441139659 
2484	-4.40181986878533E-02 
2485	 0.186914040503209 
2486	 0.07476819935009 
2487	 7.22323013733297E-03 
2488	-4.70693956594723E-02 
2489	-0.295583174490479 
2490	-0.369132785039119 
2491	-0.38571652578697 
2492	-0.392800910506875 
2493	-0.210034133609982 
2494	-9.74414525775369E-02 
2495	-5.86870832850347E-03 
2496	 0.112326722966747 
2497	 2.04588751699614E-02 
2498	 8.27021948946438E-03 
2499	-9.58443535838158E-02 
2500	-0.273387491693409 
