Wavelength	ref00052.asd
350	 9.57819375000836E-02 
351	 9.57952829055381E-02 
352	 9.46289200637543E-02 
353	 0.095353873559253 
354	 9.48475881458088E-02 
355	 9.40406744966857E-02 
356	 0.093812314713599 
357	 0.093486729085806 
358	 9.23598057765844E-02 
359	 9.15542685716064E-02 
360	 0.092059602129551 
361	 9.18552811949052E-02 
362	 9.14119033704533E-02 
363	 9.11358036816844E-02 
364	 9.11893523987764E-02 
365	 0.09043131240522 
366	 8.94195315501605E-02 
367	 8.88582379768817E-02 
368	 8.93591890615837E-02 
369	 8.88780839944097E-02 
370	 8.81829420159265E-02 
371	 0.088175350990042 
372	 8.79679596110189E-02 
373	 8.77182619461105E-02 
374	 8.72820622128723E-02 
375	 8.65405618932795E-02 
376	 8.66986444706862E-02 
377	 8.67079498995502E-02 
378	 8.63076792190343E-02 
379	 8.63966303391086E-02 
380	 8.60718999259975E-02 
381	 0.085911796272374 
382	 8.61528757961016E-02 
383	 8.51350607729437E-02 
384	 0.085060346667425 
385	 8.54785897530559E-02 
386	 8.50573548709121E-02 
387	 8.51440704513912E-02 
388	 8.53887794039563E-02 
389	 8.53387774506195E-02 
390	 8.46508977104484E-02 
391	 8.47003678491545E-02 
392	 8.45875554257733E-02 
393	 8.37989366197225E-02 
394	 0.083620517297712 
395	 8.36549075325421E-02 
396	 8.36616492226908E-02 
397	 8.35354244714589E-02 
398	 8.36993498420648E-02 
399	 8.35640751983001E-02 
400	 8.33662753743806E-02 
401	 8.39081350333612E-02 
402	 8.33415372401412E-02 
403	 8.27638544029046E-02 
404	 8.29347131698075E-02 
405	 8.31199942601778E-02 
406	 8.29240540932724E-02 
407	 8.26253954635326E-02 
408	 8.26817590870312E-02 
409	 8.30416236178728E-02 
410	 8.29442574303304E-02 
411	 8.25389694679791E-02 
412	 8.27345021904041E-02 
413	 8.30902838650973E-02 
414	 8.31447238234652E-02 
415	 8.28836919341093E-02 
416	 8.32308655343909E-02 
417	 8.33607787710335E-02 
418	 8.33031753082315E-02 
419	 8.33409273761495E-02 
420	 8.34426918449842E-02 
421	 8.35786848859677E-02 
422	 0.083697448801738 
423	 8.37482431612931E-02 
424	 8.39649197664884E-02 
425	 8.42024637815698E-02 
426	 8.43195563007631E-02 
427	 8.42981638493702E-02 
428	 8.44752861944474E-02 
429	 8.47246857311271E-02 
430	 8.48228022083962E-02 
431	 8.50136652300801E-02 
432	 8.52218185142763E-02 
433	 8.53433866918914E-02 
434	 8.52926806451089E-02 
435	 0.085428258518165 
436	 8.55613078229901E-02 
437	 0.085577064489886 
438	 8.56991271867201E-02 
439	 8.58633570133524E-02 
440	 0.085979671055032 
441	 8.59980812989381E-02 
442	 8.61587840097583E-02 
443	 0.086242067250693 
444	 8.62667337266168E-02 
445	 8.64817554196718E-02 
446	 8.65638687198941E-02 
447	 8.66470334110439E-02 
448	 8.68191359171697E-02 
449	 8.68401957140043E-02 
450	 8.69131231734785E-02 
451	 8.70285749533253E-02 
452	 8.71022723656506E-02 
453	 8.71937388206083E-02 
454	 8.73220310602517E-02 
455	 8.74367334012473E-02 
456	 8.74161609683111E-02 
457	 8.75117492652769E-02 
458	 8.76128754143963E-02 
459	 8.75994566827774E-02 
460	 8.75601277223917E-02 
461	 8.76623515020779E-02 
462	 8.78043467064916E-02 
463	 8.77697585543266E-02 
464	 8.77682457947386E-02 
465	 8.78512712675679E-02 
466	 8.79922735033662E-02 
467	 8.80767817416382E-02 
468	 8.81843816695909E-02 
469	 8.83281051584338E-02 
470	 8.84744723322798E-02 
471	 8.84838942055024E-02 
472	 8.85208511636408E-02 
473	 8.86205237827533E-02 
474	 8.87163657320561E-02 
475	 8.87716543833995E-02 
476	 8.87538329563098E-02 
477	 0.088715083793715 
478	 8.88682849088055E-02 
479	 8.89506622159107E-02 
480	 8.90253560306503E-02 
481	 8.92060641202308E-02 
482	 8.92645964290563E-02 
483	 8.93192688845229E-02 
484	 0.089450781027895 
485	 8.96772727510353E-02 
486	 8.98531372838287E-02 
487	 8.99550284150342E-02 
488	 9.00477241283573E-02 
489	 9.03609048352211E-02 
490	 9.05667190392477E-02 
491	 9.07129221340395E-02 
492	 9.09838745228319E-02 
493	 9.12713811573614E-02 
494	 9.15904515927147E-02 
495	 9.19714783840251E-02 
496	 9.24510866594457E-02 
497	 9.28565642118693E-02 
498	 9.33314253134792E-02 
499	 9.40047942207108E-02 
500	 9.46861822554147E-02 
501	 9.54707867014868E-02 
502	 9.63361054394821E-02 
503	 9.72103749384029E-02 
504	 9.82785659136113E-02 
505	 0.099420611538837 
506	 0.100650146867146 
507	 0.102266332595488 
508	 0.103861231706058 
509	 0.105613090991793 
510	 0.107790562915774 
511	 0.110218018323058 
512	 0.112837269024011 
513	 0.115670696242088 
514	 0.118815350077107 
515	 0.122284450348081 
516	 0.126174892717119 
517	 0.130505525030516 
518	 0.13516107543509 
519	 0.139973927596841 
520	 0.144824837397841 
521	 0.149693090145116 
522	 0.154848242914264 
523	 0.16009587995993 
524	 0.165359902635978 
525	 0.170673584471087 
526	 0.176098246606334 
527	 0.181527763065144 
528	 0.18683074723929 
529	 0.191893952945978 
530	 0.196788479550865 
531	 0.201393969705267 
532	 0.205569332734766 
533	 0.209811277749372 
534	 0.213947171017795 
535	 0.2177786949727 
536	 0.221229732408162 
537	 0.224556514815288 
538	 0.227736962438198 
539	 0.23067821810962 
540	 0.233419362546812 
541	 0.236149146550615 
542	 0.238798090501648 
543	 0.24109876438434 
544	 0.243503459263932 
545	 0.245811050193717 
546	 0.247890220190108 
547	 0.250021343481399 
548	 0.251977711814181 
549	 0.253752613850537 
550	 0.255401164546438 
551	 0.256766105377071 
552	 0.257916142033639 
553	 0.258837367996164 
554	 0.259395124821448 
555	 0.259615705410605 
556	 0.259576743877749 
557	 0.259295315910864 
558	 0.258540703952161 
559	 0.257501287308877 
560	 0.25625738664355 
561	 0.254798393588386 
562	 0.253035837862478 
563	 0.251094568155818 
564	 0.248991479971447 
565	 0.246512134066616 
566	 0.244040351487271 
567	 0.241427947916015 
568	 0.238458972796074 
569	 0.235494395329976 
570	 0.232463858672233 
571	 0.229381359493155 
572	 0.226345757713713 
573	 0.223391497579723 
574	 0.220553824681744 
575	 0.217850882404288 
576	 0.215363265687557 
577	 0.212837976802305 
578	 0.210366146117313 
579	 0.208168850252195 
580	 0.206147182550019 
581	 0.204186750433407 
582	 0.202264568933209 
583	 0.200475357640447 
584	 0.198887785553914 
585	 0.197408911495421 
586	 0.195943672659989 
587	 0.194542577844888 
588	 0.19322229585961 
589	 0.191993629346349 
590	 0.190880084040111 
591	 0.189818736434338 
592	 0.188838824131283 
593	 0.187946472267401 
594	 0.18714278819796 
595	 0.186476798783339 
596	 0.185852034874479 
597	 0.185168218322298 
598	 0.184602377730917 
599	 0.184064006898804 
600	 0.183490735211529 
601	 0.182861080893814 
602	 0.182118888261661 
603	 0.181236191258018 
604	 0.180201280675025 
605	 0.179009050771782 
606	 0.177627025266423 
607	 0.176072330940272 
608	 0.174410308206019 
609	 0.172771292429172 
610	 0.171087502570401 
611	 0.169310278881126 
612	 0.167432415168462 
613	 0.165628320890535 
614	 0.163838789268677 
615	 0.162000531017472 
616	 0.160258390523121 
617	 0.158657884196057 
618	 0.157207140311047 
619	 0.155863679583046 
620	 0.154672616798521 
621	 0.153694599461977 
622	 0.152903196354329 
623	 0.152087593226749 
624	 0.151539513873937 
625	 0.151141337059455 
626	 0.150705525688017 
627	 0.15050869183095 
628	 0.150385272193783 
629	 0.150259421527149 
630	 0.150158797117141 
631	 0.149963951256835 
632	 0.149686317747211 
633	 0.149322696596199 
634	 0.148777925110064 
635	 0.147902774524857 
636	 0.146723400078294 
637	 0.145364134495508 
638	 0.143898626703457 
639	 0.142180576680533 
640	 0.140186455744805 
641	 0.138125655010806 
642	 0.135944372536697 
643	 0.133742281511066 
644	 0.131583901375513 
645	 0.129395066804158 
646	 0.127218417085144 
647	 0.125162043685693 
648	 0.123358388529832 
649	 0.12176133835254 
650	 0.120467243517231 
651	 0.119440279642124 
652	 0.118348716502707 
653	 0.117573770379874 
654	 0.116896385771709 
655	 0.115995275641235 
656	 0.115041793638288 
657	 0.113909186998079 
658	 0.112663552539034 
659	 0.111313402004395 
660	 0.109825346216211 
661	 0.10828805728591 
662	 0.106839914484402 
663	 0.105587545832966 
664	 0.104351721241245 
665	 0.103190311123177 
666	 0.102218963268997 
667	 0.10145722747097 
668	 0.100793687802335 
669	 0.100206681272125 
670	 0.09975595990974 
671	 9.95096000291169E-02 
672	 9.93908078005893E-02 
673	 9.93397562201267E-02 
674	 9.94015618917548E-02 
675	 9.95331133017703E-02 
676	 9.97331931096368E-02 
677	 0.100023220167915 
678	 0.100456962245024 
679	 0.100910083318638 
680	 0.101464324574398 
681	 0.102403993462205 
682	 0.103396466198138 
683	 0.104741202459224 
684	 0.106690380370802 
685	 0.109000855068096 
686	 0.112146897054743 
687	 0.11659067990034 
688	 0.122279054312903 
689	 0.128560182802192 
690	 0.135943828008198 
691	 0.145031868907956 
692	 0.155853726154742 
693	 0.168528934377751 
694	 0.182942330735086 
695	 0.198775716564926 
696	 0.215775558277645 
697	 0.233560850934826 
698	 0.251974594064138 
699	 0.270831207898739 
700	 0.289753263703451 
701	 0.308894473280297 
702	 0.32800123113135 
703	 0.346250023899614 
704	 0.363944601615171 
705	 0.380957818290285 
706	 0.397369985420211 
707	 0.413516175918412 
708	 0.428907375303173 
709	 0.443709107944749 
710	 0.458239417515347 
711	 0.472295242406121 
712	 0.485890537248194 
713	 0.498987129859411 
714	 0.511491070624424 
715	 0.523226873064724 
716	 0.534062459960137 
717	 0.544373340870754 
718	 0.554837896929895 
719	 0.565820415869688 
720	 0.576900408216587 
721	 0.587368688828042 
722	 0.596680473781344 
723	 0.604909411575527 
724	 0.612793806992301 
725	 0.620736489757469 
726	 0.628267520415744 
727	 0.635347067579579 
728	 0.642160434908464 
729	 0.648577810207992 
730	 0.654460011868475 
731	 0.66009478923224 
732	 0.665809899358033 
733	 0.671028288096456 
734	 0.675624043945082 
735	 0.679712549052094 
736	 0.683491613687779 
737	 0.687407960935587 
738	 0.691050583707179 
739	 0.69420075931442 
740	 0.697203607792554 
741	 0.699936780645641 
742	 0.702348846779125 
743	 0.704433728857753 
744	 0.70636281618152 
745	 0.708199281074461 
746	 0.709914223216869 
747	 0.71141027043212 
748	 0.712652855386732 
749	 0.713929053105297 
750	 0.715262291817609 
751	 0.716168907303969 
752	 0.716933568701124 
753	 0.71771628550006 
754	 0.718559978878324 
755	 0.719237480924927 
756	 0.719820503908689 
757	 0.720211595257895 
758	 0.720355358755381 
759	 0.721375932410759 
760	 0.723615858200666 
761	 0.726550526528276 
762	 0.727117299734851 
763	 0.726791260709552 
764	 0.726323326903559 
765	 0.725877961211375 
766	 0.72516641676172 
767	 0.724673807176536 
768	 0.724442375357094 
769	 0.724381033713909 
770	 0.724341359597285 
771	 0.72445675795503 
772	 0.724730111097396 
773	 0.725025161934024 
774	 0.725094319823277 
775	 0.725117947746817 
776	 0.725236176921772 
777	 0.725396647144681 
778	 0.725620356058909 
779	 0.725818824951829 
780	 0.725929387850192 
781	 0.726069997166652 
782	 0.726331580265538 
783	 0.726599172499509 
784	 0.72669294254537 
785	 0.726828821645803 
786	 0.726966795741757 
787	 0.72703652949237 
788	 0.72697842056772 
789	 0.727156888124857 
790	 0.727326223112507 
791	 0.727373608469643 
792	 0.727711008400349 
793	 0.728169311376751 
794	 0.728597219420747 
795	 0.728863460618446 
796	 0.728900486760844 
797	 0.729107023722375 
798	 0.729432370570049 
799	 0.729588471237957 
800	 0.729783479947088 
801	 0.729876846118384 
802	 0.72992841770618 
803	 0.730240315975567 
804	 0.730651162905363 
805	 0.731111341851509 
806	 0.731530810779691 
807	 0.731708721192979 
808	 0.731802869231652 
809	 0.731818010326597 
810	 0.731714251597652 
811	 0.731513764724817 
812	 0.73083814176554 
813	 0.730024373193909 
814	 0.729708864360141 
815	 0.729174282884755 
816	 0.728977473326103 
817	 0.729372820906514 
818	 0.730100060616922 
819	 0.730675722646822 
820	 0.731182030406112 
821	 0.731667109411405 
822	 0.73193096809493 
823	 0.731946780639282 
824	 0.732265176333065 
825	 0.733137477592309 
826	 0.733583562132553 
827	 0.733877654987964 
828	 0.734000056608232 
829	 0.733933638635822 
830	 0.734247965479691 
831	 0.734781902041265 
832	 0.735303615763627 
833	 0.735636040709409 
834	 0.73625089449925 
835	 0.736752246392812 
836	 0.737110610000534 
837	 0.737804290718861 
838	 0.738168300592519 
839	 0.738451095757432 
840	 0.738869312647495 
841	 0.739221597089186 
842	 0.739542098429764 
843	 0.73986422857278 
844	 0.740203776692729 
845	 0.740497393063365 
846	 0.740950379290254 
847	 0.741282119846032 
848	 0.741169784530214 
849	 0.74123932452045 
850	 0.741541501159737 
851	 0.741977576599917 
852	 0.742326113984286 
853	 0.742231277528012 
854	 0.742319628377144 
855	 0.742806990338504 
856	 0.743301843672461 
857	 0.743678540266612 
858	 0.743952073278261 
859	 0.744112026949168 
860	 0.7440378344162 
861	 0.744247249009111 
862	 0.744649897468556 
863	 0.744974183655478 
864	 0.744863806221295 
865	 0.74550719101599 
866	 0.746181101896092 
867	 0.746022894543042 
868	 0.746481799326317 
869	 0.746558405717911 
870	 0.746374211363509 
871	 0.746495035556908 
872	 0.746710123755052 
873	 0.74714513261374 
874	 0.747648179465485 
875	 0.747899899730924 
876	 0.747925531218693 
877	 0.748125454009456 
878	 0.748479592011563 
879	 0.748573239716212 
880	 0.748933104868827 
881	 0.749282483295606 
882	 0.749387598252741 
883	 0.749265361098095 
884	 0.749388231388278 
885	 0.749759658843591 
886	 0.750133619371115 
887	 0.750039936927966 
888	 0.750054068136544 
889	 0.750217777855855 
890	 0.7504211996003 
891	 0.750602579275068 
892	 0.750114291704624 
893	 0.749490121823791 
894	 0.749302648270132 
895	 0.748715273909965 
896	 0.74831292158855 
897	 0.747924871695099 
898	 0.747305309628316 
899	 0.747381678019322 
900	 0.747910461044452 
901	 0.748567099465303 
902	 0.749059331869667 
903	 0.749386848875869 
904	 0.749703646744731 
905	 0.750127221716003 
906	 0.750583102775713 
907	 0.750027968201232 
908	 0.749630547469528 
909	 0.749690953151035 
910	 0.749611117052415 
911	 0.749232891523753 
912	 0.749182754592258 
913	 0.749594303848045 
914	 0.750034491808177 
915	 0.750346661533857 
916	 0.750891672970005 
917	 0.751717057972804 
918	 0.752429736384254 
919	 0.752729922136862 
920	 0.753074221103702 
921	 0.753612442500061 
922	 0.753948399206211 
923	 0.753882724998129 
924	 0.753370664211127 
925	 0.752546170399509 
926	 0.751722674371283 
927	 0.750526289595112 
928	 0.749047060867554 
929	 0.747286437064655 
930	 0.744916503292355 
931	 0.743027564556133 
932	 0.740540539251338 
933	 0.737326314920654 
934	 0.736580005816714 
935	 0.736588240399749 
936	 0.736438024746004 
937	 0.736192398454847 
938	 0.737239496686756 
939	 0.737178462449775 
940	 0.737246258721435 
941	 0.738307305273032 
942	 0.739018403001076 
943	 0.738810368833183 
944	 0.738787852280704 
945	 0.739123192625175 
946	 0.737083030261221 
947	 0.735225695445941 
948	 0.73426663447809 
949	 0.734720851253592 
950	 0.737800557484867 
951	 0.736428750425293 
952	 0.734301550369424 
953	 0.734720531047639 
954	 0.734226478816317 
955	 0.734585454208144 
956	 0.735644579780528 
957	 0.736658388529396 
958	 0.736763449781811 
959	 0.735683502556825 
960	 0.734954750516174 
961	 0.735506125350094 
962	 0.736372040108515 
963	 0.737260911490052 
964	 0.738128721335668 
965	 0.739160051776438 
966	 0.740720348798055 
967	 0.741268453403217 
968	 0.74165453571319 
969	 0.742575654059434 
970	 0.74358939026223 
971	 0.742716840491585 
972	 0.742492177229802 
973	 0.743849242802356 
974	 0.744193054199394 
975	 0.743332665475793 
976	 0.743221497599589 
977	 0.744304813060832 
978	 0.744651202265063 
979	 0.744737992976057 
980	 0.745240038748099 
981	 0.746164420830229 
982	 0.746767403497602 
983	 0.746709414710054 
984	 0.747633059882138 
985	 0.749000779546165 
986	 0.748651684295512 
987	 0.749776460688605 
988	 0.750815791852896 
989	 0.751374310335896 
990	 0.752171747086422 
991	 0.752185379246984 
992	 0.752858759444304 
993	 0.754633640850308 
994	 0.756354807639537 
995	 0.753221989596936 
996	 0.753338795377919 
997	 0.754882436765145 
998	 0.752923810256719 
999	 0.753311915168779 
1000	 0.754341260809786 
1001	 0.749086317495541 
1002	 0.749633014385427 
1003	 0.750164256080989 
1004	 0.750599682323814 
1005	 0.75117333737508 
1006	 0.751843997166536 
1007	 0.75235264689067 
1008	 0.752848003431351 
1009	 0.753237727542756 
1010	 0.753403564635532 
1011	 0.753741428576801 
1012	 0.754067305159926 
1013	 0.754515636410455 
1014	 0.754830392862382 
1015	 0.755127695720668 
1016	 0.755603058127359 
1017	 0.756009312855898 
1018	 0.756486267655004 
1019	 0.757099083434663 
1020	 0.757648200486557 
1021	 0.758242739367495 
1022	 0.75875924913672 
1023	 0.759323486676584 
1024	 0.759681160220639 
1025	 0.759919021839426 
1026	 0.759982655140586 
1027	 0.760079978620504 
1028	 0.760303098443016 
1029	 0.760696544756034 
1030	 0.761273652171639 
1031	 0.761805593805524 
1032	 0.762412705839366 
1033	 0.762914724668618 
1034	 0.763266496698882 
1035	 0.763705715781445 
1036	 0.76422419756005 
1037	 0.764579832261931 
1038	 0.764849271033727 
1039	 0.765252774608615 
1040	 0.765532133224171 
1041	 0.765717907707452 
1042	 0.765915888285017 
1043	 0.766052436969538 
1044	 0.766099125091717 
1045	 0.766341737635622 
1046	 0.766717607346368 
1047	 0.766886192221343 
1048	 0.767032531110261 
1049	 0.767256402356034 
1050	 0.767455232250942 
1051	 0.767612353169221 
1052	 0.767756866011237 
1053	 0.767944446007505 
1054	 0.768131420560386 
1055	 0.768298183364892 
1056	 0.768677796153915 
1057	 0.769118852524576 
1058	 0.769332746997857 
1059	 0.769356313815386 
1060	 0.769559002803859 
1061	 0.769755945661188 
1062	 0.769711423648775 
1063	 0.76983429472596 
1064	 0.769911348071089 
1065	 0.769920552885145 
1066	 0.769813412563858 
1067	 0.770021613483547 
1068	 0.770059831471568 
1069	 0.769919539330982 
1070	 0.770035101856295 
1071	 0.770053173599473 
1072	 0.770106685864754 
1073	 0.770352060097023 
1074	 0.770356186476485 
1075	 0.770223243359858 
1076	 0.770171700589111 
1077	 0.770015988813938 
1078	 0.769728327590392 
1079	 0.769503864688403 
1080	 0.769333036205015 
1081	 0.769244411991751 
1082	 0.769188045757994 
1083	 0.769268051253452 
1084	 0.769298737118717 
1085	 0.769196831916767 
1086	 0.76889485687182 
1087	 0.768621389017974 
1088	 0.768545725558847 
1089	 0.768391306904599 
1090	 0.768206199994351 
1091	 0.767948205099702 
1092	 0.767638559066202 
1093	 0.767409570302803 
1094	 0.767101415367607 
1095	 0.766800439304116 
1096	 0.76636270654644 
1097	 0.765626395141833 
1098	 0.76505879232889 
1099	 0.764509909036171 
1100	 0.763979301446613 
1101	 0.763521813422285 
1102	 0.763165029262545 
1103	 0.762622625799647 
1104	 0.762070310194036 
1105	 0.761551684784019 
1106	 0.760866200562074 
1107	 0.760061616053272 
1108	 0.759158304884742 
1109	 0.758130747915218 
1110	 0.75692455462059 
1111	 0.755659450273603 
1112	 0.75435867611442 
1113	 0.752856775641526 
1114	 0.750985593571347 
1115	 0.749108475464073 
1116	 0.747044844687742 
1117	 0.744893905944035 
1118	 0.742736409896074 
1119	 0.740656425720109 
1120	 0.738708534461337 
1121	 0.736970015364084 
1122	 0.735803256091825 
1123	 0.735071635858494 
1124	 0.733921682122799 
1125	 0.732889946411546 
1126	 0.732192219898075 
1127	 0.731127627449467 
1128	 0.730814076340085 
1129	 0.731625016583495 
1130	 0.731729564008123 
1131	 0.731999838657243 
1132	 0.731882625986634 
1133	 0.731572280216666 
1134	 0.730857659841656 
1135	 0.730248410416641 
1136	 0.72946878729667 
1137	 0.728419887909383 
1138	 0.727523153824985 
1139	 0.726377645503531 
1140	 0.724744747111469 
1141	 0.723244252054044 
1142	 0.721708146593162 
1143	 0.720021234716212 
1144	 0.718087714600229 
1145	 0.716457555140216 
1146	 0.7146663189493 
1147	 0.713224217965739 
1148	 0.712033200993605 
1149	 0.711121301720568 
1150	 0.710503426263716 
1151	 0.710030270114755 
1152	 0.709854063332038 
1153	 0.709635415594306 
1154	 0.709613267607275 
1155	 0.709757265782746 
1156	 0.710045504820594 
1157	 0.710416890165332 
1158	 0.710712761126616 
1159	 0.710986282655251 
1160	 0.711180331261616 
1161	 0.711259104871231 
1162	 0.711445027337833 
1163	 0.711656841553989 
1164	 0.711820157210015 
1165	 0.712084321440424 
1166	 0.712183006720594 
1167	 0.712086032371037 
1168	 0.712129092312876 
1169	 0.71216361094824 
1170	 0.712248952233681 
1171	 0.712304081355891 
1172	 0.712452302485574 
1173	 0.712464545375908 
1174	 0.712312180836084 
1175	 0.712353672396562 
1176	 0.712361490809457 
1177	 0.712335576378579 
1178	 0.712352533051415 
1179	 0.712326416517552 
1180	 0.71218860518536 
1181	 0.712118899609985 
1182	 0.712139771513385 
1183	 0.712048455782081 
1184	 0.711876232345098 
1185	 0.711777400186886 
1186	 0.711579293904461 
1187	 0.711526436816526 
1188	 0.711543123566467 
1189	 0.711690219613955 
1190	 0.711883979372536 
1191	 0.711900309315152 
1192	 0.711918376684563 
1193	 0.711972996654682 
1194	 0.712029994072299 
1195	 0.712094711637833 
1196	 0.712178312835347 
1197	 0.712260643808324 
1198	 0.712348361181665 
1199	 0.712444788667246 
1200	 0.712577145891663 
1201	 0.712661719868333 
1202	 0.712920056400716 
1203	 0.713315339381599 
1204	 0.713651352375823 
1205	 0.714136493589697 
1206	 0.714489128363598 
1207	 0.714648921944448 
1208	 0.714956359678374 
1209	 0.715337391801913 
1210	 0.715641976911944 
1211	 0.716048818102431 
1212	 0.716525329629087 
1213	 0.716988317461602 
1214	 0.717475288863514 
1215	 0.717921757529315 
1216	 0.718385461475543 
1217	 0.718832996556558 
1218	 0.719232981398632 
1219	 0.71964312572212 
1220	 0.720078623420758 
1221	 0.720488048634762 
1222	 0.720856704569058 
1223	 0.72126194754817 
1224	 0.721695414475812 
1225	 0.722103187447447 
1226	 0.722461302570198 
1227	 0.722889387019414 
1228	 0.723316898450615 
1229	 0.72384034393678 
1230	 0.724336085500763 
1231	 0.724738195392703 
1232	 0.725139765280507 
1233	 0.725462684600947 
1234	 0.725839039642603 
1235	 0.72625677383986 
1236	 0.726605967606799 
1237	 0.726919999536348 
1238	 0.72722357447191 
1239	 0.727449214641438 
1240	 0.727781134170129 
1241	 0.728176612446946 
1242	 0.728526379667302 
1243	 0.728951238277581 
1244	 0.729285904593323 
1245	 0.729550512122143 
1246	 0.729805290949375 
1247	 0.730009741120649 
1248	 0.730224208859922 
1249	 0.730384474522168 
1250	 0.730599787178348 
1251	 0.730888184629647 
1252	 0.731134552991756 
1253	 0.73132590760979 
1254	 0.731496045138321 
1255	 0.731692089081467 
1256	 0.731811984193848 
1257	 0.732023697544402 
1258	 0.732379626920685 
1259	 0.732572987103051 
1260	 0.732692604180959 
1261	 0.732838522720817 
1262	 0.732905384386363 
1263	 0.73301859276358 
1264	 0.7331828151175 
1265	 0.733311637988312 
1266	 0.733434917608558 
1267	 0.733528746552381 
1268	 0.733593166416336 
1269	 0.73366220211416 
1270	 0.73375312574148 
1271	 0.733760390032974 
1272	 0.733743330228204 
1273	 0.733671634843974 
1274	 0.733589489887265 
1275	 0.73342256814262 
1276	 0.733315790052804 
1277	 0.73324007015427 
1278	 0.733121381456063 
1279	 0.733011343937891 
1280	 0.732828065730821 
1281	 0.732611578651866 
1282	 0.732354759864769 
1283	 0.732037537488414 
1284	 0.731710065119262 
1285	 0.731403006380075 
1286	 0.730980230496568 
1287	 0.730432590630003 
1288	 0.729954370445361 
1289	 0.729423471556866 
1290	 0.728914028864468 
1291	 0.728551334153088 
1292	 0.728010953900648 
1293	 0.727283549988499 
1294	 0.726648701272321 
1295	 0.726077181329984 
1296	 0.725322628857042 
1297	 0.724541634144531 
1298	 0.723824210572491 
1299	 0.72287716251259 
1300	 0.721668146799088 
1301	 0.720617360970884 
1302	 0.719527077046289 
1303	 0.718462525917729 
1304	 0.717457036455719 
1305	 0.716360807277049 
1306	 0.715187164902805 
1307	 0.714064472894315 
1308	 0.713027462063073 
1309	 0.711777582436153 
1310	 0.710447972204618 
1311	 0.709078954430648 
1312	 0.70754640783896 
1313	 0.705992519193425 
1314	 0.704389179047281 
1315	 0.702827216394399 
1316	 0.701275922478628 
1317	 0.699613377445748 
1318	 0.69796887962735 
1319	 0.696250322508543 
1320	 0.694373636272388 
1321	 0.692451337774915 
1322	 0.69046666952313 
1323	 0.68842698529537 
1324	 0.686296911355601 
1325	 0.683981489754073 
1326	 0.681720752091925 
1327	 0.679424583691079 
1328	 0.67701118371842 
1329	 0.674468986715838 
1330	 0.671971525666956 
1331	 0.669372261201672 
1332	 0.666872979130246 
1333	 0.664521176231959 
1334	 0.662120887203657 
1335	 0.659694879896881 
1336	 0.65737484577881 
1337	 0.655026741960433 
1338	 0.652779245906775 
1339	 0.650605596829535 
1340	 0.648334077348159 
1341	 0.64588955562611 
1342	 0.643381959071765 
1343	 0.640386875718906 
1344	 0.637411698247868 
1345	 0.63414245815994 
1346	 0.630364288972334 
1347	 0.626411298485202 
1348	 0.621934570855819 
1349	 0.617430927378395 
1350	 0.612470401014025 
1351	 0.607352967441491 
1352	 0.603080689109743 
1353	 0.597329647351258 
1354	 0.592572834820729 
1355	 0.585629879003638 
1356	 0.580529847231284 
1357	 0.571233189047075 
1358	 0.563997698715536 
1359	 0.552362860560117 
1360	 0.549298446192101 
1361	 0.532785028221309 
1362	 0.518305706207723 
1363	 0.498593062102919 
1364	 0.486087061293598 
1365	 0.469720170508922 
1366	 0.479881826951725 
1367	 0.473848223942292 
1368	 0.455695994164868 
1369	 0.450673372960151 
1370	 0.447306642815301 
1371	 0.449890134634328 
1372	 0.463344549872647 
1373	 0.466221267316469 
1374	 0.465335352479889 
1375	 0.465996785673549 
1376	 0.467217264151363 
1377	 0.464844757472877 
1378	 0.461666638717156 
1379	 0.461964193052824 
1380	 0.45310004659841 
1381	 0.435321046226499 
1382	 0.424747534678122 
1383	 0.414737712636144 
1384	 0.405931941110439 
1385	 0.401761622664998 
1386	 0.393372139996314 
1387	 0.383688178192015 
1388	 0.376627779517675 
1389	 0.370778557155273 
1390	 0.364726526751045 
1391	 0.358268578306104 
1392	 0.353891359637297 
1393	 0.351670824799603 
1394	 0.345856768726296 
1395	 0.340218541103164 
1396	 0.333855065586215 
1397	 0.324043047468871 
1398	 0.316862200226714 
1399	 0.311902594551907 
1400	 0.305532629643306 
1401	 0.298927619502687 
1402	 0.292674670493427 
1403	 0.287108629379649 
1404	 0.280761884624569 
1405	 0.273780138569696 
1406	 0.268818578953717 
1407	 0.264295283524485 
1408	 0.259569983550546 
1409	 0.256384253055553 
1410	 0.253560662996859 
1411	 0.251117565548964 
1412	 0.248857048861873 
1413	 0.246993834462478 
1414	 0.245860609984871 
1415	 0.243901378654046 
1416	 0.241808544721486 
1417	 0.239759616146887 
1418	 0.237303108843697 
1419	 0.235634554925674 
1420	 0.23429677296929 
1421	 0.232922612021159 
1422	 0.231875400330737 
1423	 0.230569834151901 
1424	 0.22901988169839 
1425	 0.227797309863137 
1426	 0.226353753159449 
1427	 0.225484159722329 
1428	 0.22517028553596 
1429	 0.22443299722046 
1430	 0.223859986706311 
1431	 0.223038801509254 
1432	 0.221606064052862 
1433	 0.22067907092442 
1434	 0.219947881066922 
1435	 0.21925051392832 
1436	 0.218754403786313 
1437	 0.218286577314007 
1438	 0.217791978513623 
1439	 0.217435541685402 
1440	 0.217086585046133 
1441	 0.217040928773767 
1442	 0.217268905345378 
1443	 0.217458681400794 
1444	 0.217745573407754 
1445	 0.217877947863088 
1446	 0.217801836998461 
1447	 0.21795108090926 
1448	 0.218318568048259 
1449	 0.218862796897583 
1450	 0.219358480315637 
1451	 0.2199810168485 
1452	 0.220510043489889 
1453	 0.221061256988987 
1454	 0.221412216277205 
1455	 0.221736632848548 
1456	 0.221972524958436 
1457	 0.221968197182373 
1458	 0.222260288195416 
1459	 0.222720234410845 
1460	 0.223062857207055 
1461	 0.223484584354336 
1462	 0.223920791789334 
1463	 0.224196071337901 
1464	 0.224786254563211 
1465	 0.225605224955464 
1466	 0.226518709013833 
1467	 0.22757297350257 
1468	 0.228836525762068 
1469	 0.230245494030558 
1470	 0.231804359261482 
1471	 0.233563649314936 
1472	 0.23525740896877 
1473	 0.236778790579443 
1474	 0.238556118933246 
1475	 0.240332459041092 
1476	 0.242263189528774 
1477	 0.244333394864766 
1478	 0.246489114973933 
1479	 0.24872430281829 
1480	 0.25093504121538 
1481	 0.253151608417037 
1482	 0.255452414388356 
1483	 0.257704533523752 
1484	 0.260032339632732 
1485	 0.262350472155277 
1486	 0.26480442240122 
1487	 0.267313309927728 
1488	 0.269809973876082 
1489	 0.272403644833303 
1490	 0.274854534528321 
1491	 0.277229694833363 
1492	 0.279671977825257 
1493	 0.282024147160772 
1494	 0.284280853515875 
1495	 0.286602306918383 
1496	 0.288927574066638 
1497	 0.291264441223812 
1498	 0.29374698714178 
1499	 0.296012820213876 
1500	 0.298190943125754 
1501	 0.300479892410608 
1502	 0.302675683900891 
1503	 0.305137233259954 
1504	 0.30782021585432 
1505	 0.310360474801492 
1506	 0.312988306930411 
1507	 0.315470628962547 
1508	 0.317890886013308 
1509	 0.320200071261353 
1510	 0.322375386965 
1511	 0.324650217685701 
1512	 0.326850771873579 
1513	 0.329142474629808 
1514	 0.331537175222463 
1515	 0.333932718739609 
1516	 0.336389586106185 
1517	 0.338792140357417 
1518	 0.34125828555085 
1519	 0.343657185103285 
1520	 0.346014892570422 
1521	 0.34832484719501 
1522	 0.350596839046974 
1523	 0.352872370488896 
1524	 0.355130337256202 
1525	 0.35734106860993 
1526	 0.359514856707884 
1527	 0.361740271186142 
1528	 0.36398156652332 
1529	 0.366164319957971 
1530	 0.36837821259759 
1531	 0.370558405251659 
1532	 0.372652823171181 
1533	 0.374766077512068 
1534	 0.376938172656031 
1535	 0.379041392824799 
1536	 0.381059953289217 
1537	 0.383130865103692 
1538	 0.385218991492711 
1539	 0.387274605767914 
1540	 0.389378357098323 
1541	 0.391393508385866 
1542	 0.393298482027283 
1543	 0.395254741690666 
1544	 0.397220549453265 
1545	 0.399149438904847 
1546	 0.401147372195695 
1547	 0.403027704192701 
1548	 0.404775866657916 
1549	 0.406550770071915 
1550	 0.408218376838083 
1551	 0.409989526977293 
1552	 0.411871866400186 
1553	 0.41369867866387 
1554	 0.415626123589252 
1555	 0.41742054652564 
1556	 0.419050905700764 
1557	 0.420743629367242 
1558	 0.422386156647412 
1559	 0.424049565978649 
1560	 0.425798353226687 
1561	 0.427494850627853 
1562	 0.42915300928812 
1563	 0.430818608199124 
1564	 0.432467005111446 
1565	 0.434149401924278 
1566	 0.435776574615068 
1567	 0.437365159949905 
1568	 0.439043750209489 
1569	 0.440747502280687 
1570	 0.442375514287826 
1571	 0.444051628774289 
1572	 0.4456454498029 
1573	 0.447095275412806 
1574	 0.448661003625115 
1575	 0.450286707693998 
1576	 0.451791995278592 
1577	 0.453235451254545 
1578	 0.454683237187744 
1579	 0.456062540415281 
1580	 0.457442394233498 
1581	 0.458808091369422 
1582	 0.460188995528991 
1583	 0.461518294772023 
1584	 0.462932542633717 
1585	 0.464454045025124 
1586	 0.465808407893361 
1587	 0.467138963295693 
1588	 0.468420705162589 
1589	 0.469595064466446 
1590	 0.470816893905617 
1591	 0.472022266844036 
1592	 0.473303005206661 
1593	 0.474600836858324 
1594	 0.475908971304876 
1595	 0.477347086872922 
1596	 0.478575940516244 
1597	 0.479703327485446 
1598	 0.480859222185108 
1599	 0.481940332787329 
1600	 0.483026649120189 
1601	 0.484078001610403 
1602	 0.485260823541084 
1603	 0.486464833031125 
1604	 0.48767078965759 
1605	 0.489036972940705 
1606	 0.490182875299661 
1607	 0.491163210098037 
1608	 0.492241827319028 
1609	 0.493285827050427 
1610	 0.494340440168629 
1611	 0.495446013285402 
1612	 0.496454780433214 
1613	 0.497405225634284 
1614	 0.498346710511606 
1615	 0.499229620179673 
1616	 0.500147621958568 
1617	 0.501080184690591 
1618	 0.50193858941034 
1619	 0.502750930109286 
1620	 0.5036471118719 
1621	 0.504540298719901 
1622	 0.505409998521867 
1623	 0.50637852109493 
1624	 0.507179422830671 
1625	 0.507849973138934 
1626	 0.50856980441697 
1627	 0.50923017453626 
1628	 0.509996892083459 
1629	 0.510824393583883 
1630	 0.511585528051886 
1631	 0.512392003490959 
1632	 0.513134591154705 
1633	 0.513851357272606 
1634	 0.514464799105486 
1635	 0.514992314822022 
1636	 0.515625771935752 
1637	 0.516180271426349 
1638	 0.516838104639867 
1639	 0.517699050494777 
1640	 0.518291268112197 
1641	 0.518761303587876 
1642	 0.519224753288543 
1643	 0.519590305627965 
1644	 0.519956992011975 
1645	 0.520295177136012 
1646	 0.520638949393003 
1647	 0.520878935740243 
1648	 0.521334591977143 
1649	 0.521903067735843 
1650	 0.52241945904067 
1651	 0.523087810814331 
1652	 0.523487215411585 
1653	 0.523796854788057 
1654	 0.523971905042212 
1655	 0.523983279779967 
1656	 0.524000119400792 
1657	 0.523903373664175 
1658	 0.523758128512137 
1659	 0.523707391420574 
1660	 0.523651864646207 
1661	 0.523464540382271 
1662	 0.523380819789072 
1663	 0.523365413389055 
1664	 0.523155537155992 
1665	 0.523036699984916 
1666	 0.522991393737814 
1667	 0.522863736662008 
1668	 0.522947643125876 
1669	 0.522996835605833 
1670	 0.522837722109322 
1671	 0.522716618381633 
1672	 0.52251046791048 
1673	 0.522261988614131 
1674	 0.522305246129846 
1675	 0.522264346656684 
1676	 0.522033013963462 
1677	 0.522154342929152 
1678	 0.522275713613431 
1679	 0.522143696421922 
1680	 0.522015043931603 
1681	 0.521805188920364 
1682	 0.521367786971565 
1683	 0.520963964411887 
1684	 0.520829237424 
1685	 0.520730612391584 
1686	 0.520649120273381 
1687	 0.520604469642262 
1688	 0.520414345114895 
1689	 0.520070732632508 
1690	 0.519644184451727 
1691	 0.519254275853402 
1692	 0.518839604927274 
1693	 0.518414803591708 
1694	 0.51798197264026 
1695	 0.517568479917613 
1696	 0.517165836337083 
1697	 0.516770309186845 
1698	 0.516397282630018 
1699	 0.515948868039359 
1700	 0.515527410242295 
1701	 0.515028225909954 
1702	 0.51438591723173 
1703	 0.513840338247893 
1704	 0.513272798736637 
1705	 0.512669671115368 
1706	 0.512171013059055 
1707	 0.511553134432803 
1708	 0.51082504969671 
1709	 0.510137417511195 
1710	 0.509382478098668 
1711	 0.508667952431528 
1712	 0.507952207981016 
1713	 0.507327151995581 
1714	 0.506792737697679 
1715	 0.506183223956092 
1716	 0.50565562382531 
1717	 0.504961825127793 
1718	 0.504078180747384 
1719	 0.503381684341761 
1720	 0.50279354792263 
1721	 0.501937224915845 
1722	 0.500876484129773 
1723	 0.50013752483522 
1724	 0.499385694551423 
1725	 0.498742212830578 
1726	 0.49850376495009 
1727	 0.497917947912539 
1728	 0.497053463925386 
1729	 0.496307416551187 
1730	 0.495534845676472 
1731	 0.494789772153553 
1732	 0.494330554253287 
1733	 0.493819678818743 
1734	 0.493166242053765 
1735	 0.49261696722872 
1736	 0.491828571187706 
1737	 0.491009313196201 
1738	 0.490216448714073 
1739	 0.489158874335678 
1740	 0.488142343338638 
1741	 0.48721171083093 
1742	 0.486157398963986 
1743	 0.48516316109173 
1744	 0.484213237117346 
1745	 0.483087682192538 
1746	 0.482070287901061 
1747	 0.481061806668412 
1748	 0.479758446276975 
1749	 0.478638777232321 
1750	 0.477698722320875 
1751	 0.476523911798849 
1752	 0.475435605171266 
1753	 0.474382801012834 
1754	 0.473115557571634 
1755	 0.472022055424223 
1756	 0.470844231485019 
1757	 0.469408317746056 
1758	 0.468057625798164 
1759	 0.466674021586645 
1760	 0.465363856026301 
1761	 0.464086121888197 
1762	 0.462824806668131 
1763	 0.461460589677247 
1764	 0.460362690739654 
1765	 0.459439110074727 
1766	 0.458465899986967 
1767	 0.457723157758666 
1768	 0.456756002276153 
1769	 0.455642882798124 
1770	 0.454644625066542 
1771	 0.453674783643409 
1772	 0.452707048852462 
1773	 0.45167041247894 
1774	 0.450857017978416 
1775	 0.449950438682188 
1776	 0.44898918753028 
1777	 0.448068902772712 
1778	 0.447127502172438 
1779	 0.446323026486803 
1780	 0.445688224426476 
1781	 0.445264459676124 
1782	 0.444997273515477 
1783	 0.444381512251225 
1784	 0.443396926278071 
1785	 0.442774493936688 
1786	 0.442222387687404 
1787	 0.441627901850927 
1788	 0.441591191404231 
1789	 0.441610628141708 
1790	 0.440979387502865 
1791	 0.440386340173228 
1792	 0.440055622004139 
1793	 0.439765074616308 
1794	 0.43973489280534 
1795	 0.439336151635093 
1796	 0.439120683296991 
1797	 0.438420642444452 
1798	 0.436808732347858 
1799	 0.436368247107147 
1800	 0.435058579307271 
1801	 0.430467709667948 
1802	 0.429486177425329 
1803	 0.42904559312478 
1804	 0.43054915076014 
1805	 0.429673285998262 
1806	 0.426558906077265 
1807	 0.425293104302323 
1808	 0.423200056042484 
1809	 0.422520136969538 
1810	 0.421189828767969 
1811	 0.422238219126725 
1812	 0.420324837770493 
1813	 0.413384363657839 
1814	 0.411825152050299 
1815	 0.414688282923693 
1816	 0.414231309129884 
1817	 0.416392139580251 
1818	 0.417096228911662 
1819	 0.416090894771668 
1820	 0.408853470004834 
1821	 0.405518290340938 
1822	 0.40197441102084 
1823	 0.401765118370114 
1824	 0.405881934125043 
1825	 0.407164788956377 
1826	 0.41241090617288 
1827	 0.416943756546587 
1828	 0.420795769718273 
1829	 0.418085645016533 
1830	 0.419892603818964 
1831	 0.43096325429901 
1832	 0.431475199527039 
1833	 0.405871438435827 
1834	 0.402715418484204 
1835	 0.415338677232978 
1836	 0.421784490306824 
1837	 0.477389372257312 
1838	 0.504475941841029 
1839	 0.507778544788063 
1840	 0.457805913687978 
1841	 0.427832916053505 
1842	 0.377564494219801 
1843	 0.361357862596332 
1844	 0.361992145820658 
1845	 0.352264875459697 
1846	 0.323349401155966 
1847	 0.332338064623157 
1848	 0.358039979490313 
1849	 0.404957187384717 
1850	 0.428849508056538 
1851	 0.497760239344367 
1852	 0.510206592463395 
1853	 0.478316128765387 
1854	 0.446510022289077 
1855	 0.384739125289569 
1856	 0.358910588692363 
1857	 0.343329939345076 
1858	 0.306934483002708 
1859	 0.309175618092483 
1860	 0.342631561904013 
1861	 0.356515943666613 
1862	 0.381101643428961 
1863	 0.393743005621962 
1864	 0.414673949064139 
1865	 0.413658229562546 
1866	 0.396700007218675 
1867	 0.363162628405548 
1868	 0.315877726394242 
1869	 0.282937965685676 
1870	 0.269011578091027 
1871	 0.278206169844497 
1872	 0.278061751624587 
1873	 0.322659401182045 
1874	 0.304286443193881 
1875	 0.260974862329957 
1876	 0.238775400972502 
1877	 0.198019240032246 
1878	 0.187891967094367 
1879	 0.210390048020426 
1880	 0.214839548497171 
1881	 0.214868430479215 
1882	 0.223944583322511 
1883	 0.215603367190037 
1884	 0.187966674141541 
1885	 0.177185480489068 
1886	 0.16947566232372 
1887	 0.161022348588217 
1888	 0.153909757560033 
1889	 0.148295298948711 
1890	 0.143627420379939 
1891	 0.135021414525532 
1892	 0.131151337671786 
1893	 0.132147803274915 
1894	 0.133413571502761 
1895	 0.136783713922834 
1896	 0.137951137056629 
1897	 0.139797663608293 
1898	 0.144409536822401 
1899	 0.144985595751731 
1900	 0.166297162282923 
1901	 0.179252132092154 
1902	 0.208382559640448 
1903	 0.212786515726095 
1904	 0.186416978129246 
1905	 0.169412014080751 
1906	 0.144286698584055 
1907	 0.116136413661316 
1908	 0.108048965638504 
1909	 0.124097334924926 
1910	 0.138243386519641 
1911	 0.134793358534064 
1912	 0.124838292915497 
1913	 0.107185534381947 
1914	 0.101207357978415 
1915	 9.60885850281156E-02 
1916	 9.23191237257594E-02 
1917	 0.092308291190082 
1918	 9.02882777371177E-02 
1919	 8.59261172495411E-02 
1920	 8.23299647706824E-02 
1921	 8.34019215116125E-02 
1922	 8.58627692042919E-02 
1923	 8.62312319238971E-02 
1924	 8.68346795587725E-02 
1925	 8.75075709294065E-02 
1926	 8.62367320930506E-02 
1927	 8.64427586200309E-02 
1928	 8.78135634736295E-02 
1929	 8.97276811059639E-02 
1930	 8.93578538168995E-02 
1931	 9.14223117366313E-02 
1932	 8.97917902075215E-02 
1933	 8.68606205911925E-02 
1934	 8.67920790616132E-02 
1935	 8.69828437190939E-02 
1936	 8.66116347808763E-02 
1937	 8.86752862558462E-02 
1938	 8.84748751243078E-02 
1939	 8.64694182184169E-02 
1940	 8.56012368733211E-02 
1941	 8.44936784930848E-02 
1942	 8.38714399620795E-02 
1943	 8.51703828455564E-02 
1944	 8.52520067527006E-02 
1945	 8.54359740854734E-02 
1946	 8.56976457152196E-02 
1947	 8.62891576144262E-02 
1948	 8.73851423943232E-02 
1949	 8.77389696606336E-02 
1950	 8.78765179140789E-02 
1951	 8.85387200893728E-02 
1952	 8.86776889128283E-02 
1953	 8.71393403633913E-02 
1954	 8.77316496819039E-02 
1955	 8.91992567838531E-02 
1956	 9.06316333301808E-02 
1957	 9.27946878617864E-02 
1958	 9.42547638985296E-02 
1959	 0.095542614787995 
1960	 9.64152503431087E-02 
1961	 0.096880879978115 
1962	 9.73927831203103E-02 
1963	 9.74449394801288E-02 
1964	 9.74173774040258E-02 
1965	 9.75540109328646E-02 
1966	 9.75607902299476E-02 
1967	 9.78354175278884E-02 
1968	 9.85626386941299E-02 
1969	 9.91011893287101E-02 
1970	 9.93514979369365E-02 
1971	 0.100160767600549 
1972	 0.101352844289277 
1973	 0.102252745892855 
1974	 0.103100299702527 
1975	 0.103941369134091 
1976	 0.104647628294688 
1977	 0.105014806764433 
1978	 0.105185926825507 
1979	 0.105728325749787 
1980	 0.106149726329584 
1981	 0.106680193480083 
1982	 0.107407639342443 
1983	 0.108490175069798 
1984	 0.109510758375769 
1985	 0.110627735645088 
1986	 0.111478134563555 
1987	 0.112151693196717 
1988	 0.112830779164649 
1989	 0.113284850109999 
1990	 0.113797503445429 
1991	 0.114460184592565 
1992	 0.114819611094822 
1993	 0.114994334508578 
1994	 0.115251754217168 
1995	 0.115787417137823 
1996	 0.116496512006422 
1997	 0.117797619569323 
1998	 0.119225237513406 
1999	 0.120484653274448 
2000	 0.121871419793546 
2001	 0.123444248547637 
2002	 0.124712731853735 
2003	 0.125934654576115 
2004	 0.127093489147313 
2005	 0.128087875137688 
2006	 0.129542613678479 
2007	 0.131172316245848 
2008	 0.132966725680712 
2009	 0.134719658409983 
2010	 0.136265401433405 
2011	 0.13740955472997 
2012	 0.139070800051275 
2013	 0.141032441561805 
2014	 0.142557727036805 
2015	 0.143625655601468 
2016	 0.143626456501273 
2017	 0.143509742408835 
2018	 0.143834659199218 
2019	 0.144450957092567 
2020	 0.145210853248087 
2021	 0.14657204790924 
2022	 0.147691602581442 
2023	 0.148673941202029 
2024	 0.149564034346417 
2025	 0.150342346919117 
2026	 0.15123527413932 
2027	 0.151876891324725 
2028	 0.152711879927199 
2029	 0.153695876366556 
2030	 0.154655725083074 
2031	 0.155443803205116 
2032	 0.156142603001253 
2033	 0.156597340524004 
2034	 0.157352231836634 
2035	 0.15829016858881 
2036	 0.159377711327424 
2037	 0.160664536203736 
2038	 0.161692228608821 
2039	 0.162263951210691 
2040	 0.162966417619497 
2041	 0.164093720287651 
2042	 0.165040468101753 
2043	 0.166123148932367 
2044	 0.167388868789989 
2045	 0.168476133338534 
2046	 0.169338220576774 
2047	 0.170331858063673 
2048	 0.171549252486467 
2049	 0.172504307065602 
2050	 0.173285972086241 
2051	 0.173894033440727 
2052	 0.17399614068659 
2053	 0.174423526851175 
2054	 0.175454818918096 
2055	 0.176649025927693 
2056	 0.178094852492046 
2057	 0.179238581594629 
2058	 0.179745126740257 
2059	 0.180732615190934 
2060	 0.181764530497937 
2061	 0.182911456230059 
2062	 0.184077546780566 
2063	 0.185607188217315 
2064	 0.1865840120709 
2065	 0.187572799389601 
2066	 0.188809211742695 
2067	 0.190047592713194 
2068	 0.191309303363653 
2069	 0.192203307304708 
2070	 0.192765113155987 
2071	 0.193441699743921 
2072	 0.1943569636468 
2073	 0.195270430840362 
2074	 0.196320211725867 
2075	 0.197793545636936 
2076	 0.199056534294326 
2077	 0.19981815556179 
2078	 0.200594604501103 
2079	 0.201284425978502 
2080	 0.201797676595182 
2081	 0.20259544161628 
2082	 0.203665321555461 
2083	 0.204596480130611 
2084	 0.205658641856257 
2085	 0.206659248609641 
2086	 0.207373488286946 
2087	 0.208340555724954 
2088	 0.20934574909697 
2089	 0.210627527277092 
2090	 0.212112237304059 
2091	 0.213308039140621 
2092	 0.214000598503778 
2093	 0.214592910123492 
2094	 0.214884747572336 
2095	 0.215321954888136 
2096	 0.216525886616662 
2097	 0.217549852208372 
2098	 0.218444112439408 
2099	 0.219427575013138 
2100	 0.220149377631631 
2101	 0.221292989645746 
2102	 0.222479010656529 
2103	 0.223847279075747 
2104	 0.225102276243231 
2105	 0.226382248792319 
2106	 0.227234639933052 
2107	 0.227681948089607 
2108	 0.228307473159 
2109	 0.229483946031045 
2110	 0.230419264909871 
2111	 0.231398987411593 
2112	 0.232934034695976 
2113	 0.233758176321274 
2114	 0.234297992747352 
2115	 0.23511989649743 
2116	 0.235939679849836 
2117	 0.236968181811389 
2118	 0.238304951947009 
2119	 0.239569707745176 
2120	 0.241027236778287 
2121	 0.242361693607832 
2122	 0.243296615890946 
2123	 0.243876761334567 
2124	 0.244460036062078 
2125	 0.244727141114264 
2126	 0.24497541067581 
2127	 0.246036276624522 
2128	 0.247364806877797 
2129	 0.248428860862169 
2130	 0.249625870672169 
2131	 0.250808823352821 
2132	 0.251619784439594 
2133	 0.252283942570786 
2134	 0.252798543287907 
2135	 0.253055493623867 
2136	 0.253419636518106 
2137	 0.254051959819443 
2138	 0.254650563855647 
2139	 0.255804693750351 
2140	 0.256783793661556 
2141	 0.257541971725996 
2142	 0.258551302889219 
2143	 0.25941894460961 
2144	 0.260407114415463 
2145	 0.260960402985773 
2146	 0.26127204001177 
2147	 0.26198314211523 
2148	 0.262076630459981 
2149	 0.261908206053113 
2150	 0.262821444282145 
2151	 0.263661634690553 
2152	 0.264680690754846 
2153	 0.265390548257581 
2154	 0.266467434006067 
2155	 0.266787885441506 
2156	 0.266860821927577 
2157	 0.266750334805721 
2158	 0.266698656696679 
2159	 0.267260525324076 
2160	 0.267392900408211 
2161	 0.267895626738333 
2162	 0.269042729167805 
2163	 0.269709569110513 
2164	 0.270213742334326 
2165	 0.270913619948191 
2166	 0.271901524266818 
2167	 0.272266505561531 
2168	 0.273014919738889 
2169	 0.274551289454344 
2170	 0.275462459936398 
2171	 0.276038622027228 
2172	 0.276548900380018 
2173	 0.277148142489714 
2174	 0.276968624031096 
2175	 0.276915621940682 
2176	 0.277600911744206 
2177	 0.278232694140691 
2178	 0.278326646541519 
2179	 0.278857519633901 
2180	 0.279462789443985 
2181	 0.279421354297056 
2182	 0.280054335416654 
2183	 0.280652142986396 
2184	 0.280903003352645 
2185	 0.282065416061723 
2186	 0.282872190916879 
2187	 0.283378634660778 
2188	 0.283883712537837 
2189	 0.283956357344945 
2190	 0.283445000757711 
2191	 0.283144689874913 
2192	 0.282959843960175 
2193	 0.283355931365852 
2194	 0.284598079000612 
2195	 0.285585633015673 
2196	 0.286393116770373 
2197	 0.287083536019585 
2198	 0.287524769433475 
2199	 0.288093330877726 
2200	 0.288681267272373 
2201	 0.289298511665569 
2202	 0.289474015224423 
2203	 0.289254632006363 
2204	 0.289314588493176 
2205	 0.289291191521926 
2206	 0.28953265038742 
2207	 0.289947625516241 
2208	 0.290239662899125 
2209	 0.29054038886464 
2210	 0.291005946677611 
2211	 0.291485625924488 
2212	 0.29183015271864 
2213	 0.292472307093288 
2214	 0.292617803938701 
2215	 0.292302469744509 
2216	 0.292712175949374 
2217	 0.292722248767197 
2218	 0.292438986516176 
2219	 0.292617614368612 
2220	 0.292374864571009 
2221	 0.291574154501783 
2222	 0.29089365279266 
2223	 0.290208630529625 
2224	 0.289235043293316 
2225	 0.289123640443419 
2226	 0.289896191608961 
2227	 0.290443812667134 
2228	 0.29026566793246 
2229	 0.289601578676974 
2230	 0.288491358738308 
2231	 0.287824547777548 
2232	 0.287374154694862 
2233	 0.286972172614651 
2234	 0.286797118400259 
2235	 0.28690274637644 
2236	 0.286441598369925 
2237	 0.285349715646712 
2238	 0.284260246890966 
2239	 0.282443127593109 
2240	 0.280596949403548 
2241	 0.279326558417263 
2242	 0.279025194221302 
2243	 0.278972671816354 
2244	 0.278853883034218 
2245	 0.279267726472506 
2246	 0.278637548573426 
2247	 0.277916710668245 
2248	 0.277375130746224 
2249	 0.275915454279384 
2250	 0.274889133122119 
2251	 0.273864842986665 
2252	 0.272821208309389 
2253	 0.271674436274563 
2254	 0.26985029255911 
2255	 0.268336297201704 
2256	 0.267117656669977 
2257	 0.265817069842764 
2258	 0.265070450850597 
2259	 0.265339349574361 
2260	 0.265304253718486 
2261	 0.26469715357179 
2262	 0.263856158241566 
2263	 0.262189163555956 
2264	 0.260175498687304 
2265	 0.259095478199372 
2266	 0.258248644750553 
2267	 0.257642075598224 
2268	 0.257375808233993 
2269	 0.25650735307444 
2270	 0.256044100288294 
2271	 0.255252729233612 
2272	 0.253938080102872 
2273	 0.252802576930067 
2274	 0.251333617121662 
2275	 0.250426261836962 
2276	 0.24894247492815 
2277	 0.247593189776451 
2278	 0.246859656357612 
2279	 0.244700927284399 
2280	 0.243675724081433 
2281	 0.243078165391143 
2282	 0.241620292387714 
2283	 0.241403869120716 
2284	 0.24056419852687 
2285	 0.239234897233798 
2286	 0.238332819340088 
2287	 0.237576641326811 
2288	 0.236104397166867 
2289	 0.235857890044177 
2290	 0.236372781542123 
2291	 0.235797343008906 
2292	 0.235742695069335 
2293	 0.235059563494079 
2294	 0.233423158611146 
2295	 0.233349034498416 
2296	 0.233032724275755 
2297	 0.23186499864809 
2298	 0.231517648351397 
2299	 0.230517575457102 
2300	 0.229406813687621 
2301	 0.229262607127339 
2302	 0.228390426942552 
2303	 0.226667567865158 
2304	 0.224279051678574 
2305	 0.222084865541076 
2306	 0.22029121126948 
2307	 0.219555478319984 
2308	 0.220877853561111 
2309	 0.222217790057817 
2310	 0.222371493398392 
2311	 0.221656100001733 
2312	 0.220147934125749 
2313	 0.217586032710382 
2314	 0.21643249352215 
2315	 0.217401568643118 
2316	 0.217393248081881 
2317	 0.217434269099517 
2318	 0.21803742381069 
2319	 0.217779285073029 
2320	 0.217017661532544 
2321	 0.215977261819702 
2322	 0.214705652634038 
2323	 0.213361164183767 
2324	 0.211247628305607 
2325	 0.210221845127553 
2326	 0.209624644933075 
2327	 0.208304226104131 
2328	 0.207205529559473 
2329	 0.205937202284077 
2330	 0.205014385126899 
2331	 0.205716419534048 
2332	 0.206302886624371 
2333	 0.205191724193002 
2334	 0.204049222088933 
2335	 0.202218904183929 
2336	 0.200047398899523 
2337	 0.199868187839201 
2338	 0.198403808585794 
2339	 0.19767746220941 
2340	 0.197662314892335 
2341	 0.19557571344285 
2342	 0.195899756246029 
2343	 0.196586150563442 
2344	 0.195238129220459 
2345	 0.194571075605314 
2346	 0.193975992599128 
2347	 0.192036795750163 
2348	 0.191193364447271 
2349	 0.19116618353022 
2350	 0.191469556262921 
2351	 0.192314731554754 
2352	 0.192023796745708 
2353	 0.191964117058706 
2354	 0.191466681271999 
2355	 0.189700656272315 
2356	 0.187420307444685 
2357	 0.185377898207434 
2358	 0.183570941843014 
2359	 0.181350769531203 
2360	 0.180896019507281 
2361	 0.182603598242956 
2362	 0.183838716118209 
2363	 0.185529111080318 
2364	 0.187609462846585 
2365	 0.186631991232999 
2366	 0.184258551373981 
2367	 0.182354820410646 
2368	 0.179861968320349 
2369	 0.179112603112144 
2370	 0.178745445466949 
2371	 0.177171815751809 
2372	 0.176705770905443 
2373	 0.176101006102433 
2374	 0.175635900607584 
2375	 0.177540823906107 
2376	 0.177055237297473 
2377	 0.175226917513538 
2378	 0.172528434606606 
2379	 0.165780128290731 
2380	 0.164470562876397 
2381	 0.1660666635831 
2382	 0.16617256978894 
2383	 0.169136798810602 
2384	 0.170799374316159 
2385	 0.171539361483209 
2386	 0.170634359487759 
2387	 0.170228984804467 
2388	 0.167924638476364 
2389	 0.160476732367677 
2390	 0.157466691911391 
2391	 0.156513933180428 
2392	 0.155676764678709 
2393	 0.156729121785041 
2394	 0.156036802460178 
2395	 0.154454440896339 
2396	 0.153908198288625 
2397	 0.1538460174352 
2398	 0.153386740249038 
2399	 0.153536832147238 
2400	 0.152404943666092 
2401	 0.14939038598732 
2402	 0.148431620879332 
2403	 0.147909747933067 
2404	 0.146826040728827 
2405	 0.148756877689663 
2406	 0.150142769878618 
2407	 0.149936575380227 
2408	 0.151778463084236 
2409	 0.150076102748171 
2410	 0.147279434290071 
2411	 0.147451177427554 
2412	 0.145533349421081 
2413	 0.145290083364816 
2414	 0.146813923899807 
2415	 0.14494836536047 
2416	 0.143423117640644 
2417	 0.142746883887943 
2418	 0.142146413894865 
2419	 0.143189429195381 
2420	 0.143287570946713 
2421	 0.143805742703478 
2422	 0.143566414295291 
2423	 0.138259447397868 
2424	 0.134953876755321 
2425	 0.133953519134925 
2426	 0.128212014343645 
2427	 0.125634701601396 
2428	 0.125489762861853 
2429	 0.123429441224 
2430	 0.122447266414674 
2431	 0.1226369571048 
2432	 0.125133605354948 
2433	 0.122878071934537 
2434	 0.123478609675848 
2435	 0.127100823723325 
2436	 0.126339732102939 
2437	 0.12523271892939 
2438	 0.124134287116356 
2439	 0.116870112602124 
2440	 0.114168345815753 
2441	 0.11568359222125 
2442	 0.114562538408835 
2443	 0.114415634798224 
2444	 0.115329083938032 
2445	 0.116437448019055 
2446	 0.117279153461347 
2447	 0.11785387615547 
2448	 0.117097093900695 
2449	 0.11685419620908 
2450	 0.115873152916226 
2451	 0.111834743515859 
2452	 0.113307219142109 
2453	 0.115116907136628 
2454	 0.116979082683015 
2455	 0.125813541881263 
2456	 0.129111801958501 
2457	 0.130980664623552 
2458	 0.130656625811628 
2459	 0.124438802538446 
2460	 0.120965497255268 
2461	 0.114540833325977 
2462	 0.111199017916015 
2463	 0.111810454245964 
2464	 0.115237302464292 
2465	 0.122940671287434 
2466	 0.128106693354546 
2467	 0.13559254537395 
2468	 0.137551274334177 
2469	 0.138143297392155 
2470	 0.136667261590836 
2471	 0.124901102380885 
2472	 0.122589094851983 
2473	 0.121830303109777 
2474	 0.120105839136372 
2475	 0.128682195192432 
2476	 0.133513703826417 
2477	 0.136215277636412 
2478	 0.13182008724835 
2479	 0.123444256220025 
2480	 0.11696150878009 
2481	 0.09589159247058 
2482	 9.83075442001995E-02 
2483	 0.115175476484017 
2484	 0.130811197732305 
2485	 0.173077405635776 
2486	 0.176651475428864 
2487	 0.205577349259442 
2488	 0.179980474868996 
2489	 9.56810825403084E-02 
2490	 5.11502016345177E-02 
2491	 4.70490114407664E-02 
2492	 9.08788324854773E-02 
2493	 0.151632054818799 
2494	 0.224010239320294 
2495	 0.231678218315076 
2496	 0.200910650900757 
2497	 0.191563824750017 
2498	 0.106963061174986 
2499	 3.51515700442165E-02 
2500	 4.19553713021012E-02 
