Wavelength	ref00090.asd
350	 0.196740424834542 
351	 0.198870673507168 
352	 0.200755240664831 
353	 0.201220816920734 
354	 0.20192198162777 
355	 0.202659180320431 
356	 0.203443351694039 
357	 0.205524435699215 
358	 0.207090692061558 
359	 0.20842047033528 
360	 0.210093777154089 
361	 0.210814414341276 
362	 0.212813485776445 
363	 0.215408978261919 
364	 0.216341981513778 
365	 0.218451511533152 
366	 0.220473846539763 
367	 0.222142121779112 
368	 0.225244638074382 
369	 0.227766925040083 
370	 0.230299318306825 
371	 0.233575347832084 
372	 0.236712781938493 
373	 0.240637655073204 
374	 0.244922854277585 
375	 0.248685714702911 
376	 0.253516351480231 
377	 0.25845478558291 
378	 0.263481492962082 
379	 0.269884538459019 
380	 0.276096340565938 
381	 0.283065609306866 
382	 0.291553525854097 
383	 0.300451270642231 
384	 0.30980642994016 
385	 0.31987805493768 
386	 0.331029786448237 
387	 0.343741451415797 
388	 0.356657821860361 
389	 0.369771609290259 
390	 0.384520344531888 
391	 0.400785746213966 
392	 0.418532984038366 
393	 0.437795732160767 
394	 0.458850600785924 
395	 0.480830653885973 
396	 0.503339723383188 
397	 0.526194496820056 
398	 0.549454444247272 
399	 0.571967150794322 
400	 0.593587687892291 
401	 0.615125574359185 
402	 0.636388996636405 
403	 0.657722930891348 
404	 0.679486945134103 
405	 0.702272559792373 
406	 0.725367808427101 
407	 0.748885805117487 
408	 0.772724319415386 
409	 0.794943416893308 
410	 0.816165078693237 
411	 0.836361041204636 
412	 0.854841611268165 
413	 0.87179922148375 
414	 0.887278604633789 
415	 0.901441209398162 
416	 0.914742455510421 
417	 0.926884934575796 
418	 0.937901857564746 
419	 0.947924716399876 
420	 0.956945150150163 
421	 0.965273401298603 
422	 0.972890932690357 
423	 0.979563178663047 
424	 0.986040729716148 
425	 0.992284066520523 
426	 0.998095885109674 
427	 1.00317230424254 
428	 1.00851901149507 
429	 1.01381754280034 
430	 1.01848423210344 
431	 1.02330364652868 
432	 1.02775605528597 
433	 1.0316617880154 
434	 1.0352346530565 
435	 1.03899876737757 
436	 1.04258999400316 
437	 1.04580763576847 
438	 1.04910093353413 
439	 1.05222374886838 
440	 1.05533685076331 
441	 1.05859711937198 
442	 1.06139463470145 
443	 1.06418402901164 
444	 1.06706951534294 
445	 1.06978242375322 
446	 1.07235242139519 
447	 1.07476273200942 
448	 1.07703604477817 
449	 1.07930652778423 
450	 1.08129963753365 
451	 1.08314945873629 
452	 1.08513863232502 
453	 1.08725563174033 
454	 1.08924866287266 
455	 1.09109698717572 
456	 1.09306761856515 
457	 1.0950726772401 
458	 1.09708741865146 
459	 1.09907191726479 
460	 1.10089760306837 
461	 1.10270239955996 
462	 1.10449089128114 
463	 1.10618986949724 
464	 1.10778824033928 
465	 1.10938445521787 
466	 1.11097863361258 
467	 1.11239900878311 
468	 1.11408869506452 
469	 1.11576345086296 
470	 1.11717201913218 
471	 1.11904620256101 
472	 1.12074717490652 
473	 1.12219710546783 
474	 1.12373004409766 
475	 1.12530898746934 
476	 1.12685602671763 
477	 1.12831055933367 
478	 1.12966281152206 
479	 1.13084275682971 
480	 1.13194814084727 
481	 1.13309872725692 
482	 1.13417068885704 
483	 1.13532885775914 
484	 1.1366275241831 
485	 1.13798806837321 
486	 1.13928018654495 
487	 1.14081733082275 
488	 1.1426384369554 
489	 1.14388624614842 
490	 1.14496158815073 
491	 1.14606290492116 
492	 1.14727022465207 
493	 1.14833392996978 
494	 1.14938862150885 
495	 1.15043125469794 
496	 1.15126178749517 
497	 1.15220244122999 
498	 1.15320709623115 
499	 1.15417739477184 
500	 1.15512818160693 
501	 1.15642463535969 
502	 1.15794212634013 
503	 1.15925368121747 
504	 1.16032706823176 
505	 1.16132155784182 
506	 1.16236720623284 
507	 1.16350460655019 
508	 1.16446130876454 
509	 1.16537614472865 
510	 1.16643666541765 
511	 1.16745308283756 
512	 1.16826664919842 
513	 1.16899631368005 
514	 1.16997892944274 
515	 1.17099547432079 
516	 1.17198541409958 
517	 1.17302076445506 
518	 1.17446021910349 
519	 1.17589586405527 
520	 1.17716869666037 
521	 1.17828043571672 
522	 1.17942413036384 
523	 1.18071438979377 
524	 1.18211320119331 
525	 1.18341015685079 
526	 1.18473744730018 
527	 1.18618759565374 
528	 1.18769506802081 
529	 1.18872499567116 
530	 1.18979895153841 
531	 1.19102106854474 
532	 1.19225167960052 
533	 1.19342176999995 
534	 1.19464454731952 
535	 1.19589067098088 
536	 1.19685759194731 
537	 1.19801580776109 
538	 1.19940266866686 
539	 1.20089250266446 
540	 1.2023106029432 
541	 1.20383999525486 
542	 1.20538580849871 
543	 1.20663272162961 
544	 1.20789693713768 
545	 1.20917373682905 
546	 1.21038230238739 
547	 1.21137287312891 
548	 1.21237111472849 
549	 1.21338666040785 
550	 1.21435436084345 
551	 1.21535128394885 
552	 1.21642802473468 
553	 1.2175241718243 
554	 1.2184533030111 
555	 1.21946355733857 
556	 1.22043330890326 
557	 1.22128187323929 
558	 1.22235966351448 
559	 1.22355060727295 
560	 1.22471864370682 
561	 1.22575038289215 
562	 1.22682019256976 
563	 1.22786705149144 
564	 1.2289003558154 
565	 1.23012724984972 
566	 1.23095574720311 
567	 1.23164978684144 
568	 1.23262005788867 
569	 1.23344561214584 
570	 1.23433319806919 
571	 1.23526723209902 
572	 1.23601730957639 
573	 1.23668114357831 
574	 1.23738878142675 
575	 1.23816199356288 
576	 1.23870989993529 
577	 1.23925135200536 
578	 1.2397266043071 
579	 1.23999522002198 
580	 1.24032415820551 
581	 1.2405814281769 
582	 1.24072783565301 
583	 1.24089059323775 
584	 1.24115962792981 
585	 1.24143364817187 
586	 1.24162542916516 
587	 1.24187919459332 
588	 1.24248910391323 
589	 1.24334147963436 
590	 1.24398167523924 
591	 1.24420089999213 
592	 1.24398351334801 
593	 1.24347471681655 
594	 1.24298017383812 
595	 1.24264250828809 
596	 1.24228946185652 
597	 1.24172465119453 
598	 1.2412795509201 
599	 1.24100180734531 
600	 1.24074390189959 
601	 1.24020804176823 
602	 1.23992872050535 
603	 1.23970844019292 
604	 1.23936009358131 
605	 1.23911464012743 
606	 1.23897888633604 
607	 1.23893803478238 
608	 1.23893784663947 
609	 1.23878362510128 
610	 1.23873555695813 
611	 1.23881141942687 
612	 1.2386357955763 
613	 1.23847073606864 
614	 1.23834733029284 
615	 1.23823244536848 
616	 1.23807851421465 
617	 1.23798393573038 
618	 1.23790306812938 
619	 1.23770044934737 
620	 1.23747700249793 
621	 1.23717725989381 
622	 1.23681790262099 
623	 1.2365811364951 
624	 1.23657704594796 
625	 1.23670691916458 
626	 1.23677906032765 
627	 1.23665224053818 
628	 1.2364966119577 
629	 1.23632515088976 
630	 1.23599905480656 
631	 1.23579254084487 
632	 1.23555243051839 
633	 1.23518839205221 
634	 1.23498676475384 
635	 1.23481768381665 
636	 1.23457827019332 
637	 1.23421371559172 
638	 1.23393285752049 
639	 1.23361522707958 
640	 1.23323464993741 
641	 1.23292802746577 
642	 1.23282713808284 
643	 1.23273694514538 
644	 1.23251648164375 
645	 1.23246397573357 
646	 1.23269252420963 
647	 1.23307537374246 
648	 1.23329707568595 
649	 1.23299001146763 
650	 1.23236919571304 
651	 1.2317443011652 
652	 1.23140400240027 
653	 1.23098135087211 
654	 1.23047187933012 
655	 1.22998966121144 
656	 1.22974027837312 
657	 1.22949948463272 
658	 1.22918352569668 
659	 1.22878341898701 
660	 1.22802446854517 
661	 1.22750173511858 
662	 1.22736903315073 
663	 1.22665042768731 
664	 1.22622651102479 
665	 1.22606611726198 
666	 1.22586804035706 
667	 1.2257283390763 
668	 1.22545426479641 
669	 1.22503791504658 
670	 1.22465380279738 
671	 1.22451206622489 
672	 1.22437989517625 
673	 1.22407120264081 
674	 1.22369276579412 
675	 1.22332301865656 
676	 1.22301889625762 
677	 1.22279420623503 
678	 1.22251138969737 
679	 1.22225714073834 
680	 1.22196803982433 
681	 1.22143595351324 
682	 1.22111894469025 
683	 1.22084873839966 
684	 1.2204396219245 
685	 1.21996458892241 
686	 1.21982451600604 
687	 1.21991430575693 
688	 1.21987909579004 
689	 1.21973852070978 
690	 1.21965322235537 
691	 1.21975744345562 
692	 1.22015740832213 
693	 1.22133491774991 
694	 1.2222825300482 
695	 1.22209055743162 
696	 1.2209458776274 
697	 1.2196158914171 
698	 1.21893241470363 
699	 1.21945853221112 
700	 1.21998320409714 
701	 1.219977883882 
702	 1.21935501326812 
703	 1.21849565216856 
704	 1.2178420473578 
705	 1.21735124629642 
706	 1.21686879474202 
707	 1.21629713236866 
708	 1.21591291835196 
709	 1.21564094753917 
710	 1.21529540142229 
711	 1.21519269921751 
712	 1.21496405740102 
713	 1.2147207214517 
714	 1.21517046478074 
715	 1.21624185706042 
716	 1.21874769747034 
717	 1.22300250115756 
718	 1.22728651155972 
719	 1.22920269343695 
720	 1.2277449782151 
721	 1.22402734080357 
722	 1.22152420181133 
723	 1.22200441747009 
724	 1.22462495894405 
725	 1.2257212733117 
726	 1.22575126603044 
727	 1.22544328737828 
728	 1.22527194202706 
729	 1.22480444034151 
730	 1.22426105383632 
731	 1.22328299613071 
732	 1.22147786834489 
733	 1.21924833828708 
734	 1.21773402596557 
735	 1.21709069033584 
736	 1.21663639070981 
737	 1.21650452694262 
738	 1.21623911566984 
739	 1.21558694815667 
740	 1.21485775091492 
741	 1.21438294827475 
742	 1.21402707748855 
743	 1.21360984584393 
744	 1.21361678060676 
745	 1.21349732050479 
746	 1.21332250977674 
747	 1.21358024828676 
748	 1.2135772295366 
749	 1.2133740124249 
750	 1.21317635014852 
751	 1.21324912563964 
752	 1.21311773405879 
753	 1.21298340604379 
754	 1.21307832109151 
755	 1.21308260076497 
756	 1.21274733352317 
757	 1.21210111582883 
758	 1.2114154606539 
759	 1.21147638732451 
760	 1.21270415946026 
761	 1.21478101294134 
762	 1.21492749575726 
763	 1.21505607261595 
764	 1.21488801117884 
765	 1.21408700953792 
766	 1.21307591144789 
767	 1.21242582107607 
768	 1.21205012339783 
769	 1.21170694716351 
770	 1.21133607144958 
771	 1.21111749594584 
772	 1.21103013755328 
773	 1.21088774588521 
774	 1.21085720484116 
775	 1.21081281833347 
776	 1.21066274139926 
777	 1.21044162533666 
778	 1.21024220893621 
779	 1.21019651205081 
780	 1.21028500896693 
781	 1.20994632151003 
782	 1.20977966337878 
783	 1.20985049960869 
784	 1.20992335341479 
785	 1.20992372262009 
786	 1.21011673519175 
787	 1.21052012358229 
788	 1.21086847275405 
789	 1.21135234568912 
790	 1.21168736242982 
791	 1.21163041821015 
792	 1.21117329986714 
793	 1.21082700111671 
794	 1.21065914357006 
795	 1.21062295323542 
796	 1.21095229650882 
797	 1.21110660996901 
798	 1.21097435485684 
799	 1.21076683805574 
800	 1.21085578894158 
801	 1.2109201943163 
802	 1.21081745569564 
803	 1.21069102044414 
804	 1.21047113495336 
805	 1.21020675464576 
806	 1.20996214129095 
807	 1.20976208299832 
808	 1.20991211162827 
809	 1.21036861080758 
810	 1.21107898180758 
811	 1.21244891867868 
812	 1.21424163004311 
813	 1.21646765417547 
814	 1.21913237323264 
815	 1.22129495619844 
816	 1.22241157504016 
817	 1.2224031962255 
818	 1.22169967360402 
819	 1.22037204294772 
820	 1.2190210351385 
821	 1.21834894956516 
822	 1.21915274534207 
823	 1.21962832208236 
824	 1.21915891424124 
825	 1.21781439571462 
826	 1.21612917636136 
827	 1.21590931764554 
828	 1.21657182756263 
829	 1.2166543614912 
830	 1.21637096804657 
831	 1.21600538822941 
832	 1.21540311050589 
833	 1.21422648824868 
834	 1.21358770873779 
835	 1.2129003490568 
836	 1.21199995008202 
837	 1.21142251895935 
838	 1.21066344879388 
839	 1.21009343747462 
840	 1.20989323751254 
841	 1.20955268828322 
842	 1.20923902646473 
843	 1.20881556734726 
844	 1.20828088507268 
845	 1.20833434796237 
846	 1.20820209487782 
847	 1.20790728848455 
848	 1.20772497211016 
849	 1.20710047644615 
850	 1.20688010480798 
851	 1.20707072238464 
852	 1.20703980446058 
853	 1.20702875611216 
854	 1.20690630142688 
855	 1.20664292367418 
856	 1.20635839537548 
857	 1.20599506332387 
858	 1.20564283116774 
859	 1.20530980990357 
860	 1.20486187050577 
861	 1.20464770432493 
862	 1.20427530492344 
863	 1.2035104558975 
864	 1.20296671927375 
865	 1.20274873878555 
866	 1.20264358328981 
867	 1.20239324911396 
868	 1.20214304640937 
869	 1.20185130377995 
870	 1.20154116748683 
871	 1.20125866174902 
872	 1.20103223029039 
873	 1.20072058241186 
874	 1.20048678287338 
875	 1.200625520956 
876	 1.20068532361511 
877	 1.20089287220292 
878	 1.20126572388159 
879	 1.20154794028384 
880	 1.20154401981095 
881	 1.20172490115976 
882	 1.20222830272528 
883	 1.20261117930506 
884	 1.20287666893576 
885	 1.20287081901576 
886	 1.2027174824932 
887	 1.20304081263598 
888	 1.20344847688734 
889	 1.20376485422328 
890	 1.2040334077597 
891	 1.20463868810507 
892	 1.2062059233807 
893	 1.20763161359433 
894	 1.20818382955737 
895	 1.21067622148528 
896	 1.21273840190156 
897	 1.21406260975333 
898	 1.21516995391275 
899	 1.21569123691376 
900	 1.21577069602678 
901	 1.2150934901191 
902	 1.21354992129514 
903	 1.21317844733672 
904	 1.21209669434353 
905	 1.21105679914611 
906	 1.21203248726318 
907	 1.21272663113237 
908	 1.21464904684218 
909	 1.21683588467808 
910	 1.21658061815971 
911	 1.21676394813676 
912	 1.21745194145829 
913	 1.21790953869029 
914	 1.21723552313942 
915	 1.21756623606642 
916	 1.21750720949113 
917	 1.21647976762856 
918	 1.21537382987993 
919	 1.21464407184261 
920	 1.21401192681013 
921	 1.21330353869914 
922	 1.21270235133904 
923	 1.21321747265071 
924	 1.21429769664992 
925	 1.21555302234311 
926	 1.21736744441096 
927	 1.22121182211287 
928	 1.22554127568643 
929	 1.22945497911546 
930	 1.23471976040306 
931	 1.24229631103596 
932	 1.24924096471956 
933	 1.2536471189711 
934	 1.25912040422061 
935	 1.26071878312269 
936	 1.2611531551937 
937	 1.26171853003068 
938	 1.25712462507734 
939	 1.25510727170798 
940	 1.2540613239241 
941	 1.25177267722109 
942	 1.24905801706373 
943	 1.24981992439664 
944	 1.25163188962361 
945	 1.25175690047093 
946	 1.2506455941882 
947	 1.25205787515428 
948	 1.25362128734103 
949	 1.25296697529327 
950	 1.25148042428183 
951	 1.25075143075163 
952	 1.25092255820182 
953	 1.2511006136585 
954	 1.24943551505205 
955	 1.24635775087242 
956	 1.24456689345161 
957	 1.24472400692697 
958	 1.24271572049762 
959	 1.24171949289928 
960	 1.24026915519863 
961	 1.2372139422659 
962	 1.23390459596751 
963	 1.23112281006038 
964	 1.22821386998772 
965	 1.22524715141182 
966	 1.22388629987307 
967	 1.2213960099277 
968	 1.21883973099781 
969	 1.21726559089155 
970	 1.21632515744898 
971	 1.21344176577599 
972	 1.21297480076182 
973	 1.21531499740242 
974	 1.21386260510982 
975	 1.21490098682832 
976	 1.2138404520982 
977	 1.21005770960844 
978	 1.20989306158388 
979	 1.21097539249941 
980	 1.20980449420615 
981	 1.20623244752282 
982	 1.20390202082733 
983	 1.20482855574928 
984	 1.20403061806648 
985	 1.20094936259034 
986	 1.19961523189928 
987	 1.198931214296 
988	 1.19813821258027 
989	 1.19780313315129 
990	 1.19880122001276 
991	 1.19736538053193 
992	 1.19680892341494 
993	 1.19663430137846 
994	 1.19468758351614 
995	 1.19510093362364 
996	 1.19568113360062 
997	 1.19580471677849 
998	 1.19550608241663 
999	 1.1932179273646 
1000	 1.19200904799381 
1001	 1.18456204378817 
1002	 1.18441110645039 
1003	 1.18411043487978 
1004	 1.18377057434464 
1005	 1.18356817467575 
1006	 1.18338693889757 
1007	 1.18317118502295 
1008	 1.1831476776443 
1009	 1.18297704274999 
1010	 1.18267097088983 
1011	 1.18234067701488 
1012	 1.18221152222072 
1013	 1.18205719945112 
1014	 1.18180754879474 
1015	 1.18155829437847 
1016	 1.18147731480942 
1017	 1.18128735345732 
1018	 1.18107274260789 
1019	 1.18106926950559 
1020	 1.18079549698396 
1021	 1.18022860236379 
1022	 1.17989548754773 
1023	 1.17959526546001 
1024	 1.17924187973935 
1025	 1.17912227179908 
1026	 1.17870364370624 
1027	 1.17833114467113 
1028	 1.17807382560323 
1029	 1.17765079005244 
1030	 1.17735280769125 
1031	 1.17697138626999 
1032	 1.17658103898995 
1033	 1.17634516474962 
1034	 1.17625885142959 
1035	 1.17608066510822 
1036	 1.1760621421007 
1037	 1.17587456389711 
1038	 1.17562949747776 
1039	 1.17519774629381 
1040	 1.17467811437252 
1041	 1.17405201830741 
1042	 1.17364615038649 
1043	 1.17327284656909 
1044	 1.17297143262634 
1045	 1.17284946717767 
1046	 1.17257976185504 
1047	 1.17230143328643 
1048	 1.17201518075776 
1049	 1.17161674632999 
1050	 1.17133281565478 
1051	 1.17106122240655 
1052	 1.17082126085739 
1053	 1.17060108758361 
1054	 1.17046255181509 
1055	 1.17024630270967 
1056	 1.16993104310266 
1057	 1.16955647625713 
1058	 1.16929410925899 
1059	 1.16915481720756 
1060	 1.16901231355694 
1061	 1.16878591053125 
1062	 1.16848663792127 
1063	 1.16807199132034 
1064	 1.16764508758045 
1065	 1.16740898369432 
1066	 1.16738161859009 
1067	 1.16731168718846 
1068	 1.16715710902692 
1069	 1.16709283247202 
1070	 1.16692627378478 
1071	 1.16672259424832 
1072	 1.16658410763967 
1073	 1.16648113626399 
1074	 1.16626081783453 
1075	 1.16599523621381 
1076	 1.16578395722495 
1077	 1.1655599733157 
1078	 1.16536373665283 
1079	 1.16505502045429 
1080	 1.16486732017525 
1081	 1.16483421144254 
1082	 1.16490966904075 
1083	 1.16482607807166 
1084	 1.16485219682566 
1085	 1.16506030348632 
1086	 1.16505270078524 
1087	 1.16498575571503 
1088	 1.16519329696588 
1089	 1.1653033307798 
1090	 1.16524082576354 
1091	 1.16541268801048 
1092	 1.1657773776548 
1093	 1.16617159564988 
1094	 1.16669155821117 
1095	 1.16729965940013 
1096	 1.16784156032017 
1097	 1.16830024568394 
1098	 1.16883160070098 
1099	 1.1693758764978 
1100	 1.17003510707364 
1101	 1.17051222564725 
1102	 1.1709195938222 
1103	 1.17157005667827 
1104	 1.17208614737333 
1105	 1.17286096886585 
1106	 1.17415768716733 
1107	 1.17543378256243 
1108	 1.1768613472459 
1109	 1.17858026468185 
1110	 1.18021783932149 
1111	 1.18206680883812 
1112	 1.18415808596261 
1113	 1.1864203592955 
1114	 1.189133652857 
1115	 1.19187184139363 
1116	 1.19485922643117 
1117	 1.19794858178121 
1118	 1.20118530795619 
1119	 1.20381159265967 
1120	 1.2060509001914 
1121	 1.20755112241323 
1122	 1.20772450387767 
1123	 1.20700140350129 
1124	 1.20557352341502 
1125	 1.20351463664164 
1126	 1.20068267370613 
1127	 1.19756934438799 
1128	 1.19319366774344 
1129	 1.18758652253581 
1130	 1.18237960103902 
1131	 1.1763595209883 
1132	 1.17123889344108 
1133	 1.16638594769506 
1134	 1.1620792137532 
1135	 1.15817071565006 
1136	 1.15463259740574 
1137	 1.15156994356674 
1138	 1.1491435957417 
1139	 1.14755652962971 
1140	 1.14685480477824 
1141	 1.14698946869879 
1142	 1.14770340126759 
1143	 1.14866139515979 
1144	 1.15028629532444 
1145	 1.151666442015 
1146	 1.15334137514913 
1147	 1.15480350145126 
1148	 1.15647010190777 
1149	 1.15756541098973 
1150	 1.15870970115851 
1151	 1.15907030488856 
1152	 1.15900838849242 
1153	 1.15818216320091 
1154	 1.15710962969146 
1155	 1.15592265254447 
1156	 1.15458312871717 
1157	 1.15310821375314 
1158	 1.15136991618847 
1159	 1.14944594272761 
1160	 1.14764326072377 
1161	 1.14573902966867 
1162	 1.14391775548063 
1163	 1.14212133831235 
1164	 1.14037222067716 
1165	 1.13858113125899 
1166	 1.13677803756441 
1167	 1.13484562451826 
1168	 1.13318105112024 
1169	 1.13156174250724 
1170	 1.13001994709906 
1171	 1.12856910104569 
1172	 1.12735276514983 
1173	 1.12594724166691 
1174	 1.12438791384685 
1175	 1.12308409983554 
1176	 1.12169554412913 
1177	 1.1205329905124 
1178	 1.11953663989618 
1179	 1.11858342107219 
1180	 1.11777463633687 
1181	 1.11696965206335 
1182	 1.11614458580034 
1183	 1.11548695330537 
1184	 1.11491939653274 
1185	 1.11445447118802 
1186	 1.11408498437824 
1187	 1.11386905606829 
1188	 1.11376568153848 
1189	 1.11371686841459 
1190	 1.11401921095677 
1191	 1.11450456151291 
1192	 1.11502348973746 
1193	 1.11573081693999 
1194	 1.1164894974971 
1195	 1.11731132223523 
1196	 1.11819344590001 
1197	 1.11927898718466 
1198	 1.12022930935579 
1199	 1.12113936879234 
1200	 1.12207847816402 
1201	 1.12305179216862 
1202	 1.1239663392739 
1203	 1.12494642764994 
1204	 1.12574621786826 
1205	 1.12639699250826 
1206	 1.127057593913 
1207	 1.12755379637887 
1208	 1.12813103395692 
1209	 1.12883678686219 
1210	 1.12936201275974 
1211	 1.12990514115767 
1212	 1.13033249753353 
1213	 1.13071086238302 
1214	 1.13096632433055 
1215	 1.13128949161436 
1216	 1.13155005390998 
1217	 1.13191763733597 
1218	 1.13240035460516 
1219	 1.13273361991504 
1220	 1.13306357317868 
1221	 1.1333399246985 
1222	 1.13353888230194 
1223	 1.13368675389852 
1224	 1.13374351910828 
1225	 1.13390031397503 
1226	 1.13404777736285 
1227	 1.1341622331754 
1228	 1.13430771012646 
1229	 1.13451735779091 
1230	 1.13461844904184 
1231	 1.13463570593646 
1232	 1.13461103587841 
1233	 1.13450478489141 
1234	 1.1345144572179 
1235	 1.13449092742821 
1236	 1.13452424542111 
1237	 1.13464567330097 
1238	 1.13478190386424 
1239	 1.13500433106638 
1240	 1.13504497923289 
1241	 1.13503704489244 
1242	 1.13505497170173 
1243	 1.134952034537 
1244	 1.13487084969014 
1245	 1.13490266512287 
1246	 1.13483604765551 
1247	 1.13462897550829 
1248	 1.13445716776581 
1249	 1.13432140338932 
1250	 1.13411934682018 
1251	 1.13385462924678 
1252	 1.13359195754177 
1253	 1.13335074522739 
1254	 1.13308055022533 
1255	 1.13284130932209 
1256	 1.13267400714959 
1257	 1.13239948711521 
1258	 1.13204342088962 
1259	 1.13174628241581 
1260	 1.13142277372452 
1261	 1.13111224579046 
1262	 1.13086337518395 
1263	 1.13055523019542 
1264	 1.13021807718448 
1265	 1.12986154570516 
1266	 1.12936993087103 
1267	 1.12907228696857 
1268	 1.12889870455852 
1269	 1.12868474901729 
1270	 1.1285892282037 
1271	 1.12847883897208 
1272	 1.12837682594299 
1273	 1.12817584200224 
1274	 1.12802473689265 
1275	 1.12788337716003 
1276	 1.12783701357954 
1277	 1.12777527785407 
1278	 1.12781005687495 
1279	 1.12801805187919 
1280	 1.12809709074712 
1281	 1.12817690536057 
1282	 1.12819166751153 
1283	 1.12813118252928 
1284	 1.12812145145853 
1285	 1.12810826051046 
1286	 1.12806562742964 
1287	 1.1280080335129 
1288	 1.12798707291132 
1289	 1.12788699132049 
1290	 1.12790622316486 
1291	 1.12812245446064 
1292	 1.12818600184538 
1293	 1.12819144176966 
1294	 1.12823639191279 
1295	 1.1281727327035 
1296	 1.12819087195844 
1297	 1.12824091647953 
1298	 1.1283803430898 
1299	 1.12848423762561 
1300	 1.12853295735179 
1301	 1.12875576414931 
1302	 1.12911529166229 
1303	 1.12936817348313 
1304	 1.12964518280026 
1305	 1.1299866743567 
1306	 1.13023680072406 
1307	 1.1306560487007 
1308	 1.13133366454834 
1309	 1.1318373117934 
1310	 1.13233200213397 
1311	 1.13279400457453 
1312	 1.13319103343099 
1313	 1.13357463720194 
1314	 1.13398572111735 
1315	 1.13430541652019 
1316	 1.1344041552767 
1317	 1.13471606114813 
1318	 1.13501906010834 
1319	 1.13545362143401 
1320	 1.13603816188916 
1321	 1.13680427205159 
1322	 1.13755219373649 
1323	 1.13833757902341 
1324	 1.13930234970462 
1325	 1.1404017819892 
1326	 1.14158805660464 
1327	 1.14307101130779 
1328	 1.14431819956357 
1329	 1.14569393914633 
1330	 1.14671515098388 
1331	 1.14757751727869 
1332	 1.14817565698895 
1333	 1.14834837569302 
1334	 1.14861077004122 
1335	 1.1485471075887 
1336	 1.14870779429386 
1337	 1.14871942136477 
1338	 1.14917247761971 
1339	 1.14980115262993 
1340	 1.15082283243961 
1341	 1.15240833497914 
1342	 1.15435133130197 
1343	 1.1573273890917 
1344	 1.16036765704216 
1345	 1.16432125360016 
1346	 1.16894995727045 
1347	 1.17424680577148 
1348	 1.18029422201669 
1349	 1.18713908675236 
1350	 1.19598836075511 
1351	 1.20540973603492 
1352	 1.21610739850145 
1353	 1.22848267753075 
1354	 1.2398823769348 
1355	 1.25700304098805 
1356	 1.27239809764347 
1357	 1.29630069681552 
1358	 1.31666340195241 
1359	 1.35324058135117 
1360	 1.375719497117 
1361	 1.41593991502884 
1362	 1.41750938309777 
1363	 1.45584164517426 
1364	 1.4791338780069 
1365	 1.48494027740146 
1366	 1.47024215829694 
1367	 1.46987624314579 
1368	 1.4419903243199 
1369	 1.43519279527274 
1370	 1.45622271545131 
1371	 1.46010182037857 
1372	 1.45363672307379 
1373	 1.45152936646654 
1374	 1.44723215102624 
1375	 1.44905933621901 
1376	 1.44497476990401 
1377	 1.43665308854698 
1378	 1.43160217391892 
1379	 1.42252219667495 
1380	 1.41639999824259 
1381	 1.41527634771952 
1382	 1.40969192261632 
1383	 1.40216139257139 
1384	 1.39563642605571 
1385	 1.39067497765745 
1386	 1.38267988280353 
1387	 1.37338230222739 
1388	 1.36705551968143 
1389	 1.36444216080367 
1390	 1.35482069262768 
1391	 1.34714102564684 
1392	 1.33314001014537 
1393	 1.31092297804338 
1394	 1.29355321198121 
1395	 1.27340821380767 
1396	 1.25994494434606 
1397	 1.25020021076918 
1398	 1.24095854896855 
1399	 1.23493981163305 
1400	 1.2279632782875 
1401	 1.22219417657321 
1402	 1.21486627450875 
1403	 1.21056466952023 
1404	 1.20120816109643 
1405	 1.19080291006268 
1406	 1.17811115623683 
1407	 1.16266564517609 
1408	 1.14856463542703 
1409	 1.13614554765379 
1410	 1.12253344858482 
1411	 1.11085246865093 
1412	 1.10091219060477 
1413	 1.09023200254056 
1414	 1.07902030222359 
1415	 1.07089886536434 
1416	 1.06302356269723 
1417	 1.05739982971458 
1418	 1.05444262508693 
1419	 1.04941333937362 
1420	 1.04414604477952 
1421	 1.03968128571824 
1422	 1.03496319944854 
1423	 1.03065947026233 
1424	 1.0272087165007 
1425	 1.02321930770229 
1426	 1.01855155300222 
1427	 1.01434167483992 
1428	 1.00998348147094 
1429	 1.00608783494798 
1430	 1.00199617036589 
1431	 0.998559511758944 
1432	 0.995433297848827 
1433	 0.99266502639376 
1434	 0.990366443216354 
1435	 0.988201421349063 
1436	 0.986861989218949 
1437	 0.984764059728073 
1438	 0.982754580104863 
1439	 0.980227575487246 
1440	 0.977223334918771 
1441	 0.974054046352757 
1442	 0.970558723770569 
1443	 0.967194953358619 
1444	 0.963755476645111 
1445	 0.960432660597414 
1446	 0.957404888727619 
1447	 0.954683718405924 
1448	 0.952407865575903 
1449	 0.950440977985027 
1450	 0.948729483117251 
1451	 0.947298699193034 
1452	 0.946176032513226 
1453	 0.945157561438049 
1454	 0.944582777892348 
1455	 0.944190763045412 
1456	 0.94430106943393 
1457	 0.944586932895788 
1458	 0.94547034311813 
1459	 0.946721504711569 
1460	 0.94868000903467 
1461	 0.95120761184067 
1462	 0.954523425404528 
1463	 0.95880067672987 
1464	 0.963778217071706 
1465	 0.970210567691942 
1466	 0.976429009136777 
1467	 0.983814900017452 
1468	 0.990182126956167 
1469	 0.996109370095856 
1470	 1.00149044883569 
1471	 1.00623974111972 
1472	 1.00996791065638 
1473	 1.0127313927865 
1474	 1.01479222407791 
1475	 1.01544281113349 
1476	 1.01622361091775 
1477	 1.01659689717711 
1478	 1.01679316552817 
1479	 1.01684866557349 
1480	 1.01666258424777 
1481	 1.01629979429583 
1482	 1.01565199752785 
1483	 1.01473180501863 
1484	 1.01374721683365 
1485	 1.01265820011056 
1486	 1.01138084920511 
1487	 1.01009992452955 
1488	 1.0085926717698 
1489	 1.0068066933388 
1490	 1.0050495909926 
1491	 1.0032783704446 
1492	 1.00160558938953 
1493	 1.00002313524574 
1494	 0.998271140152926 
1495	 0.996755187012257 
1496	 0.99525682817337 
1497	 0.993810953359752 
1498	 0.992527957714847 
1499	 0.9910416619972 
1500	 0.989367516455064 
1501	 0.98793468236031 
1502	 0.986612354396214 
1503	 0.985000718318877 
1504	 0.983466775271088 
1505	 0.981672105995707 
1506	 0.979544340863925 
1507	 0.977563967704843 
1508	 0.975608213282183 
1509	 0.973556451563976 
1510	 0.971309546015546 
1511	 0.969356702579831 
1512	 0.96733821803128 
1513	 0.965704426916711 
1514	 0.96432909159842 
1515	 0.963083063731931 
1516	 0.961999078140743 
1517	 0.96113518275471 
1518	 0.960435193738742 
1519	 0.959920321890245 
1520	 0.959687811279572 
1521	 0.95946166760086 
1522	 0.959333313008811 
1523	 0.959343063817995 
1524	 0.959585087007312 
1525	 0.959652339971068 
1526	 0.959803756550297 
1527	 0.95983861319153 
1528	 0.959812125691027 
1529	 0.959615193488172 
1530	 0.959413039443349 
1531	 0.958973134862112 
1532	 0.958287872372169 
1533	 0.957495354520816 
1534	 0.956562743161425 
1535	 0.955486046061401 
1536	 0.954052286711057 
1537	 0.952863414579684 
1538	 0.951782378429775 
1539	 0.950532480126464 
1540	 0.949353426100577 
1541	 0.948069159054299 
1542	 0.94631908448449 
1543	 0.945020857909875 
1544	 0.94389690447991 
1545	 0.942928894082128 
1546	 0.94214984992885 
1547	 0.941630062699092 
1548	 0.941318134587131 
1549	 0.941156050254288 
1550	 0.941171241101361 
1551	 0.9414936192132 
1552	 0.942018813294394 
1553	 0.94276394393044 
1554	 0.94401777558229 
1555	 0.945185212873714 
1556	 0.94649798500385 
1557	 0.947759977676594 
1558	 0.949048640043 
1559	 0.950287366493338 
1560	 0.951502789130893 
1561	 0.952688819849299 
1562	 0.953914106438333 
1563	 0.954990268385421 
1564	 0.956034625908943 
1565	 0.956901723470437 
1566	 0.95761378481105 
1567	 0.95845165429622 
1568	 0.959128567720165 
1569	 0.959749770763946 
1570	 0.960339931981616 
1571	 0.960874913789936 
1572	 0.961259962927785 
1573	 0.961570022824285 
1574	 0.961839002706255 
1575	 0.961962919864954 
1576	 0.962061777535192 
1577	 0.962137012351368 
1578	 0.96219775101629 
1579	 0.962140914610866 
1580	 0.962158575778287 
1581	 0.96228777682106 
1582	 0.962186398608302 
1583	 0.96195326129732 
1584	 0.96179041299771 
1585	 0.961498811091968 
1586	 0.961406664976453 
1587	 0.961444556421491 
1588	 0.961403027377012 
1589	 0.961399260381449 
1590	 0.961378430597315 
1591	 0.96136692738626 
1592	 0.961245474303351 
1593	 0.961102782107882 
1594	 0.960924572900234 
1595	 0.960659992554297 
1596	 0.960350411109217 
1597	 0.960051558501963 
1598	 0.959641269844479 
1599	 0.959095189000839 
1600	 0.958563952688472 
1601	 0.957988393103496 
1602	 0.957421158754385 
1603	 0.956864048959464 
1604	 0.956170401793985 
1605	 0.955524480692374 
1606	 0.95456052596198 
1607	 0.953407928219234 
1608	 0.952101486518871 
1609	 0.950615550459297 
1610	 0.948943278941901 
1611	 0.947138819768343 
1612	 0.94507508368871 
1613	 0.942788642662953 
1614	 0.9403421465376 
1615	 0.93772646977389 
1616	 0.934820935340589 
1617	 0.931624205001002 
1618	 0.928441592723621 
1619	 0.925036594292548 
1620	 0.921634136435125 
1621	 0.918181819538098 
1622	 0.914708672408128 
1623	 0.911052485868054 
1624	 0.907599043132025 
1625	 0.904192093971473 
1626	 0.900937972647751 
1627	 0.897695006868709 
1628	 0.894747947364045 
1629	 0.891958470575728 
1630	 0.889349147368605 
1631	 0.887025684062771 
1632	 0.884590537788061 
1633	 0.882285425862068 
1634	 0.879836406270346 
1635	 0.877225688607171 
1636	 0.874918653055114 
1637	 0.872711788686782 
1638	 0.870491309831834 
1639	 0.868638953768089 
1640	 0.866167375689614 
1641	 0.863472722116539 
1642	 0.860552175348426 
1643	 0.857349777080524 
1644	 0.853899042804034 
1645	 0.850397361686964 
1646	 0.846174882864715 
1647	 0.841710484314185 
1648	 0.836245633485143 
1649	 0.830036962484832 
1650	 0.823335946247636 
1651	 0.815804403423857 
1652	 0.808014919933587 
1653	 0.799779286569333 
1654	 0.791156804404727 
1655	 0.781930217997183 
1656	 0.772761056096841 
1657	 0.763142497912164 
1658	 0.75366647331495 
1659	 0.744313570092709 
1660	 0.735126063859295 
1661	 0.7261948855054 
1662	 0.71758021227426 
1663	 0.709297352104187 
1664	 0.701264851468805 
1665	 0.693495272678501 
1666	 0.686109795564715 
1667	 0.678951513495641 
1668	 0.672284595139912 
1669	 0.666149194590456 
1670	 0.660455122252212 
1671	 0.655336277073354 
1672	 0.650779147152748 
1673	 0.646675871534925 
1674	 0.643257635874811 
1675	 0.640307550400506 
1676	 0.637712987657375 
1677	 0.635907684518807 
1678	 0.634597901304744 
1679	 0.633728189681588 
1680	 0.633686249592667 
1681	 0.634276650472812 
1682	 0.635289576738715 
1683	 0.636812741265868 
1684	 0.638783661491375 
1685	 0.640969551472782 
1686	 0.643499784264256 
1687	 0.646415686386631 
1688	 0.649492205875737 
1689	 0.652828647661576 
1690	 0.656596636900141 
1691	 0.660416673067868 
1692	 0.664650971351221 
1693	 0.668693729792881 
1694	 0.672541699910371 
1695	 0.676743807335702 
1696	 0.681063204925074 
1697	 0.685477186793721 
1698	 0.690303649652076 
1699	 0.6949160237301 
1700	 0.699716031949981 
1701	 0.704023266327623 
1702	 0.708053781977455 
1703	 0.711959641689973 
1704	 0.715695516064287 
1705	 0.718873448977198 
1706	 0.721887205474491 
1707	 0.724386767509351 
1708	 0.726213954910628 
1709	 0.727700448853552 
1710	 0.728836740405355 
1711	 0.729500163895511 
1712	 0.729517574849541 
1713	 0.729417385536418 
1714	 0.728987021240374 
1715	 0.728313875633872 
1716	 0.727179707994154 
1717	 0.726239761490927 
1718	 0.725042577296177 
1719	 0.72404659807256 
1720	 0.72323806513595 
1721	 0.722295607441897 
1722	 0.721311098366912 
1723	 0.720411676325006 
1724	 0.719251149177269 
1725	 0.718883933356856 
1726	 0.718835460944975 
1727	 0.71908914839769 
1728	 0.720028406556782 
1729	 0.720859591200058 
1730	 0.721656232961333 
1731	 0.72313391352334 
1732	 0.72476293702459 
1733	 0.726562145032835 
1734	 0.728709611839915 
1735	 0.730837208672692 
1736	 0.733135979357601 
1737	 0.73572711532826 
1738	 0.738145775803578 
1739	 0.740176545924871 
1740	 0.741933191544745 
1741	 0.743189394506174 
1742	 0.744383204289226 
1743	 0.746027301362457 
1744	 0.747455330023815 
1745	 0.748730134527945 
1746	 0.750160739904363 
1747	 0.75084863693281 
1748	 0.751055501725582 
1749	 0.751400199213157 
1750	 0.751495806579277 
1751	 0.751460552538458 
1752	 0.751887005044332 
1753	 0.752354409674528 
1754	 0.752526694765903 
1755	 0.752870512677737 
1756	 0.753082856132913 
1757	 0.753122661967657 
1758	 0.753540580352795 
1759	 0.754274519550602 
1760	 0.755085928313473 
1761	 0.756083568942517 
1762	 0.757131416630315 
1763	 0.758136209777415 
1764	 0.759554849081125 
1765	 0.761235540471818 
1766	 0.763124565181932 
1767	 0.765612826813071 
1768	 0.767656795862065 
1769	 0.769639164110039 
1770	 0.771698851850055 
1771	 0.773677017494903 
1772	 0.775605970611904 
1773	 0.77760931653075 
1774	 0.779430023189871 
1775	 0.781325338446253 
1776	 0.782950472876134 
1777	 0.784296800381532 
1778	 0.785619472724176 
1779	 0.786360907387158 
1780	 0.786971859590173 
1781	 0.788324109452507 
1782	 0.789041226050538 
1783	 0.789657932640833 
1784	 0.790923350751189 
1785	 0.791467955621277 
1786	 0.791937572028853 
1787	 0.792842844968248 
1788	 0.793500790741949 
1789	 0.794499384948086 
1790	 0.795897073545811 
1791	 0.79713913498831 
1792	 0.798742186828711 
1793	 0.800087530964741 
1794	 0.802143278791259 
1795	 0.805345214391778 
1796	 0.80733587387442 
1797	 0.810026493043286 
1798	 0.813946585947482 
1799	 0.816925189114841 
1800	 0.822028353244272 
1801	 0.812742114885657 
1802	 0.817154115182151 
1803	 0.82185511463067 
1804	 0.827017854756681 
1805	 0.831848714080226 
1806	 0.838300963736519 
1807	 0.843509244988149 
1808	 0.846957440436985 
1809	 0.850306951433418 
1810	 0.854770095911982 
1811	 0.860133454147163 
1812	 0.864165704089869 
1813	 0.867091818069996 
1814	 0.871783721330162 
1815	 0.875675043663194 
1816	 0.8808800682796 
1817	 0.891248192071624 
1818	 0.898135990889497 
1819	 0.9035389855506 
1820	 0.906702149661509 
1821	 0.909416677044483 
1822	 0.906118210550861 
1823	 0.907248828834454 
1824	 0.904971263451705 
1825	 0.910770528791101 
1826	 0.935327115399118 
1827	 0.947521295328527 
1828	 0.95773387575783 
1829	 0.972760293258551 
1830	 0.985141086235721 
1831	 0.962582716377281 
1832	 0.971350115741287 
1833	 1.03244281989655 
1834	 1.06749840530477 
1835	 1.08335540644522 
1836	 1.11383642792447 
1837	 1.08725208487557 
1838	 1.07639923260007 
1839	 1.06980033601884 
1840	 1.10982141750738 
1841	 1.0710879513745 
1842	 0.969214993581255 
1843	 0.948858421000045 
1844	 0.916475019855704 
1845	 0.917839862714056 
1846	 1.02226193608919 
1847	 1.04295987167651 
1848	 1.03718949539167 
1849	 0.986174431047676 
1850	 0.996079817559629 
1851	 0.989038833962572 
1852	 1.00275035738927 
1853	 1.11150644887655 
1854	 1.12800753868303 
1855	 1.05284883043334 
1856	 1.03793342009948 
1857	 1.00805952354783 
1858	 1.02301401181631 
1859	 1.02358926561432 
1860	 1.05762685415528 
1861	 1.04656404659672 
1862	 0.98345903711318 
1863	 0.985830006273173 
1864	 1.02676450316018 
1865	 1.03209057106957 
1866	 1.0390361258436 
1867	 1.09621518327985 
1868	 1.06225938638343 
1869	 1.02380022138308 
1870	 1.02450780594737 
1871	 1.06190040944744 
1872	 1.06814076507807 
1873	 1.09532406727215 
1874	 1.08506331242869 
1875	 1.05046910780188 
1876	 1.03400713379687 
1877	 1.02466610547887 
1878	 0.999199052796392 
1879	 0.997338487424896 
1880	 0.983490938807665 
1881	 0.983160492753456 
1882	 0.989612327245359 
1883	 0.993111609877197 
1884	 1.00522204003729 
1885	 1.00711942991361 
1886	 1.01123014953879 
1887	 0.998168577101556 
1888	 0.977579756095589 
1889	 0.961951526132795 
1890	 0.951664735690229 
1891	 0.937146440024236 
1892	 0.928660502256734 
1893	 0.930077996227479 
1894	 0.926677042754746 
1895	 0.922139562826089 
1896	 0.919607165904331 
1897	 0.922612533789578 
1898	 0.918485762737434 
1899	 0.910989847308906 
1900	 0.898644038660162 
1901	 0.880367540961164 
1902	 0.830178291979844 
1903	 0.821002995025709 
1904	 0.851187646721528 
1905	 0.871226874821843 
1906	 0.933361581233638 
1907	 0.953139606593981 
1908	 0.934185040731144 
1909	 0.880116448350292 
1910	 0.859061118278592 
1911	 0.862710175155055 
1912	 0.847424726801421 
1913	 0.840844530438346 
1914	 0.829975375222859 
1915	 0.807286927726454 
1916	 0.798675682048067 
1917	 0.800034532531657 
1918	 0.794418170503628 
1919	 0.785457699477822 
1920	 0.784909838270677 
1921	 0.78267466792155 
1922	 0.783919034606419 
1923	 0.781576612420714 
1924	 0.779050372396844 
1925	 0.774074192696981 
1926	 0.76581528850327 
1927	 0.760245746447001 
1928	 0.753426556652032 
1929	 0.751862365388031 
1930	 0.752018027474773 
1931	 0.745366168933803 
1932	 0.742010902591686 
1933	 0.739929147471877 
1934	 0.735536080805652 
1935	 0.731379061506483 
1936	 0.726913193820118 
1937	 0.719494398096223 
1938	 0.715553201992324 
1939	 0.712254939016695 
1940	 0.710357042911101 
1941	 0.710828229223972 
1942	 0.711382807318903 
1943	 0.711363454402786 
1944	 0.712651344527539 
1945	 0.71051615304977 
1946	 0.706289024405648 
1947	 0.70374425924856 
1948	 0.699536883950881 
1949	 0.697196413934719 
1950	 0.695658547922425 
1951	 0.696622872577293 
1952	 0.695951725499245 
1953	 0.696088414698645 
1954	 0.695770290988702 
1955	 0.694016490476036 
1956	 0.693902589135149 
1957	 0.692386050418203 
1958	 0.691457772123057 
1959	 0.691430940475135 
1960	 0.690605216201588 
1961	 0.689457961042319 
1962	 0.688518819801614 
1963	 0.687068897395595 
1964	 0.68549676309692 
1965	 0.68416604068941 
1966	 0.683206659049719 
1967	 0.682383831685666 
1968	 0.68169530017849 
1969	 0.681241244898089 
1970	 0.680829444920379 
1971	 0.680734096301748 
1972	 0.680943692452126 
1973	 0.680938664308256 
1974	 0.68130307474861 
1975	 0.681833086881749 
1976	 0.682228099483444 
1977	 0.682879704263967 
1978	 0.683226437057152 
1979	 0.683264335834622 
1980	 0.683396472891214 
1981	 0.683723849368813 
1982	 0.683882747009271 
1983	 0.684074976027677 
1984	 0.684102004931896 
1985	 0.684222521318638 
1986	 0.684213041406451 
1987	 0.684343947067391 
1988	 0.684656295099296 
1989	 0.684645938224194 
1990	 0.684712978590631 
1991	 0.68440502392174 
1992	 0.684141403508973 
1993	 0.684104796602481 
1994	 0.683949086624998 
1995	 0.683951766237791 
1996	 0.684302196057423 
1997	 0.684400498237169 
1998	 0.684122543921298 
1999	 0.683413124998675 
2000	 0.68178168116572 
2001	 0.680344565971943 
2002	 0.680422494737302 
2003	 0.680703580009739 
2004	 0.680669551581602 
2005	 0.680801424321076 
2006	 0.679956019520623 
2007	 0.677728451280285 
2008	 0.675666564154605 
2009	 0.675101758359466 
2010	 0.674050204236002 
2011	 0.673501176730922 
2012	 0.673163129207412 
2013	 0.671726759725953 
2014	 0.670625665990588 
2015	 0.669544356118852 
2016	 0.668591004896944 
2017	 0.667113817210944 
2018	 0.66508455919949 
2019	 0.663556282117165 
2020	 0.662144853209214 
2021	 0.66031075235748 
2022	 0.659290751099439 
2023	 0.658946664266661 
2024	 0.658102405298775 
2025	 0.656659594746314 
2026	 0.654997317529963 
2027	 0.653379609993411 
2028	 0.651637346472707 
2029	 0.650563911318593 
2030	 0.649554765971256 
2031	 0.64833576828616 
2032	 0.647415694177464 
2033	 0.64665152583341 
2034	 0.645773452929042 
2035	 0.64512790247257 
2036	 0.644211453727048 
2037	 0.642631245272791 
2038	 0.641648416187092 
2039	 0.640956559457727 
2040	 0.640481186849686 
2041	 0.640210784789632 
2042	 0.639609102551189 
2043	 0.638948902858669 
2044	 0.637737847912215 
2045	 0.636875685222906 
2046	 0.636237745251045 
2047	 0.635900425483604 
2048	 0.635210867962423 
2049	 0.634873273854918 
2050	 0.634573873808812 
2051	 0.633747084222156 
2052	 0.63231786291418 
2053	 0.631549707476775 
2054	 0.631139009783651 
2055	 0.630129415590177 
2056	 0.629537359078163 
2057	 0.628782767808961 
2058	 0.627426244257874 
2059	 0.626268250291216 
2060	 0.625373496152648 
2061	 0.624107609962202 
2062	 0.622435941056421 
2063	 0.621525098062812 
2064	 0.620368208960163 
2065	 0.619039408047796 
2066	 0.618356596322153 
2067	 0.616867213648216 
2068	 0.615002623347177 
2069	 0.613753409798334 
2070	 0.61241072586588 
2071	 0.610848602895262 
2072	 0.609321929290321 
2073	 0.607790963742735 
2074	 0.60645338775466 
2075	 0.605065254974151 
2076	 0.60363442644398 
2077	 0.602790944437177 
2078	 0.601816055331121 
2079	 0.600418498033145 
2080	 0.599691020496795 
2081	 0.59887317763222 
2082	 0.597594590318442 
2083	 0.596865514013818 
2084	 0.596211992019966 
2085	 0.595399867724155 
2086	 0.594623877871787 
2087	 0.593535117545972 
2088	 0.592083915596286 
2089	 0.590858345887796 
2090	 0.590438175896399 
2091	 0.590120499466853 
2092	 0.589893211975728 
2093	 0.589441706823411 
2094	 0.588103063276643 
2095	 0.586765552753151 
2096	 0.586245188703443 
2097	 0.58592987689095 
2098	 0.585647517909932 
2099	 0.584695640174746 
2100	 0.583611969400162 
2101	 0.582797367659925 
2102	 0.581702808339647 
2103	 0.580326069549596 
2104	 0.579356634258629 
2105	 0.578193325600901 
2106	 0.576531601703799 
2107	 0.575012254534068 
2108	 0.573627754376468 
2109	 0.571523412485673 
2110	 0.568886272514331 
2111	 0.566427246842851 
2112	 0.563794259875519 
2113	 0.561612881904553 
2114	 0.559407192951777 
2115	 0.556076321441111 
2116	 0.552931772137424 
2117	 0.549625927388443 
2118	 0.545794801111746 
2119	 0.541868519429218 
2120	 0.538114097821508 
2121	 0.533872625993302 
2122	 0.529687128843524 
2123	 0.525965850327999 
2124	 0.521681397983408 
2125	 0.516726972111166 
2126	 0.511092228259601 
2127	 0.5055131833258 
2128	 0.500076263156344 
2129	 0.494635920575724 
2130	 0.488951434778012 
2131	 0.481906908106515 
2132	 0.474355180010569 
2133	 0.46695386270013 
2134	 0.459689819054645 
2135	 0.452108346891987 
2136	 0.444913612501137 
2137	 0.438730510683745 
2138	 0.43273713276672 
2139	 0.427029169796858 
2140	 0.423176734016478 
2141	 0.420196801325473 
2142	 0.418228234556323 
2143	 0.41784486391107 
2144	 0.417938265773255 
2145	 0.418770171076029 
2146	 0.420582014108252 
2147	 0.422547008304662 
2148	 0.424784318188977 
2149	 0.426970347133865 
2150	 0.428545943407009 
2151	 0.429217342568793 
2152	 0.429033159081954 
2153	 0.428712303033526 
2154	 0.427706835111602 
2155	 0.425993852070425 
2156	 0.424813236066917 
2157	 0.422886564124722 
2158	 0.420388397937052 
2159	 0.417992250829114 
2160	 0.415751231499575 
2161	 0.41440721006671 
2162	 0.413345411281368 
2163	 0.41240032027886 
2164	 0.411725582207911 
2165	 0.410925679874347 
2166	 0.41085820412466 
2167	 0.411508087695436 
2168	 0.412148996734965 
2169	 0.413158036678584 
2170	 0.414768611280996 
2171	 0.416696484111765 
2172	 0.418451918879573 
2173	 0.42116591546955 
2174	 0.423759617454024 
2175	 0.425608664226366 
2176	 0.427110061847304 
2177	 0.428529967333776 
2178	 0.429238421090278 
2179	 0.429882850286876 
2180	 0.4309056879538 
2181	 0.431101169425488 
2182	 0.43010096984856 
2183	 0.42921016409408 
2184	 0.42875049410689 
2185	 0.428764365050291 
2186	 0.42973056050104 
2187	 0.430232874576071 
2188	 0.430423481100306 
2189	 0.431144003755776 
2190	 0.431977952691089 
2191	 0.432820091359438 
2192	 0.434465156871833 
2193	 0.435786398664695 
2194	 0.436990359834813 
2195	 0.438459448428006 
2196	 0.439293576306384 
2197	 0.440503324763525 
2198	 0.441720474573968 
2199	 0.442094538783132 
2200	 0.442369774635616 
2201	 0.442026752767635 
2202	 0.44049707567424 
2203	 0.439412116475276 
2204	 0.438621653389279 
2205	 0.43719644374425 
2206	 0.43591541129838 
2207	 0.434220765949368 
2208	 0.432655876754582 
2209	 0.430693648730898 
2210	 0.429332299244936 
2211	 0.428230844447094 
2212	 0.427597100250261 
2213	 0.426971491164671 
2214	 0.426296390711126 
2215	 0.426173877819894 
2216	 0.426109884264011 
2217	 0.425776762349195 
2218	 0.425911273613562 
2219	 0.425487409353571 
2220	 0.424724045819668 
2221	 0.42399558286243 
2222	 0.422854590514105 
2223	 0.421404419290607 
2224	 0.419167546129286 
2225	 0.417177300748829 
2226	 0.414940774731232 
2227	 0.41311279363278 
2228	 0.411926771951081 
2229	 0.408985497382108 
2230	 0.405447106915942 
2231	 0.402213457830941 
2232	 0.398245570529779 
2233	 0.394593856138858 
2234	 0.391429307410252 
2235	 0.388142803765248 
2236	 0.383990215372516 
2237	 0.379081312935759 
2238	 0.373970444283159 
2239	 0.368909732757369 
2240	 0.362926711798506 
2241	 0.356758735115699 
2242	 0.350965126300082 
2243	 0.344430920104601 
2244	 0.338177792781973 
2245	 0.332669364059361 
2246	 0.326588613995788 
2247	 0.321103511958105 
2248	 0.316576644696044 
2249	 0.311603772186172 
2250	 0.306879637033508 
2251	 0.301894342768943 
2252	 0.29669035315533 
2253	 0.292179041240124 
2254	 0.287383859879642 
2255	 0.283081941173487 
2256	 0.279290478188642 
2257	 0.275946679277147 
2258	 0.272472588944441 
2259	 0.270348124764053 
2260	 0.26831716258707 
2261	 0.265828761241534 
2262	 0.26353742155126 
2263	 0.260148485612354 
2264	 0.257256675487511 
2265	 0.255297053990111 
2266	 0.253709674625529 
2267	 0.253308860788441 
2268	 0.252623013347879 
2269	 0.251994810462451 
2270	 0.252203623750361 
2271	 0.252528634738794 
2272	 0.253520365591953 
2273	 0.254492021723111 
2274	 0.25550175376598 
2275	 0.256653085410642 
2276	 0.257593515819069 
2277	 0.25933669270868 
2278	 0.261606342899268 
2279	 0.26363504082931 
2280	 0.264949570263669 
2281	 0.265994413125544 
2282	 0.266631076709021 
2283	 0.267351002868644 
2284	 0.268509009841144 
2285	 0.268859604680134 
2286	 0.269046724998654 
2287	 0.26878822993263 
2288	 0.268126512410513 
2289	 0.267739409188229 
2290	 0.267768273080908 
2291	 0.267689487582962 
2292	 0.267685333978596 
2293	 0.267972091715797 
2294	 0.268319982133559 
2295	 0.267581942162738 
2296	 0.266817504741561 
2297	 0.26527819132612 
2298	 0.263506747234164 
2299	 0.26317282571472 
2300	 0.263455946245437 
2301	 0.264176360744961 
2302	 0.2639475835228 
2303	 0.263320859261826 
2304	 0.262206428092957 
2305	 0.260462983864803 
2306	 0.260613051240094 
2307	 0.26178651946174 
2308	 0.262714058750552 
2309	 0.26409001342807 
2310	 0.264703008536792 
2311	 0.264918112933304 
2312	 0.26638197801091 
2313	 0.267448116976557 
2314	 0.268241488661283 
2315	 0.269593100625711 
2316	 0.270570541698744 
2317	 0.271477898409301 
2318	 0.272978328495041 
2319	 0.273548887590044 
2320	 0.273078755001615 
2321	 0.273555798638383 
2322	 0.274207903984237 
2323	 0.274718518473789 
2324	 0.275839542698269 
2325	 0.276775340471781 
2326	 0.276282806278904 
2327	 0.27634351563552 
2328	 0.274984858257469 
2329	 0.273659167315311 
2330	 0.27364874694839 
2331	 0.271938052694421 
2332	 0.270325741163256 
2333	 0.269982173364766 
2334	 0.26819857857794 
2335	 0.266601166667943 
2336	 0.266534336624899 
2337	 0.265556199048102 
2338	 0.264249028981105 
2339	 0.262965847795135 
2340	 0.261396465181115 
2341	 0.260461192601653 
2342	 0.258828832453575 
2343	 0.256980667930233 
2344	 0.256177808084454 
2345	 0.256900929417879 
2346	 0.258232515300648 
2347	 0.259284484000644 
2348	 0.260970669068488 
2349	 0.260830311308802 
2350	 0.259630345970526 
2351	 0.260803231679239 
2352	 0.260886480806059 
2353	 0.257957333767105 
2354	 0.256403450114671 
2355	 0.255211278271083 
2356	 0.254136331131626 
2357	 0.254522647217748 
2358	 0.255051250809333 
2359	 0.255585979424799 
2360	 0.254668612144758 
2361	 0.25478096618965 
2362	 0.255631986900776 
2363	 0.256237850253867 
2364	 0.257165070622132 
2365	 0.257756189658707 
2366	 0.259021237910127 
2367	 0.259900965216954 
2368	 0.261268276414041 
2369	 0.262016836965977 
2370	 0.261938591213506 
2371	 0.261957297109864 
2372	 0.262355116120679 
2373	 0.264073532597016 
2374	 0.2644933255917 
2375	 0.263119592776316 
2376	 0.26303465068286 
2377	 0.262878678075488 
2378	 0.262737032309215 
2379	 0.265514447790419 
2380	 0.267204856942985 
2381	 0.265861398856633 
2382	 0.26663309190523 
2383	 0.2689660822934 
2384	 0.266809771576295 
2385	 0.263122176663624 
2386	 0.262999233392956 
2387	 0.261939031685445 
2388	 0.263378964476404 
2389	 0.270155491198603 
2390	 0.271515801796845 
2391	 0.269239302627922 
2392	 0.267566499645519 
2393	 0.264072442715899 
2394	 0.262641567466584 
2395	 0.261796681944136 
2396	 0.261612614990009 
2397	 0.262476648381229 
2398	 0.263198116567595 
2399	 0.266626699354802 
2400	 0.267649654367401 
2401	 0.266967604054924 
2402	 0.26625397971816 
2403	 0.267804392428436 
2404	 0.265298569473607 
2405	 0.265595196598781 
2406	 0.267249455976704 
2407	 0.264935713768308 
2408	 0.262832158024719 
2409	 0.259982630865471 
2410	 0.259522757864595 
2411	 0.257925668446428 
2412	 0.255284542073897 
2413	 0.258227296738166 
2414	 0.259372307393873 
2415	 0.260441326356984 
2416	 0.261886115176719 
2417	 0.25683857882919 
2418	 0.253685418165578 
2419	 0.256277778867657 
2420	 0.260368076985265 
2421	 0.26741804917277 
2422	 0.268781319985358 
2423	 0.263248469909124 
2424	 0.258282115757716 
2425	 0.253021083710035 
2426	 0.253051245691135 
2427	 0.255051327392152 
2428	 0.255949825522193 
2429	 0.260097076982115 
2430	 0.259750645411219 
2431	 0.25924313187989 
2432	 0.258972855777931 
2433	 0.251931636822641 
2434	 0.253621822493504 
2435	 0.262078330378975 
2436	 0.264211512665291 
2437	 0.270438204403756 
2438	 0.269967840542682 
2439	 0.256282472509292 
2440	 0.253142396933932 
2441	 0.254041254265511 
2442	 0.255607386525464 
2443	 0.266276522399803 
2444	 0.269906927028709 
2445	 0.270830164374694 
2446	 0.26706054892121 
2447	 0.253281693209468 
2448	 0.246514961673283 
2449	 0.242233533560694 
2450	 0.235039749093598 
2451	 0.227976694872697 
2452	 0.225214474063288 
2453	 0.219555414499955 
2454	 0.219058740813611 
2455	 0.229682173819197 
2456	 0.231270961412246 
2457	 0.231174943100487 
2458	 0.230196293530685 
2459	 0.224807000493949 
2460	 0.222766922887989 
2461	 0.217346411804506 
2462	 0.216360062686728 
2463	 0.222908048686588 
2464	 0.220470217738876 
2465	 0.214937718699625 
2466	 0.213645138141894 
2467	 0.207694482129955 
2468	 0.20544253878602 
2469	 0.211097666795895 
2470	 0.213679556783118 
2471	 0.212181799659 
2472	 0.214757802122345 
2473	 0.221584225539818 
2474	 0.225737491127554 
2475	 0.230611515300558 
2476	 0.233471375010545 
2477	 0.231710540764069 
2478	 0.240474216071939 
2479	 0.26422234922121 
2480	 0.265021270244172 
2481	 0.251113691737283 
2482	 0.257299086321311 
2483	 0.253149531819247 
2484	 0.244754096587944 
2485	 0.267014207265484 
2486	 0.226979039098602 
2487	 0.193374405162155 
2488	 0.21672906581708 
2489	 0.25937719167877 
2490	 0.290407693157324 
2491	 0.273706108793587 
2492	 0.189253660138167 
2493	 0.153922696769781 
2494	 0.162752649717845 
2495	 0.15198261042754 
2496	 0.204393583467275 
2497	 0.253543871561451 
2498	 0.235432797413233 
2499	 0.256646927560864 
2500	 0.282588700483487 
