Wavelength	ref00017.asd
350	 0.416447148652347 
351	 0.417771623671878 
352	 0.420101221855565 
353	 0.421975877381225 
354	 0.422792023151865 
355	 0.42357336902715 
356	 0.425063584799413 
357	 0.426931345258288 
358	 0.427621994271164 
359	 0.427838107340626 
360	 0.428774225989946 
361	 0.430221441521894 
362	 0.431990380113873 
363	 0.433813058286013 
364	 0.435415439439012 
365	 0.436916318029581 
366	 0.437978803405975 
367	 0.438516711661583 
368	 0.438817380875515 
369	 0.439745850379101 
370	 0.440799404798713 
371	 0.441482411072714 
372	 0.44242289881936 
373	 0.443498736347572 
374	 0.444657873304308 
375	 0.445816878924169 
376	 0.446465924085498 
377	 0.447023875002049 
378	 0.447784818064557 
379	 0.44876866040764 
380	 0.449625157193658 
381	 0.450499099789237 
382	 0.451359526146913 
383	 0.451307071460096 
384	 0.451704293643071 
385	 0.452668144109404 
386	 0.453778918107543 
387	 0.455167849121483 
388	 0.457214263855226 
389	 0.459317136640232 
390	 0.459969714626118 
391	 0.460489791958903 
392	 0.46103650083402 
393	 0.4616873614638 
394	 0.462879703051379 
395	 0.463929192388805 
396	 0.465173597632643 
397	 0.467152249428273 
398	 0.46951141801027 
399	 0.471795323875371 
400	 0.473778617348329 
401	 0.475448744989788 
402	 0.476651673179632 
403	 0.477675444169674 
404	 0.478576292057613 
405	 0.478775471521587 
406	 0.479055385899328 
407	 0.47962304625726 
408	 0.480483515669043 
409	 0.481716069780474 
410	 0.483294320073486 
411	 0.485013065204407 
412	 0.486528327014077 
413	 0.487602110627885 
414	 0.488574900807957 
415	 0.489685091784519 
416	 0.490754195876179 
417	 0.491843648070274 
418	 0.49283771313028 
419	 0.493659149831471 
420	 0.494689254958348 
421	 0.495647047010872 
422	 0.496550186707102 
423	 0.497670492190164 
424	 0.498543395187237 
425	 0.499044571176172 
426	 0.499251297311888 
427	 0.499470994221003 
428	 0.500024264769083 
429	 0.500744374267324 
430	 0.501364383039093 
431	 0.502176734528284 
432	 0.503233130948832 
433	 0.504413353241684 
434	 0.505482357580201 
435	 0.506625036111892 
436	 0.507437334300377 
437	 0.507816461414933 
438	 0.508394358812859 
439	 0.509258768909293 
440	 0.510050169678151 
441	 0.510415608605468 
442	 0.511036274181309 
443	 0.511798390489267 
444	 0.512489185277753 
445	 0.512879504242275 
446	 0.513279815197273 
447	 0.513685088193415 
448	 0.514088324787101 
449	 0.514653378556561 
450	 0.515082610845963 
451	 0.515394111350363 
452	 0.515728209492178 
453	 0.516032677828672 
454	 0.516281363351195 
455	 0.516522900155348 
456	 0.516888713662401 
457	 0.517519758646597 
458	 0.518181125706844 
459	 0.518664082889954 
460	 0.519103872265039 
461	 0.51948790160296 
462	 0.519883604521979 
463	 0.520373305905901 
464	 0.520815284660365 
465	 0.521126985592353 
466	 0.521342878356638 
467	 0.521649548385794 
468	 0.522128141621419 
469	 0.522655327891018 
470	 0.523097960920589 
471	 0.523555556955062 
472	 0.523991148380675 
473	 0.524410139128269 
474	 0.52483706911859 
475	 0.525147089120662 
476	 0.525430971831308 
477	 0.525760365523946 
478	 0.52610492661867 
479	 0.526579975984167 
480	 0.52716070292005 
481	 0.527729298769715 
482	 0.528025001697036 
483	 0.528105288021384 
484	 0.528058574598685 
485	 0.527993168526206 
486	 0.527980732606988 
487	 0.528165855323104 
488	 0.528635366086276 
489	 0.529352946912715 
490	 0.530042364815686 
491	 0.530450070633231 
492	 0.530455989502443 
493	 0.530512747239706 
494	 0.530734988387322 
495	 0.531135341809489 
496	 0.531635922338708 
497	 0.531911576929837 
498	 0.532024459026717 
499	 0.532098690686586 
500	 0.532071021977675 
501	 0.5321166303272 
502	 0.532279218212334 
503	 0.532516140312125 
504	 0.532893331631737 
505	 0.533212880215625 
506	 0.533351980524217 
507	 0.533345369215675 
508	 0.533394991524323 
509	 0.533562573318456 
510	 0.533806276103955 
511	 0.533878289137826 
512	 0.534040854684346 
513	 0.534265662534029 
514	 0.534272404179681 
515	 0.53416840466423 
516	 0.534028015204255 
517	 0.533881028106567 
518	 0.533584195397391 
519	 0.533868715622739 
520	 0.534485373765315 
521	 0.534822014449399 
522	 0.534820791630995 
523	 0.534718129063588 
524	 0.534642663677236 
525	 0.534574754167645 
526	 0.534256296288361 
527	 0.533948416418595 
528	 0.533975465192184 
529	 0.534525998753006 
530	 0.534876274203149 
531	 0.534814392658725 
532	 0.534491851654833 
533	 0.534329991253339 
534	 0.534389889091963 
535	 0.534599397764284 
536	 0.534772842469839 
537	 0.534841536785529 
538	 0.534689209050322 
539	 0.534278775366033 
540	 0.533906758310759 
541	 0.533601089945411 
542	 0.533428033911146 
543	 0.533464780578094 
544	 0.533370814696087 
545	 0.533203221358695 
546	 0.533032509925596 
547	 0.532775461919318 
548	 0.532561267325302 
549	 0.532499238589527 
550	 0.532615488667605 
551	 0.532504677927037 
552	 0.532456644985625 
553	 0.532579805359224 
554	 0.532702183757519 
555	 0.532800350823477 
556	 0.532803260531152 
557	 0.532674921866981 
558	 0.532502894333405 
559	 0.53232846703217 
560	 0.532151221738923 
561	 0.531933228640664 
562	 0.531617342681773 
563	 0.531141984752237 
564	 0.530543283257796 
565	 0.530014235580864 
566	 0.529646991998595 
567	 0.529480951291732 
568	 0.529476881070479 
569	 0.529418729493081 
570	 0.529295955740634 
571	 0.529212587902606 
572	 0.529355897142376 
573	 0.529656103861432 
574	 0.529919234395012 
575	 0.530071558344974 
576	 0.530416883595976 
577	 0.530566977267025 
578	 0.530554207247151 
579	 0.530622125599189 
580	 0.530869590861186 
581	 0.531274875615888 
582	 0.531781112167124 
583	 0.532316202257138 
584	 0.532627182524485 
585	 0.532744861411278 
586	 0.532804274658183 
587	 0.533048198041928 
588	 0.532733300282522 
589	 0.532003993450001 
590	 0.531677664568548 
591	 0.531748467052617 
592	 0.531652211140927 
593	 0.531166747965777 
594	 0.530797840137907 
595	 0.530616992791299 
596	 0.530664847663666 
597	 0.530942702777707 
598	 0.531455132893966 
599	 0.532180969913864 
600	 0.532964813092552 
601	 0.533527322390639 
602	 0.533900858628298 
603	 0.534215170236465 
604	 0.534528628315542 
605	 0.534644166331651 
606	 0.534687401248606 
607	 0.53463748543317 
608	 0.53441508793367 
609	 0.53404323691683 
610	 0.533733100269372 
611	 0.533542016601006 
612	 0.533291744159153 
613	 0.532917333288086 
614	 0.532627066859222 
615	 0.532559760667103 
616	 0.5322766406196 
617	 0.53211784619658 
618	 0.532176360805975 
619	 0.53234115064846 
620	 0.532506047783573 
621	 0.532585480156619 
622	 0.532587921284666 
623	 0.532693302265369 
624	 0.532682113339754 
625	 0.532651963127593 
626	 0.53276544955084 
627	 0.532895458507716 
628	 0.533000763464009 
629	 0.533058016390431 
630	 0.533062583174743 
631	 0.533106823517041 
632	 0.533103159540095 
633	 0.533050467300855 
634	 0.533285178032628 
635	 0.533371291827567 
636	 0.533369162379423 
637	 0.533520453875423 
638	 0.533623571519096 
639	 0.533619764191182 
640	 0.533532272137055 
641	 0.53347414954299 
642	 0.533582894179141 
643	 0.533768226277448 
644	 0.533898024253301 
645	 0.533919512423781 
646	 0.53392945448629 
647	 0.533945685292478 
648	 0.533947169109927 
649	 0.534040191516376 
650	 0.534169069347365 
651	 0.534310884740997 
652	 0.53453323127083 
653	 0.534839663373374 
654	 0.535177151802675 
655	 0.535380980368735 
656	 0.534784351996392 
657	 0.534541244011675 
658	 0.534923593879442 
659	 0.535363434021314 
660	 0.535651716325664 
661	 0.5358440159187 
662	 0.536006827312314 
663	 0.53614824647145 
664	 0.536340319940186 
665	 0.536454615834036 
666	 0.536384549421202 
667	 0.536488798509867 
668	 0.536544358415168 
669	 0.536545554156523 
670	 0.536688933973563 
671	 0.536700763126961 
672	 0.536669449682125 
673	 0.536704545170878 
674	 0.536812095977215 
675	 0.536916178799388 
676	 0.537033539619229 
677	 0.537177945751695 
678	 0.537116066226184 
679	 0.537095766252757 
680	 0.537200078382888 
681	 0.537309300010077 
682	 0.537468760140782 
683	 0.53756801428677 
684	 0.537612350860529 
685	 0.538016465273774 
686	 0.538291292870038 
687	 0.538163798284394 
688	 0.537595299574306 
689	 0.537434300893921 
690	 0.537446830317354 
691	 0.537413987817376 
692	 0.537262025808425 
693	 0.537000156154233 
694	 0.536771609416094 
695	 0.536693911933776 
696	 0.536739971716587 
697	 0.536793508175787 
698	 0.536769255033019 
699	 0.536623978035616 
700	 0.536461480155394 
701	 0.536303872496871 
702	 0.536139497263388 
703	 0.535933926980687 
704	 0.536042377549348 
705	 0.536209966676415 
706	 0.536184134105004 
707	 0.53608092395656 
708	 0.53595095643815 
709	 0.535816662233571 
710	 0.535696359785642 
711	 0.535694896305521 
712	 0.535695966371334 
713	 0.535643119363624 
714	 0.535570365812983 
715	 0.535438563272025 
716	 0.535132273908103 
717	 0.534548044339088 
718	 0.533657892251958 
719	 0.532922785326374 
720	 0.532793927707491 
721	 0.533398611844991 
722	 0.53405198065459 
723	 0.53418464888706 
724	 0.53379526680651 
725	 0.533485662913031 
726	 0.533508406803337 
727	 0.533657410919789 
728	 0.533704933814085 
729	 0.533627190302786 
730	 0.533588351652504 
731	 0.533698216348948 
732	 0.534009722392568 
733	 0.53450125689633 
734	 0.534816864510019 
735	 0.534939756592766 
736	 0.535154203414946 
737	 0.535481629900269 
738	 0.535802783903304 
739	 0.53607660249751 
740	 0.536477046105516 
741	 0.536849538219769 
742	 0.537265833527803 
743	 0.537825700939524 
744	 0.538429436730276 
745	 0.538994485431079 
746	 0.539560940051741 
747	 0.540247198501958 
748	 0.540949349834304 
749	 0.541745824077172 
750	 0.542637586924829 
751	 0.543455923167946 
752	 0.544332594831178 
753	 0.545251474170506 
754	 0.546171283114757 
755	 0.547080839130809 
756	 0.548261724175097 
757	 0.549742160432404 
758	 0.551347691155032 
759	 0.552447473558588 
760	 0.55253200014844 
761	 0.55210494130155 
762	 0.554329669547814 
763	 0.555445740212347 
764	 0.555993929897599 
765	 0.556713860494936 
766	 0.557286640119945 
767	 0.558076013813939 
768	 0.558923247794919 
769	 0.559591130039417 
770	 0.560204652489732 
771	 0.560780471757843 
772	 0.561346546223575 
773	 0.56193370960036 
774	 0.562374094561027 
775	 0.562823978049041 
776	 0.563369202136797 
777	 0.563898395907335 
778	 0.564382268384231 
779	 0.56474559052101 
780	 0.564986825749417 
781	 0.565373516073135 
782	 0.565820452309254 
783	 0.566200048207031 
784	 0.566421122897614 
785	 0.566781808832105 
786	 0.567202468904963 
787	 0.567554370973311 
788	 0.567715635803969 
789	 0.568028455675834 
790	 0.568397788035274 
791	 0.568695031030512 
792	 0.568901561535793 
793	 0.569178268252552 
794	 0.569588795822467 
795	 0.570075290381111 
796	 0.570284792418317 
797	 0.57059028214673 
798	 0.571018221514475 
799	 0.571367887400651 
800	 0.571508383823936 
801	 0.571662591697735 
802	 0.571941140896956 
803	 0.572276622590717 
804	 0.572537086922598 
805	 0.57284901638394 
806	 0.573273500703134 
807	 0.573649290805383 
808	 0.573782387592979 
809	 0.573874678545584 
810	 0.574120250646799 
811	 0.574139814057255 
812	 0.574075708460082 
813	 0.573926698488718 
814	 0.573625772852975 
815	 0.573255760690342 
816	 0.573150031892244 
817	 0.573416404298453 
818	 0.5738718196439 
819	 0.574483591682287 
820	 0.575075364430435 
821	 0.57538391708314 
822	 0.575012706811963 
823	 0.574634017371255 
824	 0.575018824175122 
825	 0.57625338488878 
826	 0.576678238784988 
827	 0.576450060650572 
828	 0.576091733406288 
829	 0.576174647351081 
830	 0.576330048262309 
831	 0.576457022853743 
832	 0.576545959156574 
833	 0.576676966967266 
834	 0.577094017665782 
835	 0.577512278261092 
836	 0.57778298108026 
837	 0.57800077010659 
838	 0.578143707579858 
839	 0.578359127528638 
840	 0.578669323176831 
841	 0.578805519341665 
842	 0.578767752125553 
843	 0.578825734045369 
844	 0.579163736322409 
845	 0.579414240641372 
846	 0.579722023233067 
847	 0.579985162894781 
848	 0.58003454239249 
849	 0.579907136891612 
850	 0.579996503978676 
851	 0.580339546784673 
852	 0.580636395228387 
853	 0.580426809368951 
854	 0.580162133694909 
855	 0.580309022504069 
856	 0.581111839809049 
857	 0.581831362886781 
858	 0.5820180414442 
859	 0.581761418941338 
860	 0.581821839804498 
861	 0.582045711033078 
862	 0.582283325143838 
863	 0.582372099530138 
864	 0.58214435848871 
865	 0.581983460879188 
866	 0.581947369748833 
867	 0.582028107450021 
868	 0.582453745734421 
869	 0.583020548177474 
870	 0.583377971247222 
871	 0.583285269078777 
872	 0.583237108303971 
873	 0.583271892327728 
874	 0.583325566552173 
875	 0.583309886718828 
876	 0.583462674591723 
877	 0.583554533661513 
878	 0.58351694844225 
879	 0.583493736098345 
880	 0.583598020374242 
881	 0.583586678648718 
882	 0.583508720608937 
883	 0.583838034635279 
884	 0.58411482247299 
885	 0.584143562659003 
886	 0.583976813147912 
887	 0.583990504317553 
888	 0.58406798215211 
889	 0.584228557576569 
890	 0.584407682265588 
891	 0.584290178928761 
892	 0.583907755426387 
893	 0.583429485115179 
894	 0.582967019268305 
895	 0.582230394738329 
896	 0.581409682624573 
897	 0.580694681921814 
898	 0.580244043912485 
899	 0.580038748364942 
900	 0.580179369242696 
901	 0.580616639377371 
902	 0.581249388534538 
903	 0.582245992303914 
904	 0.583036378296839 
905	 0.58303075200537 
906	 0.581943612873005 
907	 0.581041155842256 
908	 0.580320092741072 
909	 0.579941263625638 
910	 0.5801317745914 
911	 0.580048400640321 
912	 0.579968048084032 
913	 0.579978166369535 
914	 0.57989133324938 
915	 0.579952971358391 
916	 0.579929887857641 
917	 0.57993190025179 
918	 0.580416842886519 
919	 0.580608322179656 
920	 0.580451631506823 
921	 0.580225609354823 
922	 0.580388754070995 
923	 0.580067359599103 
924	 0.579290509289128 
925	 0.578617904262699 
926	 0.579001499245689 
927	 0.577539461839871 
928	 0.575483167131258 
929	 0.573748878338257 
930	 0.570765028903165 
931	 0.567254890609997 
932	 0.564622066082785 
933	 0.563315332332007 
934	 0.561082453869294 
935	 0.560165242140419 
936	 0.560961332115575 
937	 0.562628482379087 
938	 0.563404079997916 
939	 0.563801058940448 
940	 0.56378203016977 
941	 0.563089859566919 
942	 0.56124292280794 
943	 0.558963522293096 
944	 0.556827281785096 
945	 0.555203088395614 
946	 0.554102640552674 
947	 0.553350133375546 
948	 0.552741267106127 
949	 0.551881086037978 
950	 0.550034612609962 
951	 0.549104365231936 
952	 0.547640860879812 
953	 0.545002954943558 
954	 0.543842352575273 
955	 0.542537913321339 
956	 0.541335165242057 
957	 0.540433745571574 
958	 0.539105996630282 
959	 0.537898322368969 
960	 0.537638418968516 
961	 0.538240233716117 
962	 0.538012829415556 
963	 0.537631226278838 
964	 0.537651550787168 
965	 0.537959541305158 
966	 0.53747143501995 
967	 0.538217770530082 
968	 0.53878955026393 
969	 0.538484138707166 
970	 0.538766153325818 
971	 0.538906244430835 
972	 0.53879589720831 
973	 0.538392811879089 
974	 0.537617641994668 
975	 0.536501943179833 
976	 0.536749748133381 
977	 0.538634081493467 
978	 0.540199008244571 
979	 0.540011001840622 
980	 0.539968416887466 
981	 0.540785616393757 
982	 0.541299881238685 
983	 0.541681362920375 
984	 0.542499888842694 
985	 0.543254381414732 
986	 0.54283411811299 
987	 0.543485940446218 
988	 0.544554603093238 
989	 0.545153984542106 
990	 0.544893040982408 
991	 0.545650642852432 
992	 0.546260542674504 
993	 0.547020180453577 
994	 0.548628596748812 
995	 0.548126350656181 
996	 0.549303242814708 
997	 0.5504563271643 
998	 0.548920890810751 
999	 0.550630470012401 
1000	 0.55176541873322 
1001	 0.529550655120607 
1002	 0.530131458642232 
1003	 0.530774320854153 
1004	 0.531629553914939 
1005	 0.532292170126568 
1006	 0.532816281426575 
1007	 0.533483902400169 
1008	 0.53415924641629 
1009	 0.534912365025716 
1010	 0.535792859531136 
1011	 0.536658282888229 
1012	 0.537358533011702 
1013	 0.53800622302428 
1014	 0.538634620630079 
1015	 0.539283831661592 
1016	 0.5401407405331 
1017	 0.54103064668792 
1018	 0.541819379023937 
1019	 0.542600865777714 
1020	 0.543348986526348 
1021	 0.543968634972455 
1022	 0.544696026580863 
1023	 0.54545879849398 
1024	 0.546248264690475 
1025	 0.547072011264901 
1026	 0.548003814282967 
1027	 0.548979154284318 
1028	 0.549891193147536 
1029	 0.550674858367977 
1030	 0.551459376858699 
1031	 0.552357896162092 
1032	 0.553230241286036 
1033	 0.554075678824323 
1034	 0.555018930783006 
1035	 0.555880290057556 
1036	 0.556626931609065 
1037	 0.557412815822423 
1038	 0.558226488317342 
1039	 0.559049305335982 
1040	 0.559848958301705 
1041	 0.560538846768441 
1042	 0.561206046629602 
1043	 0.561787380721025 
1044	 0.562167083871953 
1045	 0.562719503913889 
1046	 0.563314644359022 
1047	 0.563772619186167 
1048	 0.564275061393687 
1049	 0.564630306580578 
1050	 0.564951066280828 
1051	 0.5651584201603 
1052	 0.565412279402309 
1053	 0.565665347001352 
1054	 0.56597770288138 
1055	 0.566188070358739 
1056	 0.566316465285074 
1057	 0.566493845747038 
1058	 0.566523457852579 
1059	 0.566290390331569 
1060	 0.566179230198047 
1061	 0.566072915774623 
1062	 0.565806184692488 
1063	 0.565878447203821 
1064	 0.565879002307096 
1065	 0.565724954135603 
1066	 0.565431135337282 
1067	 0.565312413017419 
1068	 0.564988042373011 
1069	 0.564679453044068 
1070	 0.564565582051372 
1071	 0.564260490378543 
1072	 0.563811712724586 
1073	 0.563330485091819 
1074	 0.562878621196806 
1075	 0.562467233323919 
1076	 0.562151274610552 
1077	 0.561866475019285 
1078	 0.561385042194133 
1079	 0.560871523329402 
1080	 0.560364645571421 
1081	 0.55992019531248 
1082	 0.559496254986322 
1083	 0.559236936663453 
1084	 0.558896417902694 
1085	 0.558476803065215 
1086	 0.558050117005481 
1087	 0.557579292083962 
1088	 0.557102774412413 
1089	 0.556591103885957 
1090	 0.55613865890924 
1091	 0.555710976577459 
1092	 0.555186234469845 
1093	 0.554751010407862 
1094	 0.554367219146483 
1095	 0.553847254279317 
1096	 0.553314268630702 
1097	 0.552773425195621 
1098	 0.552246062399956 
1099	 0.551676316830265 
1100	 0.551070726217626 
1101	 0.550541673769041 
1102	 0.550102799047606 
1103	 0.549564709698474 
1104	 0.549026241443578 
1105	 0.548471945266699 
1106	 0.547811680189254 
1107	 0.547187588599763 
1108	 0.546551884099137 
1109	 0.54576674452974 
1110	 0.544856027127682 
1111	 0.543991041517184 
1112	 0.542993847203369 
1113	 0.542005085683691 
1114	 0.541050250485423 
1115	 0.540023396097194 
1116	 0.538926556983252 
1117	 0.537614727983081 
1118	 0.536409096941594 
1119	 0.535211837121217 
1120	 0.533675825062967 
1121	 0.532094452554692 
1122	 0.530595530253083 
1123	 0.529171370852072 
1124	 0.527895386192887 
1125	 0.526653439163474 
1126	 0.525372910408426 
1127	 0.524222448193201 
1128	 0.522798861473653 
1129	 0.521584899767281 
1130	 0.519915518719444 
1131	 0.518017163767732 
1132	 0.515945680235343 
1133	 0.513607076859341 
1134	 0.511288181470132 
1135	 0.509092619549427 
1136	 0.506904757356898 
1137	 0.504594144822916 
1138	 0.502029996773971 
1139	 0.499124931661849 
1140	 0.496020976406493 
1141	 0.492945402607999 
1142	 0.489939043864865 
1143	 0.486967054369519 
1144	 0.484059534543248 
1145	 0.481067764311558 
1146	 0.477999638817814 
1147	 0.475079146673736 
1148	 0.472096126291479 
1149	 0.469549232640192 
1150	 0.467236169014698 
1151	 0.4652859160194 
1152	 0.46371809948534 
1153	 0.462386661365685 
1154	 0.461406602714336 
1155	 0.460730363070834 
1156	 0.460113857741518 
1157	 0.459559537768363 
1158	 0.459091512278466 
1159	 0.458638785703733 
1160	 0.458238088065199 
1161	 0.457940492065457 
1162	 0.45762249860367 
1163	 0.457277271160851 
1164	 0.457001251342557 
1165	 0.456752963715028 
1166	 0.45653974268596 
1167	 0.456421575325819 
1168	 0.456201212558114 
1169	 0.455925167116457 
1170	 0.455693724680477 
1171	 0.455502744923444 
1172	 0.455231625054779 
1173	 0.454973226354254 
1174	 0.454798517715501 
1175	 0.454590732279416 
1176	 0.454325482962325 
1177	 0.454080886937315 
1178	 0.45391788361944 
1179	 0.453606395607524 
1180	 0.453186598836407 
1181	 0.452844371250753 
1182	 0.452461621650406 
1183	 0.452093402670247 
1184	 0.451741423320868 
1185	 0.45139765451457 
1186	 0.451067100523229 
1187	 0.450745437105925 
1188	 0.450401719811612 
1189	 0.450141186617557 
1190	 0.449974125921206 
1191	 0.449736882232583 
1192	 0.449568726651648 
1193	 0.44944468154739 
1194	 0.449335619470656 
1195	 0.449180255383933 
1196	 0.449130781324776 
1197	 0.44919319749702 
1198	 0.449211422235373 
1199	 0.449251506809131 
1200	 0.449292323130366 
1201	 0.449291464559164 
1202	 0.449388631950042 
1203	 0.449541670497619 
1204	 0.449702367386952 
1205	 0.449946866148778 
1206	 0.450157760235418 
1207	 0.450337436081114 
1208	 0.450550461003513 
1209	 0.450763891907434 
1210	 0.451017209861264 
1211	 0.451288565233507 
1212	 0.451550945165623 
1213	 0.451867000942857 
1214	 0.452215630396204 
1215	 0.452561085252276 
1216	 0.452926850791703 
1217	 0.453342282680837 
1218	 0.453767016839623 
1219	 0.454228407028782 
1220	 0.454737618677209 
1221	 0.455274789060591 
1222	 0.455874101762452 
1223	 0.456424858231269 
1224	 0.457012364683444 
1225	 0.457562299005556 
1226	 0.458024664775986 
1227	 0.458556459288653 
1228	 0.459124505378889 
1229	 0.459681601288463 
1230	 0.460304950248971 
1231	 0.460899511709823 
1232	 0.461474658045191 
1233	 0.462050501602155 
1234	 0.462605259960326 
1235	 0.463131116842267 
1236	 0.463655087014644 
1237	 0.464213289271098 
1238	 0.46467938281687 
1239	 0.465048375314179 
1240	 0.465508001855479 
1241	 0.465944058906214 
1242	 0.466412002478828 
1243	 0.466977772840925 
1244	 0.467476742229192 
1245	 0.467949145602885 
1246	 0.468407213708985 
1247	 0.468818018244854 
1248	 0.469270397366664 
1249	 0.469742932232134 
1250	 0.470198109127286 
1251	 0.470670443807946 
1252	 0.471161291294702 
1253	 0.471589627340225 
1254	 0.47195225736788 
1255	 0.472394052145003 
1256	 0.47285034218319 
1257	 0.473296364803272 
1258	 0.473800245376065 
1259	 0.474249554222545 
1260	 0.474694218270373 
1261	 0.47506506748662 
1262	 0.475421404564242 
1263	 0.475697386451616 
1264	 0.475868510814986 
1265	 0.476021571664144 
1266	 0.47612623503781 
1267	 0.476188321684093 
1268	 0.476232348968316 
1269	 0.476179167434386 
1270	 0.476074626939685 
1271	 0.475886043315868 
1272	 0.475658015647072 
1273	 0.47524027528423 
1274	 0.474861423951934 
1275	 0.474439883725348 
1276	 0.473942112830656 
1277	 0.473399713139781 
1278	 0.472795129031452 
1279	 0.472093056934585 
1280	 0.471397823655248 
1281	 0.470698897064776 
1282	 0.469901255828533 
1283	 0.469044609152624 
1284	 0.468153389735324 
1285	 0.467157819053792 
1286	 0.466201997032522 
1287	 0.465281803102791 
1288	 0.464271572609161 
1289	 0.463202063897841 
1290	 0.46213492757778 
1291	 0.46103519161621 
1292	 0.459881920970462 
1293	 0.458679575831852 
1294	 0.45748521695546 
1295	 0.45624939693427 
1296	 0.454978240525539 
1297	 0.453662151171116 
1298	 0.452365076647476 
1299	 0.45094304332227 
1300	 0.449388330140111 
1301	 0.447879527419095 
1302	 0.446341172819617 
1303	 0.444755653553534 
1304	 0.443148307455974 
1305	 0.44149155145055 
1306	 0.439751890557111 
1307	 0.438027035773098 
1308	 0.436291832554595 
1309	 0.434516071880558 
1310	 0.432781216941597 
1311	 0.430883983766032 
1312	 0.428816836485464 
1313	 0.426826108032456 
1314	 0.424746876786297 
1315	 0.422715750938828 
1316	 0.420820192998892 
1317	 0.418819768506224 
1318	 0.416738892470026 
1319	 0.414667054687206 
1320	 0.412529400505903 
1321	 0.4104147834475 
1322	 0.408217784601521 
1323	 0.405957239787876 
1324	 0.403686333456384 
1325	 0.401309206865573 
1326	 0.398926706877666 
1327	 0.396486753809773 
1328	 0.394024320454106 
1329	 0.391479932323194 
1330	 0.388944935308724 
1331	 0.386412990214103 
1332	 0.383889797641851 
1333	 0.381325908239344 
1334	 0.378919339493266 
1335	 0.37656430553954 
1336	 0.374362831044739 
1337	 0.372288539431384 
1338	 0.370269323140723 
1339	 0.368220546318033 
1340	 0.366343328040842 
1341	 0.364500732459235 
1342	 0.362665344992287 
1343	 0.360826630800923 
1344	 0.358920953878951 
1345	 0.356731064117964 
1346	 0.354441993408284 
1347	 0.352047351284812 
1348	 0.349603505513085 
1349	 0.347241433653675 
1350	 0.345192937964072 
1351	 0.342575375506507 
1352	 0.340230764082642 
1353	 0.337209173608779 
1354	 0.333918119362617 
1355	 0.329987469655667 
1356	 0.328254956177427 
1357	 0.323640656252349 
1358	 0.319638630983093 
1359	 0.3122576795705 
1360	 0.305474795435553 
1361	 0.291849721764892 
1362	 0.276851585888954 
1363	 0.261582140873507 
1364	 0.258553320742043 
1365	 0.253413564801699 
1366	 0.267194219579643 
1367	 0.270817067559511 
1368	 0.271938319926111 
1369	 0.269489494109177 
1370	 0.264501904461749 
1371	 0.261313990166159 
1372	 0.256298206919156 
1373	 0.25346890034625 
1374	 0.250138509253949 
1375	 0.250764342132042 
1376	 0.252907571995173 
1377	 0.252293758620214 
1378	 0.250549381216326 
1379	 0.250442745784887 
1380	 0.243616449344349 
1381	 0.231115144741898 
1382	 0.221686371258921 
1383	 0.210462274337481 
1384	 0.201971863124056 
1385	 0.196713163193095 
1386	 0.190190376213014 
1387	 0.183051198752202 
1388	 0.179280242067263 
1389	 0.178409863173434 
1390	 0.174567475519223 
1391	 0.171767561370403 
1392	 0.1672512603269 
1393	 0.159631585479175 
1394	 0.154044505175331 
1395	 0.149073199793585 
1396	 0.144507530917266 
1397	 0.140016969355969 
1398	 0.136458595848829 
1399	 0.134583174226053 
1400	 0.130912274930818 
1401	 0.127214179545713 
1402	 0.122963902983698 
1403	 0.116645596619578 
1404	 0.11254962106772 
1405	 0.109010645899059 
1406	 0.107024642267991 
1407	 0.106213978059926 
1408	 0.105204751568765 
1409	 0.103087834483392 
1410	 0.101528787311351 
1411	 9.99783298020317E-02 
1412	 9.81954882363625E-02 
1413	 9.67562440997252E-02 
1414	 9.57125366030764E-02 
1415	 9.45078872262983E-02 
1416	 9.31935714640887E-02 
1417	 9.20211046245886E-02 
1418	 9.08611912349463E-02 
1419	 0.090006285919941 
1420	 0.089293926167393 
1421	 8.85845383750206E-02 
1422	 8.79973960600642E-02 
1423	 8.74651119763138E-02 
1424	 8.68667342275201E-02 
1425	 8.63686486829766E-02 
1426	 0.086069503133137 
1427	 8.56019621439391E-02 
1428	 8.49157656686916E-02 
1429	 8.45039407592402E-02 
1430	 8.42995165540622E-02 
1431	 0.08383583771149 
1432	 8.33957158704108E-02 
1433	 8.28781538863314E-02 
1434	 8.19677818272845E-02 
1435	 0.081396115480419 
1436	 8.10143353675026E-02 
1437	 8.06757471437165E-02 
1438	 0.080516750150418 
1439	 8.03234768917771E-02 
1440	 8.02478976389889E-02 
1441	 8.00274689422291E-02 
1442	 7.97196183603856E-02 
1443	 7.93933163678787E-02 
1444	 7.90954816176637E-02 
1445	 7.88888158670236E-02 
1446	 7.90977649853292E-02 
1447	 7.92703489419908E-02 
1448	 7.93471774347447E-02 
1449	 7.94988069193313E-02 
1450	 7.95564909775889E-02 
1451	 7.94806429136133E-02 
1452	 0.079511289810967 
1453	 7.95775006242827E-02 
1454	 7.96488848341087E-02 
1455	 0.079727326666626 
1456	 7.97917459435376E-02 
1457	 7.98661930906774E-02 
1458	 7.99644486069809E-02 
1459	 8.00398893962009E-02 
1460	 8.01828560675167E-02 
1461	 8.04186906948213E-02 
1462	 8.06052584516869E-02 
1463	 8.07543991054391E-02 
1464	 8.10297240894352E-02 
1465	 8.13489299941261E-02 
1466	 8.17347394340538E-02 
1467	 8.22550848665007E-02 
1468	 8.27772127847786E-02 
1469	 8.32473918170191E-02 
1470	 8.38895719012459E-02 
1471	 0.084637522068924 
1472	 8.53790941127486E-02 
1473	 8.61406511774584E-02 
1474	 0.086948879875097 
1475	 8.77931732812574E-02 
1476	 8.85810256308987E-02 
1477	 8.93102866646525E-02 
1478	 9.01520838953322E-02 
1479	 9.09366995528556E-02 
1480	 9.18208398298919E-02 
1481	 9.28343216043961E-02 
1482	 9.38398888581444E-02 
1483	 9.48411369020652E-02 
1484	 9.58705253244129E-02 
1485	 9.69071236476139E-02 
1486	 9.79719153518514E-02 
1487	 9.90563194447408E-02 
1488	 0.100128672133817 
1489	 0.101133088916958 
1490	 0.102134677106229 
1491	 0.10311840779023 
1492	 0.104070799857096 
1493	 0.105193750309728 
1494	 0.106358727961649 
1495	 0.107450820811303 
1496	 0.108596321583179 
1497	 0.109675416094171 
1498	 0.110697021564664 
1499	 0.111774945965376 
1500	 0.112889245936534 
1501	 0.114024203718672 
1502	 0.115149035449346 
1503	 0.116385005127983 
1504	 0.117690915841411 
1505	 0.118993790654301 
1506	 0.12039006236671 
1507	 0.121685271390503 
1508	 0.122956120224176 
1509	 0.124185869539527 
1510	 0.125325803164407 
1511	 0.126571126569985 
1512	 0.127832509873166 
1513	 0.129116213907055 
1514	 0.130506007024403 
1515	 0.131800345482748 
1516	 0.133037847978521 
1517	 0.134334574428676 
1518	 0.135635108992844 
1519	 0.136959113205528 
1520	 0.138356643616315 
1521	 0.13969105459182 
1522	 0.140990167286275 
1523	 0.142313696513908 
1524	 0.143616177302164 
1525	 0.144956152590794 
1526	 0.146339934950049 
1527	 0.147716430100969 
1528	 0.149139395945577 
1529	 0.150495604454587 
1530	 0.151794691043736 
1531	 0.153153547208308 
1532	 0.154495932605371 
1533	 0.155872032091394 
1534	 0.157352037050628 
1535	 0.158748029821787 
1536	 0.160102739393494 
1537	 0.161459995268452 
1538	 0.162748616260037 
1539	 0.164105704808209 
1540	 0.165503180728755 
1541	 0.166897424682625 
1542	 0.168356519572284 
1543	 0.169760841457631 
1544	 0.171155033254378 
1545	 0.17250889050062 
1546	 0.173766167954566 
1547	 0.175111805990442 
1548	 0.176514322869189 
1549	 0.177866001276073 
1550	 0.17926660551268 
1551	 0.180626930605615 
1552	 0.181893519955743 
1553	 0.183202491632259 
1554	 0.184555458305619 
1555	 0.185871481811192 
1556	 0.187187052831612 
1557	 0.188476605448186 
1558	 0.189715050034603 
1559	 0.190973412790255 
1560	 0.192249459014651 
1561	 0.193497705086366 
1562	 0.194766153247946 
1563	 0.195992494904266 
1564	 0.197166725352751 
1565	 0.198333888806864 
1566	 0.199593065881198 
1567	 0.200813077558203 
1568	 0.202022898529737 
1569	 0.203283848779746 
1570	 0.204450674321506 
1571	 0.205525053064564 
1572	 0.206664667281569 
1573	 0.207785749702109 
1574	 0.208947757065093 
1575	 0.210135837651787 
1576	 0.211275017483993 
1577	 0.21239887409569 
1578	 0.213516740123838 
1579	 0.214598108492049 
1580	 0.215663718285601 
1581	 0.216717258045191 
1582	 0.217776317968569 
1583	 0.218794492387752 
1584	 0.219861223691646 
1585	 0.220985357101919 
1586	 0.222027872725439 
1587	 0.223056529219329 
1588	 0.22406194550664 
1589	 0.225034201234724 
1590	 0.225985985149963 
1591	 0.226922704296613 
1592	 0.227846241927408 
1593	 0.22873641286517 
1594	 0.229633589748927 
1595	 0.230542059554236 
1596	 0.23142116013742 
1597	 0.232277011946331 
1598	 0.233143221550857 
1599	 0.233991774843903 
1600	 0.234879596909471 
1601	 0.235828835048646 
1602	 0.236645892004573 
1603	 0.237408464878326 
1604	 0.238210304591879 
1605	 0.238922616557632 
1606	 0.23971598209746 
1607	 0.240594794196437 
1608	 0.241416743609907 
1609	 0.242233318375769 
1610	 0.242978583688962 
1611	 0.243675638420458 
1612	 0.244409299884079 
1613	 0.245099051486187 
1614	 0.245794444960922 
1615	 0.246552743832127 
1616	 0.247207036383752 
1617	 0.247764821816913 
1618	 0.248394558588167 
1619	 0.249006525573798 
1620	 0.249663391016897 
1621	 0.250375721116433 
1622	 0.251025298669509 
1623	 0.251682009086145 
1624	 0.252309649211059 
1625	 0.252912014912383 
1626	 0.253478293718326 
1627	 0.254032621739694 
1628	 0.254537080471919 
1629	 0.254940935761202 
1630	 0.255487836262296 
1631	 0.256084895872425 
1632	 0.25666354842879 
1633	 0.257341355416023 
1634	 0.257904806382829 
1635	 0.258372241759948 
1636	 0.258928109176888 
1637	 0.259524910808269 
1638	 0.260033560222473 
1639	 0.260519687657913 
1640	 0.261019457536783 
1641	 0.261449514694458 
1642	 0.26194385872467 
1643	 0.262508232762835 
1644	 0.263014822108119 
1645	 0.263469253516266 
1646	 0.263973827373718 
1647	 0.264537258047218 
1648	 0.264960852969062 
1649	 0.265339623278999 
1650	 0.265730413436205 
1651	 0.26602787275651 
1652	 0.266384060382677 
1653	 0.266801016554772 
1654	 0.267158808849439 
1655	 0.267490009259964 
1656	 0.267773975595831 
1657	 0.268025527645748 
1658	 0.268299662952552 
1659	 0.268528601151734 
1660	 0.268825187724483 
1661	 0.269144572316502 
1662	 0.269414614477095 
1663	 0.269720436514621 
1664	 0.2699740516445 
1665	 0.270201528743002 
1666	 0.270358780120565 
1667	 0.270412070254576 
1668	 0.270456785400434 
1669	 0.270514559957945 
1670	 0.270511157862608 
1671	 0.270600792206458 
1672	 0.270789297831452 
1673	 0.270865586155317 
1674	 0.270967281619115 
1675	 0.271046017758916 
1676	 0.270979478812841 
1677	 0.270889944243457 
1678	 0.270880003153901 
1679	 0.270810972483659 
1680	 0.270697239583674 
1681	 0.270490236419121 
1682	 0.26999936508161 
1683	 0.269495324253404 
1684	 0.269080454586594 
1685	 0.268631988598655 
1686	 0.268206871228129 
1687	 0.267840923534683 
1688	 0.267330361544863 
1689	 0.266817621442637 
1690	 0.266433193589879 
1691	 0.26604113517227 
1692	 0.265630475119913 
1693	 0.265310745970008 
1694	 0.265078927852087 
1695	 0.264811955325568 
1696	 0.264638440658617 
1697	 0.264373119013202 
1698	 0.264006039332209 
1699	 0.263713499308078 
1700	 0.263413548452452 
1701	 0.263107400541093 
1702	 0.26285141912686 
1703	 0.262567025934635 
1704	 0.262259951271962 
1705	 0.261937606708228 
1706	 0.261555596490905 
1707	 0.261249741568744 
1708	 0.26102779026568 
1709	 0.260694672211968 
1710	 0.260399553119791 
1711	 0.259984126057079 
1712	 0.259361677326583 
1713	 0.258898345008584 
1714	 0.25847079081689 
1715	 0.258049694305771 
1716	 0.257770496998759 
1717	 0.257263774294925 
1718	 0.256577250274715 
1719	 0.256032459387719 
1720	 0.25542360553312 
1721	 0.254864706767553 
1722	 0.254440082308401 
1723	 0.253908540378923 
1724	 0.253320474156145 
1725	 0.252719289169484 
1726	 0.25208949339147 
1727	 0.25150178967505 
1728	 0.250924810234033 
1729	 0.250209612660982 
1730	 0.249466906267698 
1731	 0.24867823146879 
1732	 0.247882580369123 
1733	 0.247301303033193 
1734	 0.246654084616662 
1735	 0.245840703572674 
1736	 0.244928334354179 
1737	 0.244092339692527 
1738	 0.243363375383806 
1739	 0.242650485550851 
1740	 0.241978965814761 
1741	 0.241108424654423 
1742	 0.240056144324118 
1743	 0.239027612815933 
1744	 0.23817828156555 
1745	 0.237477421232905 
1746	 0.236630540733787 
1747	 0.235771432743312 
1748	 0.234898640652509 
1749	 0.23387698657281 
1750	 0.232948980480205 
1751	 0.23196480501916 
1752	 0.230830171939546 
1753	 0.22988522454921 
1754	 0.228942090636682 
1755	 0.227945415868818 
1756	 0.227057543244453 
1757	 0.225841770091061 
1758	 0.224798391291735 
1759	 0.223859349809743 
1760	 0.22291950881894 
1761	 0.222014663322206 
1762	 0.221159070495164 
1763	 0.220390631659541 
1764	 0.219485294634197 
1765	 0.218537866082799 
1766	 0.217790395022366 
1767	 0.217000135080876 
1768	 0.216322902508984 
1769	 0.21584315856228 
1770	 0.215230366350721 
1771	 0.214620384885443 
1772	 0.213987146117378 
1773	 0.213364105810915 
1774	 0.212603510731491 
1775	 0.211873605688786 
1776	 0.211296734893892 
1777	 0.210716727672355 
1778	 0.210274685855519 
1779	 0.20988673280265 
1780	 0.209420659401232 
1781	 0.209093026320246 
1782	 0.2088141178033 
1783	 0.208446214986009 
1784	 0.207959692451219 
1785	 0.207682736133503 
1786	 0.207726939670304 
1787	 0.207536272351524 
1788	 0.207312697953219 
1789	 0.207343286772152 
1790	 0.207135092113218 
1791	 0.206856744776846 
1792	 0.206880125744263 
1793	 0.206493356585506 
1794	 0.205894453424977 
1795	 0.205892755313524 
1796	 0.205940480397728 
1797	 0.205844138343506 
1798	 0.206051539574011 
1799	 0.206091749311596 
1800	 0.205809150828499 
1801	 0.20279585600416 
1802	 0.202345560341732 
1803	 0.201845887963452 
1804	 0.201124183722669 
1805	 0.200394309696206 
1806	 0.199503996979695 
1807	 0.1987680478475 
1808	 0.197856120848502 
1809	 0.196850178279028 
1810	 0.196885689121632 
1811	 0.198254107282659 
1812	 0.198621413305848 
1813	 0.199858498679528 
1814	 0.199965180664205 
1815	 0.198547281021356 
1816	 0.197530765861852 
1817	 0.196186504527336 
1818	 0.1946668130193 
1819	 0.192875674559207 
1820	 0.190009320979037 
1821	 0.1888669973379 
1822	 0.188935075070439 
1823	 0.188254286483597 
1824	 0.188451306780884 
1825	 0.188938354496309 
1826	 0.189683759113411 
1827	 0.1897780471476 
1828	 0.190032239374022 
1829	 0.191802654757841 
1830	 0.194570089219264 
1831	 0.199207770971256 
1832	 0.20008007521893 
1833	 0.204254270449493 
1834	 0.201759197369113 
1835	 0.168914906758584 
1836	 0.149333563085418 
1837	 0.144546632616991 
1838	 0.1333656724511 
1839	 0.126997241581608 
1840	 0.13005491947906 
1841	 0.14791642834617 
1842	 0.187179313395595 
1843	 0.195184196728105 
1844	 0.20921621212599 
1845	 0.210976187049023 
1846	 0.188461241307278 
1847	 0.166958389582499 
1848	 0.142662175148956 
1849	 0.106628923134183 
1850	 0.103076908607743 
1851	 9.92886819694969E-02 
1852	 0.108384299675786 
1853	 0.178520658230065 
1854	 0.182253130227483 
1855	 0.140277867139524 
1856	 0.129685071665854 
1857	 0.110630906244275 
1858	 8.65239564828094E-02 
1859	 9.00771977662451E-02 
1860	 0.125641157827597 
1861	 0.135178425093983 
1862	 0.140349355506869 
1863	 0.146468149070434 
1864	 0.158592419407286 
1865	 0.154766707332568 
1866	 0.127010763852348 
1867	 0.126267480493192 
1868	 0.140146935482938 
1869	 0.124807583172169 
1870	 0.117807940796327 
1871	 0.144450396711443 
1872	 0.126521222540989 
1873	 5.78833115737325E-02 
1874	 4.97804463961215E-02 
1875	 7.26288250415262E-02 
1876	 6.93595480984703E-02 
1877	 7.45621492572212E-02 
1878	 0.073519754015558 
1879	 5.52429505061464E-02 
1880	 3.80433836389505E-02 
1881	 3.43517861738151E-02 
1882	 0.03589213753082 
1883	 3.82996015976458E-02 
1884	 4.56080795402121E-02 
1885	 4.98362144354118E-02 
1886	 5.67620086348881E-02 
1887	 5.81540892141608E-02 
1888	 5.70379296822847E-02 
1889	 5.76017253522022E-02 
1890	 5.59754489279737E-02 
1891	 5.05165427000026E-02 
1892	 4.82792942554414E-02 
1893	 4.52478764065387E-02 
1894	 4.40942621711252E-02 
1895	 4.68617165105241E-02 
1896	 4.57550016594254E-02 
1897	 3.78688942445906E-02 
1898	 4.18426850896001E-02 
1899	 5.19407458535685E-02 
1900	 5.17086818204859E-02 
1901	 0.053773929714643 
1902	 6.68556275741592E-02 
1903	 6.55635934640429E-02 
1904	 4.22452866491147E-02 
1905	 0.030763127014536 
1906	 1.71328916127241E-02 
1907	 1.41810171577911E-02 
1908	 2.44028105503824E-02 
1909	 3.66181834108516E-02 
1910	 3.32338754214997E-02 
1911	 2.99146548113041E-02 
1912	 3.34120437836727E-02 
1913	 3.71872279275785E-02 
1914	 3.41677277490958E-02 
1915	 3.43944976348184E-02 
1916	 0.032943230555643 
1917	 2.73231357222915E-02 
1918	 2.16674130613148E-02 
1919	 2.24502704732207E-02 
1920	 2.29710569865912E-02 
1921	 2.11563568692034E-02 
1922	 2.01805930094784E-02 
1923	 2.02621772411941E-02 
1924	 2.05585051160946E-02 
1925	 2.13417834453829E-02 
1926	 0.023783263203005 
1927	 0.024404634996776 
1928	 0.024855180444295 
1929	 2.49511644930112E-02 
1930	 2.18706624462453E-02 
1931	 1.95773175709184E-02 
1932	 1.93528038120272E-02 
1933	 1.87211228347784E-02 
1934	 0.018053290964767 
1935	 1.88227028275312E-02 
1936	 1.85798090771925E-02 
1937	 1.62661718718683E-02 
1938	 1.64806897347712E-02 
1939	 1.81138016396934E-02 
1940	 1.88294813014125E-02 
1941	 1.99180238794716E-02 
1942	 0.021633236537459 
1943	 2.19015216636004E-02 
1944	 2.28607373693978E-02 
1945	 2.34466119095721E-02 
1946	 2.32060062466783E-02 
1947	 2.35003602840568E-02 
1948	 2.35027471594302E-02 
1949	 2.35969670300302E-02 
1950	 2.41317705711501E-02 
1951	 2.48161709199965E-02 
1952	 2.37332937254468E-02 
1953	 2.43548441201405E-02 
1954	 2.46626227534162E-02 
1955	 2.41503616262093E-02 
1956	 2.48884849556526E-02 
1957	 2.47364145425894E-02 
1958	 2.47329636803064E-02 
1959	 2.45971253009838E-02 
1960	 2.48879076981219E-02 
1961	 2.53290049243258E-02 
1962	 2.55823930979951E-02 
1963	 2.56689483844501E-02 
1964	 2.57349033020622E-02 
1965	 2.59260360182829E-02 
1966	 2.62299914534478E-02 
1967	 2.67197821762051E-02 
1968	 2.73011581575669E-02 
1969	 2.74912334513765E-02 
1970	 2.73244764919048E-02 
1971	 2.73015031014795E-02 
1972	 2.72324052876014E-02 
1973	 2.71155876896084E-02 
1974	 2.70723433450398E-02 
1975	 2.71037278274712E-02 
1976	 2.74798118804009E-02 
1977	 2.77579249873473E-02 
1978	 2.81279762139458E-02 
1979	 2.86502888497917E-02 
1980	 2.89958246695949E-02 
1981	 2.92463623768886E-02 
1982	 2.94741609072328E-02 
1983	 2.95701338458781E-02 
1984	 2.98636075164234E-02 
1985	 0.030225329578129 
1986	 3.05516146140528E-02 
1987	 3.10253126096959E-02 
1988	 3.11426259582563E-02 
1989	 3.12773410667119E-02 
1990	 3.15643879498739E-02 
1991	 0.031556882044752 
1992	 3.17038604394932E-02 
1993	 3.20107729276037E-02 
1994	 3.24362718902949E-02 
1995	 3.28003947135882E-02 
1996	 0.033352654332994 
1997	 3.39525317280458E-02 
1998	 3.46000456966234E-02 
1999	 3.49558191375198E-02 
2000	 3.48827579383153E-02 
2001	 3.48934065148085E-02 
2002	 3.51112857929579E-02 
2003	 3.53589625465844E-02 
2004	 3.64408237092187E-02 
2005	 3.74222192985511E-02 
2006	 3.81309302990436E-02 
2007	 3.84638405162568E-02 
2008	 3.87986348969238E-02 
2009	 3.89719694396389E-02 
2010	 0.039542365984893 
2011	 0.039893712537886 
2012	 3.98056236505394E-02 
2013	 4.00324163754698E-02 
2014	 4.02666791547001E-02 
2015	 4.05497104859863E-02 
2016	 4.12666860672793E-02 
2017	 4.18989071520829E-02 
2018	 4.21516090721591E-02 
2019	 4.24993288135965E-02 
2020	 4.29365324676308E-02 
2021	 4.31381203964771E-02 
2022	 4.33087372208375E-02 
2023	 0.043740902380022 
2024	 4.41239114453095E-02 
2025	 4.47578063341195E-02 
2026	 4.51462248337738E-02 
2027	 4.53964828270133E-02 
2028	 4.58240175682953E-02 
2029	 0.045792336740028 
2030	 4.57585471430681E-02 
2031	 4.59709817904966E-02 
2032	 4.62613085180489E-02 
2033	 4.65144984185604E-02 
2034	 4.71391399585856E-02 
2035	 4.79595050654871E-02 
2036	 4.87802401288569E-02 
2037	 4.97116307732077E-02 
2038	 0.050293327553371 
2039	 5.05875404310656E-02 
2040	 0.050821943261075 
2041	 5.09708090077879E-02 
2042	 5.11779771102039E-02 
2043	 5.16451014885878E-02 
2044	 5.21378612604031E-02 
2045	 5.24868070324083E-02 
2046	 5.26882551631562E-02 
2047	 5.31582016541719E-02 
2048	 0.053581812762426 
2049	 5.40918825068238E-02 
2050	 5.50789637331797E-02 
2051	 5.57651908818969E-02 
2052	 5.61668089661787E-02 
2053	 0.056740918338371 
2054	 0.057176206922739 
2055	 5.74206059530011E-02 
2056	 5.79829565698702E-02 
2057	 5.82780830408232E-02 
2058	 5.84921106484119E-02 
2059	 5.90916622771937E-02 
2060	 6.00376409535195E-02 
2061	 6.08103441920647E-02 
2062	 6.15878814687153E-02 
2063	 6.21070428250248E-02 
2064	 6.23956063795113E-02 
2065	 6.29102929853431E-02 
2066	 6.31644034872049E-02 
2067	 6.39177977037182E-02 
2068	 6.47996295799763E-02 
2069	 0.064974030281715 
2070	 6.54102705672129E-02 
2071	 6.62950574173586E-02 
2072	 6.69949902979101E-02 
2073	 0.067529675526349 
2074	 6.82700211844029E-02 
2075	 6.91862825343422E-02 
2076	 6.93817490286494E-02 
2077	 6.95595786498053E-02 
2078	 0.07009446023849 
2079	 7.06516223409844E-02 
2080	 7.14735930475155E-02 
2081	 7.19607795816464E-02 
2082	 7.23393852086259E-02 
2083	 7.27561596042905E-02 
2084	 7.32001750253162E-02 
2085	 7.41001597832229E-02 
2086	 7.47563202402908E-02 
2087	 7.53906974584648E-02 
2088	 7.60313064476032E-02 
2089	 0.076619946059821 
2090	 7.68211879922088E-02 
2091	 7.74128190482646E-02 
2092	 7.80602588393406E-02 
2093	 7.85256639248625E-02 
2094	 7.92569933157575E-02 
2095	 8.00570875205197E-02 
2096	 8.07324614233454E-02 
2097	 8.11604153145689E-02 
2098	 8.15754226462203E-02 
2099	 8.19964717397103E-02 
2100	 0.082404283290808 
2101	 8.32043943313228E-02 
2102	 8.39479443903866E-02 
2103	 8.47939048830025E-02 
2104	 8.55985408816133E-02 
2105	 0.08638407438766 
2106	 8.67502161453732E-02 
2107	 8.71294099970465E-02 
2108	 8.75873369934259E-02 
2109	 8.83277771499342E-02 
2110	 8.93023759650658E-02 
2111	 8.99441226063254E-02 
2112	 9.05751492646369E-02 
2113	 9.10397825274838E-02 
2114	 9.12666660896093E-02 
2115	 9.17398557851872E-02 
2116	 9.24810788528925E-02 
2117	 9.30441502810124E-02 
2118	 9.33806958668181E-02 
2119	 9.39613824836424E-02 
2120	 9.46837748659895E-02 
2121	 9.52504796692727E-02 
2122	 9.60158186174719E-02 
2123	 0.096822471461512 
2124	 9.75118733881654E-02 
2125	 9.81630890909493E-02 
2126	 9.82244117237932E-02 
2127	 9.85637982768853E-02 
2128	 9.93824218260183E-02 
2129	 0.100174190025495 
2130	 0.101007955902502 
2131	 0.101572806683316 
2132	 0.101690466738781 
2133	 0.101753346608771 
2134	 0.101978036367018 
2135	 0.102280776113904 
2136	 0.102781869743201 
2137	 0.103407038730772 
2138	 0.103771210337394 
2139	 0.104193003122972 
2140	 0.104666789495165 
2141	 0.105185770335675 
2142	 0.105943116635858 
2143	 0.106347841767607 
2144	 0.106858982886097 
2145	 0.10753815990567 
2146	 0.107748668663628 
2147	 0.107904762261766 
2148	 0.10839153144598 
2149	 0.108580917131171 
2150	 0.108617731001814 
2151	 0.108984390014565 
2152	 0.109792515595379 
2153	 0.110129085976476 
2154	 0.110423059291075 
2155	 0.110719198986463 
2156	 0.110463889040506 
2157	 0.110513816758183 
2158	 0.110847583081827 
2159	 0.111495781142255 
2160	 0.11216076325188 
2161	 0.112219779731419 
2162	 0.112497766364713 
2163	 0.112578198805428 
2164	 0.112755477549096 
2165	 0.113348501390023 
2166	 0.113428645893022 
2167	 0.113369883047796 
2168	 0.113307537304086 
2169	 0.11294723695674 
2170	 0.113010232044868 
2171	 0.113224272727503 
2172	 0.113481494547123 
2173	 0.114155455375529 
2174	 0.114632244628094 
2175	 0.114883704254866 
2176	 0.115127222861539 
2177	 0.115596653995532 
2178	 0.11592392657894 
2179	 0.116079692095336 
2180	 0.116432401961161 
2181	 0.116469399473667 
2182	 0.116619366711961 
2183	 0.116806677378026 
2184	 0.116738863119303 
2185	 0.116792418936425 
2186	 0.116752502173127 
2187	 0.116628168093668 
2188	 0.116448861452959 
2189	 0.116613686889709 
2190	 0.116826898591691 
2191	 0.116983600593856 
2192	 0.117422613526612 
2193	 0.118031394226282 
2194	 0.118332223860898 
2195	 0.118223035439634 
2196	 0.118444147148957 
2197	 0.118435379058745 
2198	 0.117992314572099 
2199	 0.117633910518757 
2200	 0.116974767630821 
2201	 0.116842557369683 
2202	 0.117000677289317 
2203	 0.117217742852707 
2204	 0.117873883324168 
2205	 0.117785002906113 
2206	 0.117485878856332 
2207	 0.117475405484278 
2208	 0.117421653292382 
2209	 0.117352788766719 
2210	 0.117411736122769 
2211	 0.117607328336314 
2212	 0.117590000326563 
2213	 0.117638916854087 
2214	 0.117537943464336 
2215	 0.117503121251313 
2216	 0.117744726693365 
2217	 0.117785350419312 
2218	 0.117520375282664 
2219	 0.117706577726665 
2220	 0.117391465864178 
2221	 0.116992394305269 
2222	 0.117232050695469 
2223	 0.116993000499964 
2224	 0.117023442527174 
2225	 0.117054356506172 
2226	 0.116644715554522 
2227	 0.116092001447662 
2228	 0.115310208440476 
2229	 0.114877564818827 
2230	 0.114759459785704 
2231	 0.114756697023218 
2232	 0.115394115365575 
2233	 0.115469157841359 
2234	 0.115344144250274 
2235	 0.115147849924116 
2236	 0.115128249888298 
2237	 0.114657136277747 
2238	 0.11424667756347 
2239	 0.114215895747932 
2240	 0.113642214677288 
2241	 0.113079955193712 
2242	 0.113028948504606 
2243	 0.112654830456931 
2244	 0.112479553347516 
2245	 0.112633389485145 
2246	 0.112075294624012 
2247	 0.111611943907914 
2248	 0.111193916972062 
2249	 0.110317894685546 
2250	 0.109966263811585 
2251	 0.109883423242026 
2252	 0.109620111597083 
2253	 0.109033003504221 
2254	 0.108504785322806 
2255	 0.108498694674925 
2256	 0.108233207622806 
2257	 0.107826339960844 
2258	 0.107590915065913 
2259	 0.107253314442128 
2260	 0.105997254411873 
2261	 0.104825686205468 
2262	 0.104217071809082 
2263	 0.103781528841517 
2264	 0.103927331446922 
2265	 0.104430155138708 
2266	 0.10445234833519 
2267	 0.104091096769869 
2268	 0.103514869077878 
2269	 0.102755137738186 
2270	 0.102034709839748 
2271	 0.101274459725857 
2272	 0.100439829287037 
2273	 9.93483734079475E-02 
2274	 9.84790044813375E-02 
2275	 9.84106501129254E-02 
2276	 9.84365908731702E-02 
2277	 9.80591140337647E-02 
2278	 9.78735771281215E-02 
2279	 9.79524156767593E-02 
2280	 9.78662092358405E-02 
2281	 9.79351964801465E-02 
2282	 9.77571415850753E-02 
2283	 9.71075396832481E-02 
2284	 9.65393447546143E-02 
2285	 9.60756531113773E-02 
2286	 9.57232217178724E-02 
2287	 0.095592125436971 
2288	 9.55158530315992E-02 
2289	 9.48575715459099E-02 
2290	 9.40208261795552E-02 
2291	 9.31636874324537E-02 
2292	 9.18496292133518E-02 
2293	 9.16005504535464E-02 
2294	 9.19267596621965E-02 
2295	 9.19456446349995E-02 
2296	 9.22356171729972E-02 
2297	 9.17312238053709E-02 
2298	 9.03787533353233E-02 
2299	 8.94072100981956E-02 
2300	 8.89610670556215E-02 
2301	 8.86595217183341E-02 
2302	 8.85588511126461E-02 
2303	 8.81496208396734E-02 
2304	 8.78648065858937E-02 
2305	 8.70095159256653E-02 
2306	 8.55933354394748E-02 
2307	 8.50839197153854E-02 
2308	 8.40151491371254E-02 
2309	 8.26687476797354E-02 
2310	 8.21380026428086E-02 
2311	 8.15111251791155E-02 
2312	 8.10664150917599E-02 
2313	 8.13191043141269E-02 
2314	 8.11066674710033E-02 
2315	 8.05154697588696E-02 
2316	 8.02185838405553E-02 
2317	 7.91613086948442E-02 
2318	 7.83205791555563E-02 
2319	 7.82119953029805E-02 
2320	 7.73884211632969E-02 
2321	 0.076827270263642 
2322	 7.68334230649188E-02 
2323	 7.64799836705811E-02 
2324	 7.58108121205607E-02 
2325	 7.54230138341942E-02 
2326	 7.53001738612211E-02 
2327	 7.44070662823582E-02 
2328	 7.44712283476315E-02 
2329	 7.49962800404647E-02 
2330	 7.49950402133404E-02 
2331	 7.50389845792478E-02 
2332	 7.41736532521373E-02 
2333	 7.24312811974275E-02 
2334	 7.11670933658154E-02 
2335	 0.070414679056064 
2336	 7.00717442526502E-02 
2337	 7.07605979481651E-02 
2338	 7.07415884732817E-02 
2339	 6.97275292278962E-02 
2340	 6.86087097984536E-02 
2341	 6.68830975645656E-02 
2342	 6.54550719336779E-02 
2343	 6.46957302242097E-02 
2344	 6.45841511540914E-02 
2345	 6.48740658379535E-02 
2346	 6.45602555656766E-02 
2347	 6.49920097911698E-02 
2348	 6.54015704421024E-02 
2349	 6.38877432121123E-02 
2350	 0.062426485687125 
2351	 6.18285683549725E-02 
2352	 6.14640672950799E-02 
2353	 0.061165371838297 
2354	 0.061805968545463 
2355	 6.19624293209066E-02 
2356	 6.09693256244823E-02 
2357	 0.060735747403036 
2358	 5.99129844807295E-02 
2359	 5.86690323760673E-02 
2360	 5.73300461836912E-02 
2361	 5.67045089662796E-02 
2362	 5.80481292175138E-02 
2363	 0.058359023226525 
2364	 5.84298330277569E-02 
2365	 5.95819837761288E-02 
2366	 0.058599032604655 
2367	 5.67142024049681E-02 
2368	 5.54958437754802E-02 
2369	 5.34832397424853E-02 
2370	 5.29524260230533E-02 
2371	 5.46712299405552E-02 
2372	 5.48035200138023E-02 
2373	 5.47986311902026E-02 
2374	 5.47885075376598E-02 
2375	 5.34354664214669E-02 
2376	 0.052426193234246 
2377	 5.29823814923911E-02 
2378	 5.26506618237596E-02 
2379	 5.07008745297145E-02 
2380	 4.99891903330955E-02 
2381	 4.97562619014841E-02 
2382	 0.049279035324303 
2383	 4.97146218587025E-02 
2384	 5.01022487799679E-02 
2385	 0.050330389239355 
2386	 4.96507411550902E-02 
2387	 4.76780879480374E-02 
2388	 4.72038467588485E-02 
2389	 4.73605424284241E-02 
2390	 4.69979074406432E-02 
2391	 4.83857653147556E-02 
2392	 4.77495028886352E-02 
2393	 4.44736383548652E-02 
2394	 4.34186727926653E-02 
2395	 4.22295199011791E-02 
2396	 0.042308875442577 
2397	 4.57816255802071E-02 
2398	 4.53169817384622E-02 
2399	 4.22753490912421E-02 
2400	 4.10554065458072E-02 
2401	 0.038361313254733 
2402	 3.65147042804277E-02 
2403	 3.81806728968698E-02 
2404	 3.97811345677082E-02 
2405	 3.89822475148529E-02 
2406	 3.92447367710505E-02 
2407	 3.92478519236149E-02 
2408	 4.00795576121169E-02 
2409	 4.10830036676644E-02 
2410	 0.04031712893931 
2411	 4.09985601137907E-02 
2412	 4.34891145633878E-02 
2413	 4.67009411752044E-02 
2414	 4.65111038406256E-02 
2415	 4.30574866652021E-02 
2416	 3.90323890118938E-02 
2417	 0.032879925210226 
2418	 3.13708604618994E-02 
2419	 0.03503504987486 
2420	 3.41673268654609E-02 
2421	 3.38027812209917E-02 
2422	 0.034495197618239 
2423	 3.28098326632795E-02 
2424	 3.34999914591619E-02 
2425	 3.49181857552804E-02 
2426	 3.62751131182592E-02 
2427	 3.58985868480333E-02 
2428	 3.42846804978819E-02 
2429	 3.36955145998218E-02 
2430	 3.51596863098013E-02 
2431	 3.72824914126834E-02 
2432	 3.66706153304353E-02 
2433	 3.32727606964152E-02 
2434	 3.15889124274509E-02 
2435	 3.06633735939023E-02 
2436	 3.14098053130668E-02 
2437	 3.56923239030447E-02 
2438	 3.68689060448396E-02 
2439	 3.46575799890221E-02 
2440	 3.39075118776156E-02 
2441	 3.22612732631873E-02 
2442	 3.18391370356921E-02 
2443	 3.55884934945714E-02 
2444	 3.69780856223324E-02 
2445	 3.57579599388547E-02 
2446	 3.58389060784871E-02 
2447	 3.52209348129645E-02 
2448	 3.56771924875882E-02 
2449	 3.93290773033017E-02 
2450	 0.040263414211289 
2451	 3.87418613722897E-02 
2452	 3.80930545603046E-02 
2453	 0.038077522408708 
2454	 3.55702455956347E-02 
2455	 3.26916364752319E-02 
2456	 2.93314165537256E-02 
2457	 1.97195938389048E-02 
2458	 0.019197751151903 
2459	 2.38044676309514E-02 
2460	 2.53671099704168E-02 
2461	 3.42558324652993E-02 
2462	 3.64989773062779E-02 
2463	 0.032644340603403 
2464	 3.03418843287306E-02 
2465	 2.40705724184089E-02 
2466	 2.06790410973174E-02 
2467	 1.78135388080137E-02 
2468	 1.84370762538721E-02 
2469	 2.51959175997394E-02 
2470	 2.80674742341528E-02 
2471	 3.12482631135499E-02 
2472	 2.92647642203803E-02 
2473	 2.04155963949486E-02 
2474	 1.96332689238953E-02 
2475	 1.93641241825332E-02 
2476	 0.019963273011335 
2477	 2.91254676117064E-02 
2478	 0.030710939102366 
2479	 2.80236817211237E-02 
2480	 2.47168715222506E-02 
2481	 1.75829133589215E-02 
2482	 1.07428113079257E-02 
2483	-7.55943388228761E-03 
2484	-1.49100025934006E-02 
2485	-6.84065098956203E-03 
2486	-0.011260289216671 
2487	-6.27194143484159E-03 
2488	 6.72001513135592E-03 
2489	 1.67769326431588E-02 
2490	 5.00417572094739E-02 
2491	 8.22124404352026E-02 
2492	 9.72764466651002E-02 
2493	 8.53652137117503E-02 
2494	 6.46816571958754E-02 
2495	 5.26242941160857E-02 
2496	 3.07629190785712E-02 
2497	 2.10232061434711E-02 
2498	 8.56643901810097E-03 
2499	-1.58209953707676E-02 
2500	-5.15110628995056E-02 
