Wavelength	ref00095.asd
350	 0.596491077713135 
351	 0.595210007679309 
352	 0.593359517072227 
353	 0.593199413637956 
354	 0.592058561360082 
355	 0.590729135850842 
356	 0.589998318777439 
357	 0.589367580477178 
358	 0.588405006064425 
359	 0.587514638491181 
360	 0.587177470878273 
361	 0.587078560786646 
362	 0.586216947128811 
363	 0.5847717578094 
364	 0.583636091872672 
365	 0.582337294841906 
366	 0.581422656670572 
367	 0.581055793384224 
368	 0.580746856616157 
369	 0.580340155862388 
370	 0.579670360656998 
371	 0.578763633924087 
372	 0.578131993184336 
373	 0.577514285520363 
374	 0.57693567030572 
375	 0.5764864827644 
376	 0.575523506745534 
377	 0.574826696390501 
378	 0.574498598998095 
379	 0.57371280822439 
380	 0.573146928731654 
381	 0.573084939184011 
382	 0.573385115395721 
383	 0.573049974953804 
384	 0.572687216377204 
385	 0.572312762670478 
386	 0.571713036567484 
387	 0.570917135440082 
388	 0.570266819801882 
389	 0.569777546489878 
390	 0.569141107661494 
391	 0.569013606065972 
392	 0.569215783577573 
393	 0.569473363223195 
394	 0.569746841898535 
395	 0.569413059315729 
396	 0.568874928808005 
397	 0.568634455516311 
398	 0.567615676264259 
399	 0.566658276876329 
400	 0.566175759576548 
401	 0.566095788490639 
402	 0.565975226487328 
403	 0.56594217353176 
404	 0.56609541292154 
405	 0.566311761220971 
406	 0.56632502190441 
407	 0.566252017776926 
408	 0.566274318565239 
409	 0.56611560884635 
410	 0.565916492870941 
411	 0.565717611851173 
412	 0.565466052276233 
413	 0.565337729651528 
414	 0.56523423365266 
415	 0.565114189328885 
416	 0.565150710160972 
417	 0.565269887166584 
418	 0.565253812913512 
419	 0.564985585993068 
420	 0.565109638591641 
421	 0.565037005033944 
422	 0.564716809150708 
423	 0.564599645760045 
424	 0.564490503904285 
425	 0.564427932845025 
426	 0.564459035356755 
427	 0.564590960541599 
428	 0.564712930878499 
429	 0.564620562164307 
430	 0.564243531567031 
431	 0.564303034113787 
432	 0.564115594037178 
433	 0.563553855724853 
434	 0.563043755660584 
435	 0.562885325264875 
436	 0.562874017311494 
437	 0.562814470233445 
438	 0.562746207592271 
439	 0.562477095081004 
440	 0.562157811231433 
441	 0.561982791681682 
442	 0.561645113707779 
443	 0.561370191005025 
444	 0.561128533338955 
445	 0.56065001160182 
446	 0.56049231325054 
447	 0.560329709515652 
448	 0.559894985681372 
449	 0.559440909081554 
450	 0.559046178098017 
451	 0.558753397374507 
452	 0.558561500333853 
453	 0.558405315998321 
454	 0.558092915267936 
455	 0.557656197990118 
456	 0.557387308305067 
457	 0.557089090404229 
458	 0.556740506371262 
459	 0.556389451184659 
460	 0.556175546325929 
461	 0.555955979466079 
462	 0.555652358458127 
463	 0.555267450317516 
464	 0.555126197900184 
465	 0.555037459389095 
466	 0.554844967773873 
467	 0.554529615950466 
468	 0.554304118469199 
469	 0.554032954062419 
470	 0.553587535934681 
471	 0.553259995377647 
472	 0.552941001383708 
473	 0.552593827551364 
474	 0.552243672177692 
475	 0.55196330613486 
476	 0.551617139112001 
477	 0.551163596949707 
478	 0.550789241183209 
479	 0.550402062431185 
480	 0.550050216725301 
481	 0.549769033276345 
482	 0.549289422424774 
483	 0.54894135823833 
484	 0.548794433898462 
485	 0.548636003768945 
486	 0.548551190781128 
487	 0.548254583012001 
488	 0.54758964291267 
489	 0.546840937731588 
490	 0.546321222726778 
491	 0.546072152332954 
492	 0.545950030142892 
493	 0.545691290398464 
494	 0.545262890722189 
495	 0.54480787869385 
496	 0.544645213877729 
497	 0.544376464733527 
498	 0.544102053039661 
499	 0.543952672227715 
500	 0.543759292906896 
501	 0.543410797109338 
502	 0.542988937207125 
503	 0.542673160242593 
504	 0.542289960556236 
505	 0.541827729273169 
506	 0.541374638181794 
507	 0.541149775239661 
508	 0.540950303189165 
509	 0.540670253960421 
510	 0.540268628557896 
511	 0.539814706584639 
512	 0.539544084303901 
513	 0.539426354934773 
514	 0.539203614771887 
515	 0.538912765841963 
516	 0.538698840244729 
517	 0.538595953094559 
518	 0.538352846158449 
519	 0.53774685675023 
520	 0.537100166198346 
521	 0.536834689945321 
522	 0.536515026846521 
523	 0.53625436223655 
524	 0.53604480214964 
525	 0.535713916510094 
526	 0.535585947060449 
527	 0.535455954817837 
528	 0.53509087389754 
529	 0.534530313821871 
530	 0.534089917913062 
531	 0.533828516010377 
532	 0.533638699181138 
533	 0.533456743894708 
534	 0.533090643728468 
535	 0.53255802720083 
536	 0.532224161194469 
537	 0.531900297226024 
538	 0.531565204303708 
539	 0.531250720975497 
540	 0.531035121870535 
541	 0.5306630864262 
542	 0.53009717457092 
543	 0.529509678399264 
544	 0.529079702099761 
545	 0.52871389286814 
546	 0.52834853653876 
547	 0.528129781100507 
548	 0.527859383870441 
549	 0.527514646474897 
550	 0.527153152696472 
551	 0.52684014326276 
552	 0.526369906790565 
553	 0.52575311572552 
554	 0.525276903063502 
555	 0.524748904332821 
556	 0.524257424665556 
557	 0.523858920980006 
558	 0.52329012152077 
559	 0.522675520553757 
560	 0.52206725743643 
561	 0.521458818481212 
562	 0.520808636631447 
563	 0.520145225027548 
564	 0.519530480033246 
565	 0.519090635078092 
566	 0.518516380443182 
567	 0.517926687981753 
568	 0.517582608717493 
569	 0.517689726829255 
570	 0.517723908990094 
571	 0.51737806133939 
572	 0.516616152048947 
573	 0.515742702987928 
574	 0.514932070144208 
575	 0.514155237808418 
576	 0.512975861219469 
577	 0.511683268915554 
578	 0.51041891822971 
579	 0.509307477730374 
580	 0.508764225701598 
581	 0.508749293887628 
582	 0.50901097500212 
583	 0.509105305494285 
584	 0.509211974802366 
585	 0.509195089588263 
586	 0.508909732851102 
587	 0.508406152457426 
588	 0.508076842478828 
589	 0.50785615250299 
590	 0.507345495720298 
591	 0.506612417796273 
592	 0.505755138045719 
593	 0.50482135812916 
594	 0.503753606945774 
595	 0.503043749510582 
596	 0.502598663451775 
597	 0.502134729751897 
598	 0.50164083580405 
599	 0.501113168623305 
600	 0.500552558461882 
601	 0.499966125373021 
602	 0.499429548775184 
603	 0.498818481884054 
604	 0.498097687256888 
605	 0.497569637426595 
606	 0.496997694052696 
607	 0.496392224542797 
608	 0.49586385448529 
609	 0.495287247164597 
610	 0.494704860470797 
611	 0.49415019648423 
612	 0.493616322879857 
613	 0.493166857752243 
614	 0.492676062589665 
615	 0.492061048758387 
616	 0.491594802389271 
617	 0.49104799930746 
618	 0.490388056302277 
619	 0.489725530131838 
620	 0.489130688031234 
621	 0.488610778831324 
622	 0.488104483038249 
623	 0.487435104770695 
624	 0.486789656825295 
625	 0.486188259615522 
626	 0.485580897838873 
627	 0.484868706398431 
628	 0.484241787755156 
629	 0.483738924206419 
630	 0.483247312234899 
631	 0.482796106618632 
632	 0.482351317432432 
633	 0.481890753488381 
634	 0.481458526386708 
635	 0.480884970954674 
636	 0.480291435310101 
637	 0.479886900997365 
638	 0.479435732581912 
639	 0.479032064296691 
640	 0.478655295306287 
641	 0.478121104948289 
642	 0.477552449633738 
643	 0.476979047972226 
644	 0.476394280493925 
645	 0.475749511930902 
646	 0.475250243288995 
647	 0.474795743668679 
648	 0.474141976530746 
649	 0.473685502299545 
650	 0.473167840910715 
651	 0.472491388695532 
652	 0.471906360877071 
653	 0.471416408027004 
654	 0.470989483045448 
655	 0.470579960923531 
656	 0.470262217353782 
657	 0.469673829588943 
658	 0.468962025357056 
659	 0.468513418128537 
660	 0.468019779866891 
661	 0.467391312680411 
662	 0.466717239528965 
663	 0.466353007964668 
664	 0.465833345934692 
665	 0.465153399817676 
666	 0.464486348290554 
667	 0.464026209866414 
668	 0.46345815115453 
669	 0.462752183196418 
670	 0.462146800741196 
671	 0.461636941216036 
672	 0.461097788037168 
673	 0.46048551280252 
674	 0.459995223072904 
675	 0.459408822775565 
676	 0.458760994181323 
677	 0.458183116389614 
678	 0.457725294296842 
679	 0.457174480995685 
680	 0.456535207226927 
681	 0.456043986605186 
682	 0.455484687465244 
683	 0.454902894148162 
684	 0.454347862906142 
685	 0.453757883069891 
686	 0.453025831246655 
687	 0.45219387809892 
688	 0.451480778913848 
689	 0.45098660785064 
690	 0.450476062716293 
691	 0.449924951946304 
692	 0.449593717580419 
693	 0.449119559698474 
694	 0.448558685708211 
695	 0.448058965552701 
696	 0.447771144159366 
697	 0.447370236466337 
698	 0.446866438924336 
699	 0.446400778356275 
700	 0.445788616342633 
701	 0.445308245418165 
702	 0.444983395646758 
703	 0.444500478057594 
704	 0.443910107611794 
705	 0.44338019875134 
706	 0.442992955839687 
707	 0.442547636204238 
708	 0.442065123542315 
709	 0.441584316722954 
710	 0.441139385193301 
711	 0.440612004038325 
712	 0.440112131787972 
713	 0.439659655061721 
714	 0.439149467104004 
715	 0.438506422728964 
716	 0.437779920888842 
717	 0.437033301853168 
718	 0.43634795669365 
719	 0.435699884122214 
720	 0.435159930288559 
721	 0.434779946511716 
722	 0.43445174437628 
723	 0.433979188921336 
724	 0.433306784524766 
725	 0.432606839109478 
726	 0.432129484906679 
727	 0.431736850326714 
728	 0.431285891496087 
729	 0.430891033671907 
730	 0.430336635494707 
731	 0.429841959534121 
732	 0.429650141767178 
733	 0.429204156513091 
734	 0.428960120784922 
735	 0.428826823402366 
736	 0.42823903218739 
737	 0.42782133615116 
738	 0.427425353319672 
739	 0.426940479635026 
740	 0.426654528907786 
741	 0.426193967259346 
742	 0.42563196748859 
743	 0.42516814721794 
744	 0.424799553181811 
745	 0.424390517022074 
746	 0.423895574914928 
747	 0.423351114870617 
748	 0.422786412028568 
749	 0.422222682651133 
750	 0.421722650028421 
751	 0.421430223237042 
752	 0.420897667437913 
753	 0.420321182806055 
754	 0.419934390042528 
755	 0.419415245019068 
756	 0.418841901641137 
757	 0.418261830790158 
758	 0.417725109170935 
759	 0.417654130936018 
760	 0.417173435367423 
761	 0.415687054334953 
762	 0.414642240223126 
763	 0.414523991669362 
764	 0.414519644458901 
765	 0.414163510518292 
766	 0.413816884774988 
767	 0.413675292824215 
768	 0.413606313812496 
769	 0.413420678890953 
770	 0.413120755149693 
771	 0.412823302219099 
772	 0.412477448723716 
773	 0.41191950502356 
774	 0.411460116389127 
775	 0.41113855437868 
776	 0.410873895110989 
777	 0.410463525863963 
778	 0.41001138737118 
779	 0.409553923735934 
780	 0.409108807698749 
781	 0.40866815363801 
782	 0.408262635919217 
783	 0.407922210486603 
784	 0.407632280201175 
785	 0.407111717288296 
786	 0.406603889277806 
787	 0.406201934229301 
788	 0.405787358173321 
789	 0.405271492313987 
790	 0.40480084826961 
791	 0.404473640297872 
792	 0.404203375056301 
793	 0.403779897258995 
794	 0.403250849946088 
795	 0.402761977495037 
796	 0.40243828897375 
797	 0.402004453105597 
798	 0.401502596050155 
799	 0.401145788812632 
800	 0.400840730934023 
801	 0.400498493004867 
802	 0.400157338584916 
803	 0.399975786847462 
804	 0.399647204954365 
805	 0.3992289860866 
806	 0.39884307824591 
807	 0.398589621198218 
808	 0.398212591504907 
809	 0.397832529631929 
810	 0.397581508051611 
811	 0.39712840378391 
812	 0.396654311887716 
813	 0.396207457556878 
814	 0.395769128578131 
815	 0.395457528792706 
816	 0.395154972323329 
817	 0.394822021842692 
818	 0.394519816145328 
819	 0.394140333679002 
820	 0.39376906742601 
821	 0.393553943830228 
822	 0.393708408886783 
823	 0.39342933893285 
824	 0.392807093915352 
825	 0.39225534496871 
826	 0.392196613232882 
827	 0.392271818882601 
828	 0.392213595428747 
829	 0.391858268043793 
830	 0.391356145388239 
831	 0.391032281658156 
832	 0.390856841687373 
833	 0.390548067992681 
834	 0.390170335933708 
835	 0.389894586545279 
836	 0.389684829632951 
837	 0.389268824118345 
838	 0.388950951092378 
839	 0.38871007781301 
840	 0.388462838157929 
841	 0.388128554194927 
842	 0.387911917036043 
843	 0.387766307036216 
844	 0.387547727953362 
845	 0.387046388524814 
846	 0.386682556928136 
847	 0.386532241827626 
848	 0.386483940568166 
849	 0.386440477923819 
850	 0.386301142702963 
851	 0.386051405265782 
852	 0.385779402707518 
853	 0.385790426924981 
854	 0.385847604335553 
855	 0.385628924962085 
856	 0.384892376448994 
857	 0.384461080379964 
858	 0.38437537864245 
859	 0.384369959007039 
860	 0.383968550627522 
861	 0.38374961449961 
862	 0.383454000935927 
863	 0.382943070072174 
864	 0.382929046382538 
865	 0.38286666802544 
866	 0.38273129876876 
867	 0.382556785287707 
868	 0.381873566251798 
869	 0.381379365264843 
870	 0.3810675524577 
871	 0.38067476550844 
872	 0.380628753726128 
873	 0.380559438962413 
874	 0.380283590648333 
875	 0.379841837839937 
876	 0.379591737065997 
877	 0.379263559472631 
878	 0.378782259622578 
879	 0.378351668108191 
880	 0.378319427224169 
881	 0.378178163375052 
882	 0.377714210855269 
883	 0.3772977634369 
884	 0.377201209113444 
885	 0.37717298217226 
886	 0.376987219290941 
887	 0.376694412502644 
888	 0.376271953240577 
889	 0.376009152281781 
890	 0.375969149306802 
891	 0.375446340174397 
892	 0.375346925073265 
893	 0.375322394158665 
894	 0.374929164609315 
895	 0.374958070509744 
896	 0.374756990035974 
897	 0.37454354535176 
898	 0.374674089175217 
899	 0.374263991197837 
900	 0.374108031480809 
901	 0.373988673634819 
902	 0.373295214444635 
903	 0.372443053352852 
904	 0.371900177932699 
905	 0.371834014477839 
906	 0.372109069591506 
907	 0.372147965655173 
908	 0.372365541090847 
909	 0.372422904580938 
910	 0.371531183314395 
911	 0.370996488020087 
912	 0.37103869536532 
913	 0.37121534862467 
914	 0.370750895065816 
915	 0.370715593655449 
916	 0.37037640328524 
917	 0.369720948083778 
918	 0.369670543011644 
919	 0.369266908861247 
920	 0.368999055913326 
921	 0.369053240559615 
922	 0.368962759572445 
923	 0.368604654484442 
924	 0.368220114618864 
925	 0.367874560361174 
926	 0.367274134950022 
927	 0.367184140726635 
928	 0.367300236246714 
929	 0.367315012380801 
930	 0.367426620817328 
931	 0.368663287020957 
932	 0.369731037940924 
933	 0.369486259309197 
934	 0.368886735972543 
935	 0.368482894956116 
936	 0.367898161799259 
937	 0.366727908756494 
938	 0.365111631358963 
939	 0.364685421983207 
940	 0.364011094791433 
941	 0.362768372745394 
942	 0.363943908110624 
943	 0.364993122107383 
944	 0.365293042649011 
945	 0.36503279944833 
946	 0.365074514758784 
947	 0.363870712143988 
948	 0.362527693357392 
949	 0.36197574350121 
950	 0.361250117729031 
951	 0.361394815995402 
952	 0.361914345847362 
953	 0.362160285482416 
954	 0.362050203375656 
955	 0.361662014696575 
956	 0.361532859372093 
957	 0.361688729941796 
958	 0.36102049503017 
959	 0.360926487994951 
960	 0.360948880388875 
961	 0.360845421705334 
962	 0.361537100122531 
963	 0.360649008419454 
964	 0.359925706741527 
965	 0.360281768894421 
966	 0.359765433076979 
967	 0.359308347850692 
968	 0.359042123981763 
969	 0.358631844481047 
970	 0.357417297705164 
971	 0.358270236618188 
972	 0.358872770449948 
973	 0.358080162646439 
974	 0.357920351972453 
975	 0.35861613761484 
976	 0.359201062577122 
977	 0.359211631193273 
978	 0.359117205470406 
979	 0.35762116370681 
980	 0.356686989058918 
981	 0.356847246135881 
982	 0.356668787607818 
983	 0.357061588156153 
984	 0.357197074382074 
985	 0.356639504033343 
986	 0.355764142699613 
987	 0.356406826501961 
988	 0.356815783066281 
989	 0.356415989379012 
990	 0.355998720532576 
991	 0.356600947873266 
992	 0.355924565629919 
993	 0.354827283167157 
994	 0.355483672087433 
995	 0.355255769707782 
996	 0.354384618130826 
997	 0.354101003904458 
998	 0.355237698011335 
999	 0.355480867131676 
1000	 0.354834799921606 
1001	 0.345524830804446 
1002	 0.345165645938529 
1003	 0.344826371950721 
1004	 0.344351504824114 
1005	 0.344096816099653 
1006	 0.343968727797717 
1007	 0.343785565976611 
1008	 0.343705972701603 
1009	 0.343601920569647 
1010	 0.343470123183435 
1011	 0.343344883574165 
1012	 0.343230429200358 
1013	 0.343047895342799 
1014	 0.342675133658284 
1015	 0.342225247234667 
1016	 0.342068555964579 
1017	 0.342006039440861 
1018	 0.341832692042311 
1019	 0.341820823279206 
1020	 0.341648147330143 
1021	 0.341268438757378 
1022	 0.340912655893613 
1023	 0.340504924099719 
1024	 0.340208290874771 
1025	 0.339910395906831 
1026	 0.339657601174345 
1027	 0.339471646975672 
1028	 0.339287172038188 
1029	 0.339026822208658 
1030	 0.338655057900799 
1031	 0.338233346180374 
1032	 0.337880221072454 
1033	 0.337566364248693 
1034	 0.337229590469995 
1035	 0.337008844685914 
1036	 0.336873544920039 
1037	 0.33674956611856 
1038	 0.33673782180589 
1039	 0.336660271919415 
1040	 0.336397338796035 
1041	 0.336129915329121 
1042	 0.335749582488089 
1043	 0.335315917802042 
1044	 0.335002932443412 
1045	 0.334747311326133 
1046	 0.334586027888888 
1047	 0.334355664044751 
1048	 0.33400247900187 
1049	 0.333804121709058 
1050	 0.333578730470936 
1051	 0.333283803818881 
1052	 0.333016252862363 
1053	 0.33286020044621 
1054	 0.332586853862285 
1055	 0.332312843611534 
1056	 0.332113951415445 
1057	 0.332022215177503 
1058	 0.331920349001199 
1059	 0.331692615777588 
1060	 0.331529830659898 
1061	 0.331312565954736 
1062	 0.331082571869529 
1063	 0.331026641150395 
1064	 0.330893679452413 
1065	 0.330753173819412 
1066	 0.330631065140536 
1067	 0.330500079898323 
1068	 0.330272980610806 
1069	 0.330120422882155 
1070	 0.329942260631117 
1071	 0.329826043872923 
1072	 0.329805765118916 
1073	 0.329665214518705 
1074	 0.329515135122641 
1075	 0.329396572185789 
1076	 0.329139584677236 
1077	 0.328956199055165 
1078	 0.328887560854558 
1079	 0.328737495347066 
1080	 0.32862110297752 
1081	 0.328504407517882 
1082	 0.328410302383354 
1083	 0.328234704199552 
1084	 0.328042217895749 
1085	 0.327852405656244 
1086	 0.327620902452199 
1087	 0.327370032153871 
1088	 0.327184063836138 
1089	 0.326978258675514 
1090	 0.326745683279128 
1091	 0.326518701394414 
1092	 0.326346642295444 
1093	 0.326271005995856 
1094	 0.326085393457172 
1095	 0.32589096177973 
1096	 0.325748020474053 
1097	 0.325592060815673 
1098	 0.325375991664769 
1099	 0.325181292882704 
1100	 0.32501606657247 
1101	 0.324731531761775 
1102	 0.324455862889146 
1103	 0.324283076763348 
1104	 0.324072704357018 
1105	 0.323752541294328 
1106	 0.323434036255468 
1107	 0.323236925200573 
1108	 0.323059991218386 
1109	 0.322875331822277 
1110	 0.322770690215674 
1111	 0.322606750591746 
1112	 0.322288520061947 
1113	 0.322039050649828 
1114	 0.321843373339989 
1115	 0.321635032692257 
1116	 0.321373650455589 
1117	 0.321219521258725 
1118	 0.321100926538567 
1119	 0.320832160625628 
1120	 0.320531687947958 
1121	 0.320293622586339 
1122	 0.320064998390962 
1123	 0.319940556733651 
1124	 0.319851471568209 
1125	 0.319772612873866 
1126	 0.319647434278551 
1127	 0.319433512235611 
1128	 0.319375930235942 
1129	 0.31938441505393 
1130	 0.319392452891213 
1131	 0.319590610652282 
1132	 0.319571823483183 
1133	 0.319445215377845 
1134	 0.319284607590798 
1135	 0.319174825297058 
1136	 0.319120157477069 
1137	 0.319071796611565 
1138	 0.319063838747497 
1139	 0.318966554285565 
1140	 0.318835389277526 
1141	 0.318851065566956 
1142	 0.318891823525348 
1143	 0.318927606510857 
1144	 0.319021114866395 
1145	 0.319035060556091 
1146	 0.319083751016793 
1147	 0.319003310685127 
1148	 0.318850758040272 
1149	 0.318668412127499 
1150	 0.318302277900461 
1151	 0.318086208917915 
1152	 0.317914215370569 
1153	 0.317774727231746 
1154	 0.317715450742005 
1155	 0.317777292102292 
1156	 0.317689539428757 
1157	 0.3175665135508 
1158	 0.317385542838384 
1159	 0.317207942000838 
1160	 0.317077399674447 
1161	 0.316972716090309 
1162	 0.316835907512611 
1163	 0.316737828696648 
1164	 0.316575418352289 
1165	 0.316359318041963 
1166	 0.316175309599685 
1167	 0.315980238803927 
1168	 0.315778971045435 
1169	 0.315571807003641 
1170	 0.315377845850082 
1171	 0.315090641054264 
1172	 0.314836471384001 
1173	 0.31475816330972 
1174	 0.314588674701735 
1175	 0.314449176189943 
1176	 0.314326125506858 
1177	 0.314151293011939 
1178	 0.313883713895828 
1179	 0.313666934677535 
1180	 0.313467880207725 
1181	 0.313264624642639 
1182	 0.313033754907761 
1183	 0.312806146740817 
1184	 0.312547160543692 
1185	 0.312389076987472 
1186	 0.312339525113131 
1187	 0.312174445631682 
1188	 0.311965874864622 
1189	 0.311862632071186 
1190	 0.311705112574598 
1191	 0.311534169719235 
1192	 0.311458067451639 
1193	 0.311404051253145 
1194	 0.311283329389587 
1195	 0.3110787165017 
1196	 0.3109384786195 
1197	 0.310808130782731 
1198	 0.310673092848043 
1199	 0.310560560217505 
1200	 0.310419293713284 
1201	 0.310250710573022 
1202	 0.31012306651366 
1203	 0.310027434451594 
1204	 0.309884714472198 
1205	 0.309718715612396 
1206	 0.309583056063456 
1207	 0.30941394804521 
1208	 0.309274667874824 
1209	 0.309148029417433 
1210	 0.309122274021714 
1211	 0.309047464288106 
1212	 0.30890582056996 
1213	 0.308737136224511 
1214	 0.308519634575229 
1215	 0.30833250335776 
1216	 0.308079914446571 
1217	 0.307929178350513 
1218	 0.307876105354554 
1219	 0.307737631357146 
1220	 0.307597763897878 
1221	 0.30746758621676 
1222	 0.307313370429714 
1223	 0.307130770479487 
1224	 0.306947827193566 
1225	 0.306770371388834 
1226	 0.306546365055731 
1227	 0.306350037723697 
1228	 0.306200681111871 
1229	 0.306030452967963 
1230	 0.305837671937867 
1231	 0.305614685742952 
1232	 0.305401918356207 
1233	 0.305159640493904 
1234	 0.304981142374598 
1235	 0.304822914905454 
1236	 0.304677851724049 
1237	 0.304585585160469 
1238	 0.304451429558712 
1239	 0.30430524084034 
1240	 0.304159629067899 
1241	 0.303959027694558 
1242	 0.30385707922351 
1243	 0.303852014084959 
1244	 0.303754478828064 
1245	 0.303690195563904 
1246	 0.303577948791685 
1247	 0.303341282007688 
1248	 0.303166734061242 
1249	 0.302991848775689 
1250	 0.302870342431578 
1251	 0.302803920805922 
1252	 0.302731188712245 
1253	 0.302646802376708 
1254	 0.302606170102893 
1255	 0.302496789697172 
1256	 0.302303180864844 
1257	 0.30221067307051 
1258	 0.302147239807217 
1259	 0.302078159930496 
1260	 0.302072588729497 
1261	 0.302011541003807 
1262	 0.301938371778052 
1263	 0.301820661133056 
1264	 0.301592966907179 
1265	 0.301502174354921 
1266	 0.301478920239854 
1267	 0.301410680980232 
1268	 0.301486591752167 
1269	 0.301422973935815 
1270	 0.301145819247025 
1271	 0.301000431613237 
1272	 0.300869087509475 
1273	 0.300768056790441 
1274	 0.30069953695611 
1275	 0.300744331461402 
1276	 0.300663206931225 
1277	 0.300516964000553 
1278	 0.300439505277961 
1279	 0.300334489238431 
1280	 0.300291893654633 
1281	 0.300339611943035 
1282	 0.300310156419319 
1283	 0.30028397810485 
1284	 0.300218356689486 
1285	 0.300059302265165 
1286	 0.300001892722987 
1287	 0.300002103926112 
1288	 0.29995384669498 
1289	 0.299926259621748 
1290	 0.299901281693346 
1291	 0.299795719489466 
1292	 0.299772342903369 
1293	 0.299847529238543 
1294	 0.29988422674483 
1295	 0.299961237999733 
1296	 0.29998538337644 
1297	 0.300012108983261 
1298	 0.300005496714646 
1299	 0.300030102600131 
1300	 0.300060511251753 
1301	 0.300087718523924 
1302	 0.300126908945865 
1303	 0.300152297743907 
1304	 0.300165462269707 
1305	 0.300188089503792 
1306	 0.300218015604027 
1307	 0.300232761680028 
1308	 0.300229157775296 
1309	 0.300254010268724 
1310	 0.300296680038782 
1311	 0.300313027890819 
1312	 0.30032583547526 
1313	 0.30035404288097 
1314	 0.300415038248369 
1315	 0.300397998347956 
1316	 0.300363203980629 
1317	 0.300307730910332 
1318	 0.300171788573485 
1319	 0.300033619473872 
1320	 0.299907038330526 
1321	 0.299733304494223 
1322	 0.299603332177984 
1323	 0.299462367955318 
1324	 0.299312626782248 
1325	 0.299196704544956 
1326	 0.299029859374583 
1327	 0.298794503352827 
1328	 0.298607896159732 
1329	 0.298460476327562 
1330	 0.298246290521461 
1331	 0.29800036311523 
1332	 0.297756120838275 
1333	 0.297461328406399 
1334	 0.297200818347641 
1335	 0.296936049062774 
1336	 0.296732334882832 
1337	 0.296535660080104 
1338	 0.29639144997221 
1339	 0.29638056278238 
1340	 0.296275467859978 
1341	 0.296115698789538 
1342	 0.295990635405803 
1343	 0.295793889855479 
1344	 0.295637250716538 
1345	 0.295560550340035 
1346	 0.295493834891629 
1347	 0.295089299760787 
1348	 0.294813898188695 
1349	 0.29466474913036 
1350	 0.294586146617395 
1351	 0.294325974965964 
1352	 0.294504185491219 
1353	 0.29423986304032 
1354	 0.292513270785471 
1355	 0.292030424927847 
1356	 0.293711250156026 
1357	 0.294480573415222 
1358	 0.297672060563046 
1359	 0.299499931519714 
1360	 0.294500965995168 
1361	 0.293246780077919 
1362	 0.29400119266936 
1363	 0.293024663125568 
1364	 0.297234587566631 
1365	 0.297518115057265 
1366	 0.290833506942452 
1367	 0.289294676441918 
1368	 0.293908932858444 
1369	 0.291858861831995 
1370	 0.285516816556902 
1371	 0.284907042531258 
1372	 0.285511072119351 
1373	 0.284246196714183 
1374	 0.285235408315814 
1375	 0.284228478061463 
1376	 0.283466826249664 
1377	 0.282116696685535 
1378	 0.281874800874926 
1379	 0.28331378481384 
1380	 0.284895808163929 
1381	 0.286909037942281 
1382	 0.287510404416405 
1383	 0.289194220527601 
1384	 0.288732157835928 
1385	 0.284325504019783 
1386	 0.284594980754394 
1387	 0.287380891672502 
1388	 0.287635462678153 
1389	 0.28831459600368 
1390	 0.288751096201795 
1391	 0.287805401961648 
1392	 0.287516750100545 
1393	 0.288101444647013 
1394	 0.288212675067869 
1395	 0.288794685748001 
1396	 0.287690830951606 
1397	 0.284992113807991 
1398	 0.283910292302633 
1399	 0.282042872410807 
1400	 0.28136293626786 
1401	 0.282726442122059 
1402	 0.283210169179707 
1403	 0.282962570134761 
1404	 0.283411206140934 
1405	 0.284426661406813 
1406	 0.285000390197673 
1407	 0.285078831079785 
1408	 0.285009476505557 
1409	 0.28377802222231 
1410	 0.282770642246342 
1411	 0.282658516005757 
1412	 0.283127386840285 
1413	 0.282912420703225 
1414	 0.282892906723581 
1415	 0.28258423939431 
1416	 0.281570567897822 
1417	 0.281574148954133 
1418	 0.282213314622481 
1419	 0.282275767046484 
1420	 0.282298945725081 
1421	 0.282440669827106 
1422	 0.282326220680392 
1423	 0.282426301771731 
1424	 0.283023760087083 
1425	 0.283082916355766 
1426	 0.282892305660715 
1427	 0.282718008757761 
1428	 0.282272829735485 
1429	 0.282029344227816 
1430	 0.281838890767296 
1431	 0.281698052508651 
1432	 0.2815869581153 
1433	 0.281559261692353 
1434	 0.281671999358876 
1435	 0.281681996302219 
1436	 0.281855146894754 
1437	 0.281743433543089 
1438	 0.281276309372967 
1439	 0.281051266859054 
1440	 0.280784463968308 
1441	 0.280614268684268 
1442	 0.280639815160639 
1443	 0.280673333437553 
1444	 0.280616157166313 
1445	 0.280368112081171 
1446	 0.280247176765954 
1447	 0.280249071388961 
1448	 0.280266640829637 
1449	 0.280398856635047 
1450	 0.280388125857638 
1451	 0.280371529814996 
1452	 0.280294087577663 
1453	 0.280120351210261 
1454	 0.280044819578649 
1455	 0.280025776202249 
1456	 0.279889716115684 
1457	 0.2796840460582 
1458	 0.279603860303589 
1459	 0.279515543078916 
1460	 0.279406280380819 
1461	 0.279409890557688 
1462	 0.279291966245197 
1463	 0.278961574019342 
1464	 0.278852869895855 
1465	 0.278879184558457 
1466	 0.278813917489898 
1467	 0.278819089911719 
1468	 0.278752103782032 
1469	 0.278540959292212 
1470	 0.278466418336279 
1471	 0.278505730983288 
1472	 0.278460696989053 
1473	 0.278419539371914 
1474	 0.278376660633291 
1475	 0.278320246794369 
1476	 0.278242091778407 
1477	 0.278123849806225 
1478	 0.278068924676632 
1479	 0.278046431747551 
1480	 0.277981716874644 
1481	 0.27793337487537 
1482	 0.277898456302456 
1483	 0.277841854636541 
1484	 0.277767825059092 
1485	 0.277796379515427 
1486	 0.277696596834145 
1487	 0.277506197147943 
1488	 0.277235681530473 
1489	 0.277166029539512 
1490	 0.277090013739681 
1491	 0.276987260402993 
1492	 0.276988990500132 
1493	 0.2768455910167 
1494	 0.276602788963613 
1495	 0.276544567302662 
1496	 0.276584478585018 
1497	 0.276544063013973 
1498	 0.276575608229969 
1499	 0.27648317216418 
1500	 0.276273495001488 
1501	 0.276182269521436 
1502	 0.276083876098833 
1503	 0.276030942711882 
1504	 0.276073860266 
1505	 0.276008750889439 
1506	 0.275886650083813 
1507	 0.275832941051059 
1508	 0.275777154860717 
1509	 0.27571823962831 
1510	 0.275718991842046 
1511	 0.275645316566593 
1512	 0.275483654550716 
1513	 0.275415105303246 
1514	 0.275381427701086 
1515	 0.275325661411421 
1516	 0.27531949121688 
1517	 0.275246802451488 
1518	 0.275118531740955 
1519	 0.275008263995867 
1520	 0.274888870747301 
1521	 0.274766331336477 
1522	 0.274661022610653 
1523	 0.274507139091784 
1524	 0.274261526542668 
1525	 0.274136067528466 
1526	 0.27405589883509 
1527	 0.273953907704593 
1528	 0.273973664941434 
1529	 0.273863238583275 
1530	 0.273604488843594 
1531	 0.273452305552045 
1532	 0.273318306969208 
1533	 0.273170836915537 
1534	 0.273096117524982 
1535	 0.272949462480123 
1536	 0.272673494488053 
1537	 0.272523809675039 
1538	 0.272454404942279 
1539	 0.272331628419491 
1540	 0.272258408999241 
1541	 0.272156552632614 
1542	 0.271994667564723 
1543	 0.271838955524191 
1544	 0.271687057432119 
1545	 0.271550914548491 
1546	 0.27137656808477 
1547	 0.271246567933984 
1548	 0.2711744413169 
1549	 0.271092063409777 
1550	 0.27107537765895 
1551	 0.270971443844585 
1552	 0.270786391930922 
1553	 0.270639189389709 
1554	 0.270428127728221 
1555	 0.270273277593985 
1556	 0.270235518267055 
1557	 0.270114964030579 
1558	 0.269920052179968 
1559	 0.269782653930423 
1560	 0.269609002190695 
1561	 0.269486593422066 
1562	 0.269513746687841 
1563	 0.269433341655339 
1564	 0.26929784420605 
1565	 0.26914471801723 
1566	 0.268937786045948 
1567	 0.268834286622065 
1568	 0.268755009240214 
1569	 0.268773237259115 
1570	 0.268699430199293 
1571	 0.268610112101596 
1572	 0.268544970177312 
1573	 0.268496365948026 
1574	 0.268333937623431 
1575	 0.268120751934326 
1576	 0.26799843099683 
1577	 0.267791163435582 
1578	 0.267737162621404 
1579	 0.267854202592416 
1580	 0.267846226562838 
1581	 0.26782569555852 
1582	 0.267784397668134 
1583	 0.26770989350241 
1584	 0.267679158724722 
1585	 0.26764027023614 
1586	 0.267634667070924 
1587	 0.267695602572538 
1588	 0.267648744129862 
1589	 0.267542625332206 
1590	 0.267518265887935 
1591	 0.267480915978497 
1592	 0.267445821493063 
1593	 0.267519707609368 
1594	 0.267401607062491 
1595	 0.267103161237035 
1596	 0.267024866118348 
1597	 0.266946583483714 
1598	 0.266937794693618 
1599	 0.267125762866791 
1600	 0.267112938216743 
1601	 0.267025399515605 
1602	 0.266923346707256 
1603	 0.266706953602405 
1604	 0.266664219794761 
1605	 0.266696628584359 
1606	 0.266649349609946 
1607	 0.266699438817513 
1608	 0.266596526718487 
1609	 0.266323878871874 
1610	 0.266196146863666 
1611	 0.266078647705714 
1612	 0.265999304584525 
1613	 0.266040431984213 
1614	 0.265870909626316 
1615	 0.265618732625961 
1616	 0.265402328916695 
1617	 0.265041284262172 
1618	 0.264867630088045 
1619	 0.264840762928999 
1620	 0.264686816875454 
1621	 0.264525071663317 
1622	 0.264372327763734 
1623	 0.264172473869157 
1624	 0.264013462327284 
1625	 0.263882621612727 
1626	 0.263778427308218 
1627	 0.263727338290439 
1628	 0.263541246314515 
1629	 0.2633083296313 
1630	 0.263137653709891 
1631	 0.262818721001798 
1632	 0.262756773785117 
1633	 0.262992686330672 
1634	 0.262861269615879 
1635	 0.262655277888788 
1636	 0.262457257115978 
1637	 0.262013686472357 
1638	 0.261824841183341 
1639	 0.261823054117587 
1640	 0.261716287217162 
1641	 0.261614379668304 
1642	 0.261506428669539 
1643	 0.261403510750621 
1644	 0.261268952846321 
1645	 0.261125945159692 
1646	 0.260969003242316 
1647	 0.26075284158812 
1648	 0.260636992290908 
1649	 0.260541060437719 
1650	 0.260502952123549 
1651	 0.260596165735015 
1652	 0.260504681806191 
1653	 0.260364321951339 
1654	 0.260223007812006 
1655	 0.259997017983593 
1656	 0.259769138811827 
1657	 0.259518580881373 
1658	 0.259370562642156 
1659	 0.259218174331651 
1660	 0.259113822571711 
1661	 0.259083879796734 
1662	 0.258877382089194 
1663	 0.258687547381694 
1664	 0.258675308678271 
1665	 0.25858305043321 
1666	 0.258523736992586 
1667	 0.258466319411789 
1668	 0.258267787253627 
1669	 0.258163989892828 
1670	 0.258079764902041 
1671	 0.257968198100808 
1672	 0.257885575290027 
1673	 0.257824167248984 
1674	 0.257840656960048 
1675	 0.257782841189612 
1676	 0.257705802338045 
1677	 0.257637507857926 
1678	 0.257480807725728 
1679	 0.257473828041717 
1680	 0.257737982343956 
1681	 0.257862686730394 
1682	 0.257835638753746 
1683	 0.2578676031843 
1684	 0.257657120232495 
1685	 0.25745380413372 
1686	 0.257451690295186 
1687	 0.257384189538903 
1688	 0.257330435022119 
1689	 0.257326603229854 
1690	 0.257301511176444 
1691	 0.257280534139712 
1692	 0.257295166313399 
1693	 0.257263247848352 
1694	 0.257223129184691 
1695	 0.257174509899972 
1696	 0.257019740930884 
1697	 0.256933150823823 
1698	 0.256887326335385 
1699	 0.25686451473899 
1700	 0.256993671465319 
1701	 0.256925879730218 
1702	 0.256709858438178 
1703	 0.25656688900656 
1704	 0.256278686520645 
1705	 0.256160323193177 
1706	 0.256185089669346 
1707	 0.256200719156475 
1708	 0.256281442769314 
1709	 0.256337492349092 
1710	 0.256530911692682 
1711	 0.256527615754552 
1712	 0.256371644414192 
1713	 0.256263821683024 
1714	 0.255987317773569 
1715	 0.255860688767202 
1716	 0.255854171595092 
1717	 0.25586350020287 
1718	 0.255974794987778 
1719	 0.255965532638253 
1720	 0.255894208987217 
1721	 0.255860306316467 
1722	 0.255808191835152 
1723	 0.255746737002112 
1724	 0.255684722638201 
1725	 0.255689204564333 
1726	 0.255717510341485 
1727	 0.255676068224068 
1728	 0.255685257473766 
1729	 0.255612394515947 
1730	 0.255496261940636 
1731	 0.25518577290143 
1732	 0.254821656415893 
1733	 0.254661675421708 
1734	 0.254307965335358 
1735	 0.254041468858446 
1736	 0.254158513819497 
1737	 0.254210768908084 
1738	 0.254137814105139 
1739	 0.254061400636601 
1740	 0.25393467207543 
1741	 0.253621539900198 
1742	 0.25340181026667 
1743	 0.253579246314954 
1744	 0.253785384714995 
1745	 0.253746749123182 
1746	 0.253599617768913 
1747	 0.253234990879947 
1748	 0.252629455125705 
1749	 0.252371960570805 
1750	 0.252328157209515 
1751	 0.252191125268029 
1752	 0.252146076568041 
1753	 0.251872280333352 
1754	 0.251514178900333 
1755	 0.251296475441883 
1756	 0.251137464885565 
1757	 0.251207569323603 
1758	 0.251158148118909 
1759	 0.25108337778467 
1760	 0.250941228998916 
1761	 0.25076771689793 
1762	 0.250594474996649 
1763	 0.250325725984164 
1764	 0.250096810393516 
1765	 0.249814448804241 
1766	 0.249630050385312 
1767	 0.24950804618358 
1768	 0.249525969991462 
1769	 0.249760392466361 
1770	 0.24965793641178 
1771	 0.24949355911372 
1772	 0.249226225574379 
1773	 0.248628679168233 
1774	 0.248652796958923 
1775	 0.248498830435498 
1776	 0.248244882716055 
1777	 0.248218360907553 
1778	 0.24797260098758 
1779	 0.247829755900279 
1780	 0.248032452575706 
1781	 0.2478511565196 
1782	 0.247870540979512 
1783	 0.248076656691709 
1784	 0.247975435356354 
1785	 0.247887869265277 
1786	 0.247375541390751 
1787	 0.246801032147405 
1788	 0.246717540335798 
1789	 0.246645031594827 
1790	 0.246663488264896 
1791	 0.246787020395892 
1792	 0.246447363172658 
1793	 0.246005226515275 
1794	 0.245984708933432 
1795	 0.245741587669275 
1796	 0.245580621979739 
1797	 0.245605313418769 
1798	 0.245430528981873 
1799	 0.24585471325497 
1800	 0.245670925390235 
1801	 0.250256879727851 
1802	 0.251381265287504 
1803	 0.25130620760198 
1804	 0.249951055613628 
1805	 0.249282153998433 
1806	 0.247916882256599 
1807	 0.247238287282464 
1808	 0.247183972361878 
1809	 0.24699865484357 
1810	 0.24758268394693 
1811	 0.24945532309644 
1812	 0.250615215925736 
1813	 0.252985948801459 
1814	 0.253573138628818 
1815	 0.251626007267014 
1816	 0.251587692173428 
1817	 0.25158594899836 
1818	 0.251316301881684 
1819	 0.251403482946136 
1820	 0.254142260498877 
1821	 0.25369451463089 
1822	 0.250778237867216 
1823	 0.248216813359797 
1824	 0.241615617503033 
1825	 0.239097720154694 
1826	 0.240628022995191 
1827	 0.23898334983884 
1828	 0.237190554480399 
1829	 0.238908623889054 
1830	 0.238374940971661 
1831	 0.22920205216082 
1832	 0.227511358599357 
1833	 0.238511551075351 
1834	 0.245729339977858 
1835	 0.272306245229761 
1836	 0.273546986391821 
1837	 0.220079744590791 
1838	 0.200642510262521 
1839	 0.186708629206105 
1840	 0.151520419481194 
1841	 0.158769868590458 
1842	 0.238554602281189 
1843	 0.253498940588169 
1844	 0.243150170975565 
1845	 0.246869884963347 
1846	 0.230091266553943 
1847	 0.231587412880536 
1848	 0.242177176822898 
1849	 0.282854870817827 
1850	 0.287748333159179 
1851	 0.278772818686612 
1852	 0.284157678860687 
1853	 0.277213957018575 
1854	 0.277223168038572 
1855	 0.308194560176486 
1856	 0.303345304767968 
1857	 0.267245115411953 
1858	 0.248863299202367 
1859	 0.24208396573624 
1860	 0.230399840427277 
1861	 0.232797390024964 
1862	 0.261579638397229 
1863	 0.263944873965118 
1864	 0.248525295689407 
1865	 0.249407444473743 
1866	 0.247634707673001 
1867	 0.251247841589204 
1868	 0.269597497473836 
1869	 0.311499237706718 
1870	 0.319146400456449 
1871	 0.313913949761564 
1872	 0.294264115645097 
1873	 0.228751102496032 
1874	 0.223940154693184 
1875	 0.249063315158361 
1876	 0.251690015135029 
1877	 0.263650632897487 
1878	 0.268339883505957 
1879	 0.264052330381704 
1880	 0.25611531510159 
1881	 0.247147030806755 
1882	 0.23333553921643 
1883	 0.232469248396537 
1884	 0.232480954673661 
1885	 0.23266385554639 
1886	 0.241351691999479 
1887	 0.246422542950315 
1888	 0.246855747816202 
1889	 0.24865983048472 
1890	 0.24591845931622 
1891	 0.240774656515911 
1892	 0.237921544591012 
1893	 0.228899207127673 
1894	 0.22624340315183 
1895	 0.234019864282305 
1896	 0.234213341513132 
1897	 0.236485878037859 
1898	 0.224456768382104 
1899	 0.212133066318264 
1900	 0.20621183136697 
1901	 0.20118184206374 
1902	 0.201253050714122 
1903	 0.210165013110653 
1904	 0.234336891362161 
1905	 0.246348926268614 
1906	 0.260739642820077 
1907	 0.267422183927795 
1908	 0.278348466338098 
1909	 0.274212739004872 
1910	 0.270806174512753 
1911	 0.265417844614073 
1912	 0.25869249392942 
1913	 0.246406714027118 
1914	 0.242165692868652 
1915	 0.239572002329148 
1916	 0.238525998216067 
1917	 0.238912958563822 
1918	 0.238101012070749 
1919	 0.237190812150036 
1920	 0.238652826534752 
1921	 0.240424918100551 
1922	 0.23839293023818 
1923	 0.237720468672879 
1924	 0.236708224019556 
1925	 0.237923026936165 
1926	 0.240684808361544 
1927	 0.24155239681718 
1928	 0.243532179335174 
1929	 0.243190086985484 
1930	 0.241780168456523 
1931	 0.241519657770394 
1932	 0.24022810997791 
1933	 0.239925316433542 
1934	 0.238921224530204 
1935	 0.235571014238238 
1936	 0.235953350813699 
1937	 0.239259800616195 
1938	 0.239308284599909 
1939	 0.239259571486039 
1940	 0.239266170382078 
1941	 0.238872182318875 
1942	 0.237906005953371 
1943	 0.237801170907213 
1944	 0.239340644249036 
1945	 0.239020268807107 
1946	 0.237620026340588 
1947	 0.237053055933506 
1948	 0.236381348162703 
1949	 0.236300183799773 
1950	 0.236480811237299 
1951	 0.237327407100986 
1952	 0.23780046998702 
1953	 0.238186651908465 
1954	 0.237366580180524 
1955	 0.236418262943302 
1956	 0.237592895737957 
1957	 0.238432522822306 
1958	 0.238635450725603 
1959	 0.239515866957063 
1960	 0.239389299930274 
1961	 0.238188692546756 
1962	 0.237092417195333 
1963	 0.237037237488096 
1964	 0.237540249148258 
1965	 0.238209223813932 
1966	 0.238746584940695 
1967	 0.239129691299515 
1968	 0.238850743080793 
1969	 0.238490314188224 
1970	 0.237661323567657 
1971	 0.237605756813163 
1972	 0.237680977800873 
1973	 0.237664486203283 
1974	 0.238105612548805 
1975	 0.238307593284348 
1976	 0.238067863176536 
1977	 0.237898114881314 
1978	 0.23781704677722 
1979	 0.238049026883254 
1980	 0.238058960505706 
1981	 0.237701474840948 
1982	 0.237648756880789 
1983	 0.23768906681168 
1984	 0.237582937698979 
1985	 0.237595347471174 
1986	 0.237979088644129 
1987	 0.238068023925024 
1988	 0.238070504920375 
1989	 0.238036911510016 
1990	 0.237983420185315 
1991	 0.238300146227041 
1992	 0.238436356104573 
1993	 0.238608398225972 
1994	 0.238896170295533 
1995	 0.238934551027238 
1996	 0.238648254787778 
1997	 0.238524555960655 
1998	 0.238262148479532 
1999	 0.237607719680745 
2000	 0.237411955326264 
2001	 0.237284511775239 
2002	 0.237408213159143 
2003	 0.238467054722184 
2004	 0.239265913279897 
2005	 0.240039767669078 
2006	 0.24066995405776 
2007	 0.241159148067345 
2008	 0.241098511793728 
2009	 0.240989610554575 
2010	 0.240373727381717 
2011	 0.239925001866656 
2012	 0.239569781543195 
2013	 0.238992992489167 
2014	 0.239049725849965 
2015	 0.239283633720057 
2016	 0.239138694114369 
2017	 0.239463734280901 
2018	 0.24022493050633 
2019	 0.240609777134208 
2020	 0.240739817209033 
2021	 0.241099859243079 
2022	 0.241565412466314 
2023	 0.241142072280285 
2024	 0.241056105912141 
2025	 0.241379180936753 
2026	 0.241010510745928 
2027	 0.241271588474005 
2028	 0.241643314656014 
2029	 0.241072479005849 
2030	 0.240987414061057 
2031	 0.2412322030508 
2032	 0.241232628225788 
2033	 0.241040514505173 
2034	 0.241288251357362 
2035	 0.241358354370961 
2036	 0.241031814796532 
2037	 0.240871875696674 
2038	 0.240727457682491 
2039	 0.240923657115379 
2040	 0.241079716053059 
2041	 0.241151026417573 
2042	 0.241504365926171 
2043	 0.241383694482938 
2044	 0.241232664666358 
2045	 0.241317191006558 
2046	 0.241567359164334 
2047	 0.241581314100257 
2048	 0.241846601816813 
2049	 0.242151182689175 
2050	 0.241928309769801 
2051	 0.24171241114598 
2052	 0.241370805673756 
2053	 0.241081490685321 
2054	 0.241304710452409 
2055	 0.241293255161543 
2056	 0.240992452592657 
2057	 0.240814002781772 
2058	 0.240841867737652 
2059	 0.24070996785521 
2060	 0.2405481891052 
2061	 0.24051889239946 
2062	 0.240845882812988 
2063	 0.240719545295321 
2064	 0.240432749028937 
2065	 0.240466962088213 
2066	 0.24001579878044 
2067	 0.239536317131668 
2068	 0.239428770413212 
2069	 0.239347472104801 
2070	 0.239294244332183 
2071	 0.239154523521882 
2072	 0.239126870598077 
2073	 0.238998255259896 
2074	 0.239323880620501 
2075	 0.240004037569524 
2076	 0.240374111486603 
2077	 0.2407586536009 
2078	 0.241087040333165 
2079	 0.240991680867312 
2080	 0.240705996923976 
2081	 0.240396940208551 
2082	 0.240055071356969 
2083	 0.239647573625863 
2084	 0.239766919477253 
2085	 0.240019303767863 
2086	 0.240297211146397 
2087	 0.240649411620731 
2088	 0.24116152271306 
2089	 0.24136991205123 
2090	 0.241776090880678 
2091	 0.241895791090358 
2092	 0.241528474505297 
2093	 0.241127499059911 
2094	 0.240364148860424 
2095	 0.239857044705521 
2096	 0.239896174586877 
2097	 0.23990487066954 
2098	 0.240050369401984 
2099	 0.240352866741725 
2100	 0.240140333096571 
2101	 0.239994526114794 
2102	 0.240101568904909 
2103	 0.240397527147212 
2104	 0.240480521497294 
2105	 0.240967768085677 
2106	 0.241286470868129 
2107	 0.24134983468827 
2108	 0.241364300492369 
2109	 0.241083475805819 
2110	 0.240989588727891 
2111	 0.240956262570666 
2112	 0.24103887716061 
2113	 0.241002768272198 
2114	 0.240756338827743 
2115	 0.240501046388565 
2116	 0.240352406041295 
2117	 0.240408781540629 
2118	 0.24084969435571 
2119	 0.241079724159784 
2120	 0.241456520525747 
2121	 0.241430643763275 
2122	 0.241437819330332 
2123	 0.241538631320369 
2124	 0.241551140930359 
2125	 0.241944748019042 
2126	 0.242167264468243 
2127	 0.242222913589486 
2128	 0.242511505811045 
2129	 0.242503267652111 
2130	 0.242411668619552 
2131	 0.242358162007233 
2132	 0.242061647068373 
2133	 0.242021011975263 
2134	 0.242006729510381 
2135	 0.242158769983104 
2136	 0.242001468002543 
2137	 0.241877487260104 
2138	 0.242042069653426 
2139	 0.242028686472054 
2140	 0.242049444456234 
2141	 0.242318586147833 
2142	 0.242278143980415 
2143	 0.242177104150255 
2144	 0.242200619771674 
2145	 0.242060336099318 
2146	 0.241803512322054 
2147	 0.241625759553441 
2148	 0.241618731142767 
2149	 0.241749342449316 
2150	 0.241866312161498 
2151	 0.241858252002662 
2152	 0.241693782121179 
2153	 0.24151101740042 
2154	 0.241226147786814 
2155	 0.241082384734295 
2156	 0.240752033579992 
2157	 0.240353403467784 
2158	 0.240481818516859 
2159	 0.240277590409291 
2160	 0.240021939586713 
2161	 0.240104549976939 
2162	 0.23977060993718 
2163	 0.23963183967925 
2164	 0.239523075508294 
2165	 0.239097370165474 
2166	 0.23911078245246 
2167	 0.238743275232946 
2168	 0.2382943643981 
2169	 0.237778011907203 
2170	 0.237738121835341 
2171	 0.237707481435962 
2172	 0.237572937489581 
2173	 0.238073598725206 
2174	 0.238328378366502 
2175	 0.237875451193944 
2176	 0.237736779478705 
2177	 0.237377730044441 
2178	 0.236465848761337 
2179	 0.235829435640294 
2180	 0.235474719037375 
2181	 0.235375565277864 
2182	 0.235478323820272 
2183	 0.23525918025875 
2184	 0.234626176107817 
2185	 0.234151307458714 
2186	 0.233881493562287 
2187	 0.233609267925244 
2188	 0.233535986956359 
2189	 0.233561037634474 
2190	 0.233691769278398 
2191	 0.233644075689695 
2192	 0.233230838643527 
2193	 0.23346182489779 
2194	 0.233307136921235 
2195	 0.232315253119068 
2196	 0.232508006090133 
2197	 0.232247501855708 
2198	 0.231467808262366 
2199	 0.231608127438321 
2200	 0.231238582364247 
2201	 0.230875079857537 
2202	 0.230920046002167 
2203	 0.230990896096038 
2204	 0.231221005376566 
2205	 0.231185607641294 
2206	 0.230813035227951 
2207	 0.230149319038486 
2208	 0.229760756950517 
2209	 0.229354557070181 
2210	 0.229233606640428 
2211	 0.229402773831799 
2212	 0.229568774260153 
2213	 0.229431603257816 
2214	 0.228893698215471 
2215	 0.22855005598238 
2216	 0.22833966046409 
2217	 0.22847644851994 
2218	 0.228443923062082 
2219	 0.228239766639764 
2220	 0.228505312612931 
2221	 0.228456516724939 
2222	 0.228232721898049 
2223	 0.22832615397905 
2224	 0.227937580676058 
2225	 0.227239986864294 
2226	 0.227267303035049 
2227	 0.228105435645243 
2228	 0.22838653640322 
2229	 0.228113058114468 
2230	 0.227915131980631 
2231	 0.227614604286189 
2232	 0.226184133373125 
2233	 0.226082381665772 
2234	 0.226873171629283 
2235	 0.227551724313009 
2236	 0.227751219330551 
2237	 0.227640798275582 
2238	 0.227203004033329 
2239	 0.226751594312276 
2240	 0.226883473463854 
2241	 0.22688527817757 
2242	 0.226727426410496 
2243	 0.226232680547119 
2244	 0.225167220971749 
2245	 0.224710078726307 
2246	 0.225211522211214 
2247	 0.225545531838881 
2248	 0.22548376618022 
2249	 0.225222649542111 
2250	 0.224580448154179 
2251	 0.223981186477807 
2252	 0.224218125296817 
2253	 0.225146879372538 
2254	 0.225918354204778 
2255	 0.226094631004794 
2256	 0.226160416152173 
2257	 0.226032463748485 
2258	 0.225910765692498 
2259	 0.225373756990684 
2260	 0.225248788104094 
2261	 0.225747221121948 
2262	 0.22557267737109 
2263	 0.225180137508361 
2264	 0.225570045500049 
2265	 0.226249339777059 
2266	 0.226038763159263 
2267	 0.226019082462678 
2268	 0.226428637523438 
2269	 0.225433804282589 
2270	 0.22540849410348 
2271	 0.226060584681915 
2272	 0.225274414850369 
2273	 0.225268245749066 
2274	 0.225466332081386 
2275	 0.225420743290094 
2276	 0.225764889296673 
2277	 0.225958952488734 
2278	 0.226184427285506 
2279	 0.226279656694164 
2280	 0.226241116985476 
2281	 0.225559507188316 
2282	 0.224014336129775 
2283	 0.222913633283143 
2284	 0.22260046841907 
2285	 0.222679430275667 
2286	 0.222943711499927 
2287	 0.223983347673915 
2288	 0.22464734200568 
2289	 0.224988812674784 
2290	 0.225241214293367 
2291	 0.22494988962882 
2292	 0.224255392573196 
2293	 0.223558852178939 
2294	 0.223924166456258 
2295	 0.224278724069337 
2296	 0.224413706893821 
2297	 0.225267530582754 
2298	 0.224540614292663 
2299	 0.223959503554007 
2300	 0.224606509671741 
2301	 0.223789856779487 
2302	 0.223443116379755 
2303	 0.223547689812554 
2304	 0.223243217345579 
2305	 0.223678257962929 
2306	 0.223875896847045 
2307	 0.223900086728441 
2308	 0.223734061342368 
2309	 0.223623922130278 
2310	 0.223250368045445 
2311	 0.222808438770855 
2312	 0.223019536565233 
2313	 0.221798479408183 
2314	 0.22073955020459 
2315	 0.221284339353187 
2316	 0.222110055458997 
2317	 0.22370692322606 
2318	 0.225074147454257 
2319	 0.224631724114518 
2320	 0.223540601596652 
2321	 0.22305902345378 
2322	 0.222173866759418 
2323	 0.221952229236478 
2324	 0.222709724054691 
2325	 0.22312369400855 
2326	 0.22208295388428 
2327	 0.222811540724899 
2328	 0.223307160193576 
2329	 0.223545932672106 
2330	 0.225119534280923 
2331	 0.225283425172253 
2332	 0.225223173362977 
2333	 0.225483158528515 
2334	 0.224229061758173 
2335	 0.222691805009693 
2336	 0.221395067738229 
2337	 0.220571023835135 
2338	 0.220174416159377 
2339	 0.220670271377988 
2340	 0.222150974105386 
2341	 0.222508641177054 
2342	 0.222644329844245 
2343	 0.223160995707709 
2344	 0.222407697797372 
2345	 0.221138627000375 
2346	 0.220215497837482 
2347	 0.220040361701774 
2348	 0.221473894342319 
2349	 0.22202536784429 
2350	 0.222391909189419 
2351	 0.223639511666533 
2352	 0.222659578771828 
2353	 0.22137741612234 
2354	 0.221680079607016 
2355	 0.222342170689356 
2356	 0.22373370224951 
2357	 0.225510643549618 
2358	 0.225686386349262 
2359	 0.224091272581961 
2360	 0.221328886013032 
2361	 0.219294971234507 
2362	 0.21906641335049 
2363	 0.219634254384224 
2364	 0.220834491801524 
2365	 0.220311984467038 
2366	 0.219425755633218 
2367	 0.219141113566167 
2368	 0.216824770573786 
2369	 0.21523814443846 
2370	 0.216465305489715 
2371	 0.218554793640012 
2372	 0.219361864461557 
2373	 0.22204183882788 
2374	 0.222802566281511 
2375	 0.220228350594194 
2376	 0.219068020217857 
2377	 0.218915998145788 
2378	 0.218574055432965 
2379	 0.217319900095899 
2380	 0.218228573479635 
2381	 0.219925425647255 
2382	 0.2218107746157 
2383	 0.226048650048571 
2384	 0.227499941951606 
2385	 0.229167168236103 
2386	 0.229230106886179 
2387	 0.225860395318164 
2388	 0.224644996424263 
2389	 0.222667171653342 
2390	 0.221360737571805 
2391	 0.222395769412922 
2392	 0.2227432003923 
2393	 0.222171670150674 
2394	 0.222464790224018 
2395	 0.223889795717138 
2396	 0.223205646473278 
2397	 0.221642741063813 
2398	 0.220953102961619 
2399	 0.218033151834458 
2400	 0.217272948346447 
2401	 0.218985299122804 
2402	 0.220276764537829 
2403	 0.21795591613765 
2404	 0.218264148776851 
2405	 0.218765478577632 
2406	 0.218701988840635 
2407	 0.222003239221894 
2408	 0.227163296967009 
2409	 0.228645430208049 
2410	 0.225561687282176 
2411	 0.222758134141084 
2412	 0.217032144814476 
2413	 0.211335911776146 
2414	 0.211460626113913 
2415	 0.210619262151006 
2416	 0.209238100296398 
2417	 0.209572513467457 
2418	 0.211699550874545 
2419	 0.214368041159918 
2420	 0.216926309678899 
2421	 0.218014651708938 
2422	 0.214315355900548 
2423	 0.212127482370301 
2424	 0.211436902310809 
2425	 0.212512747435879 
2426	 0.216185862121156 
2427	 0.220326554688861 
2428	 0.225002768836236 
2429	 0.226328231092953 
2430	 0.228743919048048 
2431	 0.231132313087032 
2432	 0.22921101356594 
2433	 0.22617204444793 
2434	 0.224347681919075 
2435	 0.220504282917526 
2436	 0.221089097801842 
2437	 0.227844943398666 
2438	 0.228579035638503 
2439	 0.22574718539548 
2440	 0.223536629995123 
2441	 0.219627953702188 
2442	 0.217707528389338 
2443	 0.217919540167368 
2444	 0.217499148654598 
2445	 0.215662068257984 
2446	 0.212499472253803 
2447	 0.209407069302621 
2448	 0.207321224930861 
2449	 0.200837340901717 
2450	 0.201629212371871 
2451	 0.209357373864336 
2452	 0.213924701325285 
2453	 0.22612025518674 
2454	 0.227916980709782 
2455	 0.222305952610681 
2456	 0.218597697649721 
2457	 0.204937999404052 
2458	 0.20175089392884 
2459	 0.205070910116679 
2460	 0.20978477706045 
2461	 0.226452268986509 
2462	 0.22888009499454 
2463	 0.223366040742892 
2464	 0.219307864936432 
2465	 0.203001931111373 
2466	 0.198670071546801 
2467	 0.203282783776319 
2468	 0.204451148087497 
2469	 0.210107383097253 
2470	 0.215611779535207 
2471	 0.222797162718564 
2472	 0.225110470829408 
2473	 0.226724846642797 
2474	 0.220911986916974 
2475	 0.205784206433423 
2476	 0.198360809724767 
2477	 0.185242703735824 
2478	 0.17961061518628 
2479	 0.180018937559841 
2480	 0.181587380296995 
2481	 0.196515085149985 
2482	 0.199373555210545 
2483	 0.198025299871205 
2484	 0.199659308292048 
2485	 0.179649593888816 
2486	 0.220462689568239 
2487	 0.266447351456681 
2488	 0.265503000079916 
2489	 0.265492992677105 
2490	 0.2402439407864 
2491	 0.194859590681718 
2492	 0.205298942287576 
2493	 0.245786326696621 
2494	 0.240271622748495 
2495	 0.264148282936804 
2496	 0.270568511338241 
2497	 0.221780439508902 
2498	 0.219153341102318 
2499	 0.193601763578837 
2500	 0.182250098645412 
