Wavelength	ref00021.asd
350	 0.070750300806238 
351	 7.15838754700765E-02 
352	 0.071989865139488 
353	 0.072043157576455 
354	 7.23148046950992E-02 
355	 7.18775223907347E-02 
356	 7.09265914414579E-02 
357	 7.26215558647296E-02 
358	 7.33285958521794E-02 
359	 7.31624832664946E-02 
360	 7.32437851406466E-02 
361	 7.34609359812688E-02 
362	 0.073459615029133 
363	 0.073325123148398 
364	 7.34133827142445E-02 
365	 7.36616285074563E-02 
366	 7.38236015916149E-02 
367	 7.38605213307995E-02 
368	 7.40408593501257E-02 
369	 7.43961290503194E-02 
370	 7.45781021887664E-02 
371	 7.44798328080076E-02 
372	 7.50376070735359E-02 
373	 7.53579017121083E-02 
374	 7.53993534925031E-02 
375	 7.55588695056261E-02 
376	 7.58616789645628E-02 
377	 7.60240857254083E-02 
378	 7.60424467388327E-02 
379	 7.62715063227121E-02 
380	 7.66249421815297E-02 
381	 7.72485538391383E-02 
382	 7.80529885522751E-02 
383	 7.81975337176879E-02 
384	 7.85060871355717E-02 
385	 0.07885036010205 
386	 7.88405888090821E-02 
387	 7.93158272650883E-02 
388	 7.98987844440195E-02 
389	 8.03733956914103E-02 
390	 8.07898490712224E-02 
391	 0.081063385078064 
392	 0.081512112560964 
393	 8.22252756670777E-02 
394	 8.26105771784065E-02 
395	 8.31764153696995E-02 
396	 8.38040036182931E-02 
397	 8.42465843381932E-02 
398	 8.47986074857472E-02 
399	 8.52583821714594E-02 
400	 8.57200274517017E-02 
401	 8.64919730221197E-02 
402	 8.70584203156868E-02 
403	 8.76284114071285E-02 
404	 8.84181414330497E-02 
405	 8.94944037439392E-02 
406	 9.02485963820653E-02 
407	 9.09129980771294E-02 
408	 9.19217196606116E-02 
409	 0.093086303404373 
410	 9.41235037798139E-02 
411	 9.50247432848496E-02 
412	 9.60226595029822E-02 
413	 9.70798702199791E-02 
414	 9.81596222673483E-02 
415	 0.099249054334317 
416	 0.100392000409829 
417	 0.10157830733038 
418	 0.102668293361695 
419	 0.103579420675861 
420	 0.104695752280502 
421	 0.105910979435037 
422	 0.106958349356092 
423	 0.107534814231412 
424	 0.108619274122944 
425	 0.109802297146007 
426	 0.110731799823634 
427	 0.111709723351774 
428	 0.112732479220696 
429	 0.113676106610305 
430	 0.114411733671774 
431	 0.115057927926109 
432	 0.115560360514531 
433	 0.115996025889326 
434	 0.116537540556647 
435	 0.11692406898604 
436	 0.117316674817355 
437	 0.117811583501546 
438	 0.118239922029303 
439	 0.118620969323839 
440	 0.118957442997738 
441	 0.119250178450923 
442	 0.119501014676253 
443	 0.11969069693518 
444	 0.119832862182244 
445	 0.119974750481198 
446	 0.120205970909143 
447	 0.120437862809822 
448	 0.120587329200267 
449	 0.120653765390119 
450	 0.120772289107466 
451	 0.120898853647596 
452	 0.120950646060798 
453	 0.121150906781435 
454	 0.121353124790178 
455	 0.121470159925847 
456	 0.12152081695164 
457	 0.121593320916132 
458	 0.121637660128033 
459	 0.121614397207204 
460	 0.121607946467779 
461	 0.121652112803098 
462	 0.121679166786051 
463	 0.121597813743906 
464	 0.121636391529005 
465	 0.121710564414745 
466	 0.121770489456511 
467	 0.121872024671049 
468	 0.121896711688462 
469	 0.121856607724408 
470	 0.121798388631884 
471	 0.12173183741782 
472	 0.121679544182902 
473	 0.121627243215214 
474	 0.121541074586177 
475	 0.121480817265147 
476	 0.121440906035117 
477	 0.121395289842479 
478	 0.121290764280087 
479	 0.121278178568852 
480	 0.121261467491219 
481	 0.121121926394734 
482	 0.121079939965016 
483	 0.121090748309745 
484	 0.121178044124115 
485	 0.121425796399485 
486	 0.121555895002321 
487	 0.121531835926127 
488	 0.121394772395059 
489	 0.121215048319257 
490	 0.121112988226186 
491	 0.121123959623387 
492	 0.121209884244972 
493	 0.121198294891368 
494	 0.12117546938401 
495	 0.121175678728365 
496	 0.121143799032699 
497	 0.121198328002594 
498	 0.121289448759325 
499	 0.121355044237086 
500	 0.12143861380059 
501	 0.121552847897558 
502	 0.12164362602391 
503	 0.121634683595049 
504	 0.121662032826254 
505	 0.121641094409159 
506	 0.121586667269952 
507	 0.121719758440067 
508	 0.12184203826743 
509	 0.121919539649241 
510	 0.121975493970165 
511	 0.122042486972527 
512	 0.12214908996515 
513	 0.122263768232192 
514	 0.122318744665827 
515	 0.122525279841852 
516	 0.122842237247932 
517	 0.123151588395891 
518	 0.123282162745239 
519	 0.123311069084623 
520	 0.123322106449775 
521	 0.123397279804515 
522	 0.123562552420134 
523	 0.123742494019083 
524	 0.123900912380857 
525	 0.12405250104268 
526	 0.124362360918863 
527	 0.124674820133824 
528	 0.124819962790624 
529	 0.12480233952525 
530	 0.124860170415576 
531	 0.125055745808793 
532	 0.125341464980434 
533	 0.125717605513947 
534	 0.125978942319232 
535	 0.126084198976367 
536	 0.126288015528078 
537	 0.126533594040801 
538	 0.126809301297563 
539	 0.127097663848413 
540	 0.127318310860127 
541	 0.127634681698586 
542	 0.127979934634244 
543	 0.128110166138101 
544	 0.128329632201842 
545	 0.128638770344479 
546	 0.128968693656247 
547	 0.129203911660084 
548	 0.129529179482984 
549	 0.12987206360996 
550	 0.130100259745299 
551	 0.13044492004514 
552	 0.130781985719552 
553	 0.131050096530896 
554	 0.131294150823124 
555	 0.131573934939514 
556	 0.131894391319069 
557	 0.132243793307424 
558	 0.132614923496482 
559	 0.132985357047594 
560	 0.133323283324103 
561	 0.133611202609886 
562	 0.133989448126557 
563	 0.134343903777707 
564	 0.13464080612203 
565	 0.135047492919453 
566	 0.135410498852655 
567	 0.135732735194125 
568	 0.13606989329873 
569	 0.136452989984835 
570	 0.136899716725111 
571	 0.137380400730831 
572	 0.137826386211453 
573	 0.138238348531798 
574	 0.138648581725437 
575	 0.139072736057026 
576	 0.139474367163076 
577	 0.139699381686394 
578	 0.139847828857494 
579	 0.140115188416233 
580	 0.140346277933537 
581	 0.140623501152144 
582	 0.140975376993487 
583	 0.141336284539973 
584	 0.141684988583751 
585	 0.14205325099948 
586	 0.142456123233285 
587	 0.142760649067895 
588	 0.143282916923075 
589	 0.144065516018351 
590	 0.144902691896216 
591	 0.145582320135369 
592	 0.146238494157484 
593	 0.146940976368919 
594	 0.147499188083313 
595	 0.148007246317576 
596	 0.148484262037025 
597	 0.148919615465484 
598	 0.149250486502998 
599	 0.149539742424533 
600	 0.149852537375462 
601	 0.150243537183882 
602	 0.150621002169042 
603	 0.151034559764935 
604	 0.151526502602864 
605	 0.152053909096764 
606	 0.15260325152893 
607	 0.153164616747861 
608	 0.153735784473573 
609	 0.154379839671649 
610	 0.154927008576565 
611	 0.155381320613505 
612	 0.156018993232092 
613	 0.156583709286389 
614	 0.15707073164705 
615	 0.157546677757204 
616	 0.158103192900157 
617	 0.158495313848503 
618	 0.15873290386476 
619	 0.159012224273675 
620	 0.159293899971707 
621	 0.159583764867953 
622	 0.159875042899062 
623	 0.160124338025553 
624	 0.160452505250576 
625	 0.160749212801614 
626	 0.16088465930441 
627	 0.161085634215564 
628	 0.161309147345651 
629	 0.161538401728371 
630	 0.16178580552104 
631	 0.161942772484505 
632	 0.162037901511116 
633	 0.162130679002013 
634	 0.16228260110569 
635	 0.162442160272415 
636	 0.162573951765407 
637	 0.162662536272637 
638	 0.162789574502662 
639	 0.162861297457358 
640	 0.162889635347955 
641	 0.16303418849126 
642	 0.163170051312665 
643	 0.163184717832024 
644	 0.163085377487103 
645	 0.163249302143206 
646	 0.163336757353417 
647	 0.163309494450189 
648	 0.163322802848263 
649	 0.163415313575308 
650	 0.163510608252667 
651	 0.163565885354576 
652	 0.16362668565057 
653	 0.163558352441281 
654	 0.163474729384885 
655	 0.163562787932937 
656	 0.164013278922689 
657	 0.164282584515522 
658	 0.164202987566638 
659	 0.16402302782562 
660	 0.164028014038617 
661	 0.164042431942494 
662	 0.163952659103765 
663	 0.163884064072865 
664	 0.163946609419679 
665	 0.163984146148273 
666	 0.163841498896599 
667	 0.163887754516415 
668	 0.163917391216173 
669	 0.163884263051044 
670	 0.163905041649066 
671	 0.163880079791896 
672	 0.16396824247729 
673	 0.16417266789402 
674	 0.164009616422937 
675	 0.16400045243086 
676	 0.164122654852737 
677	 0.1641798912231 
678	 0.164313328809999 
679	 0.164438786040745 
680	 0.164542611341002 
681	 0.164692650689448 
682	 0.164781882136707 
683	 0.164945581206733 
684	 0.165229841164483 
685	 0.165282404896074 
686	 0.165654873408208 
687	 0.166320872046153 
688	 0.166916209481277 
689	 0.167511127236336 
690	 0.167816554445459 
691	 0.167935307554023 
692	 0.168320358807597 
693	 0.168726205505264 
694	 0.169123373053664 
695	 0.169551082542425 
696	 0.170144884867289 
697	 0.170723453693716 
698	 0.171230745310479 
699	 0.171675778885451 
700	 0.172096371786435 
701	 0.172615040733198 
702	 0.173181592627211 
703	 0.173546824097644 
704	 0.174008824745099 
705	 0.174421580510385 
706	 0.174706605858063 
707	 0.175228771351018 
708	 0.175696276609619 
709	 0.176087763286743 
710	 0.176498716673294 
711	 0.176905522847508 
712	 0.17732013020277 
713	 0.177692632465264 
714	 0.177910032338374 
715	 0.178243176113958 
716	 0.178487491821566 
717	 0.178559436888412 
718	 0.179056962419739 
719	 0.179625452181506 
720	 0.180138489848837 
721	 0.180585053572949 
722	 0.180815755680254 
723	 0.181124088565854 
724	 0.181554685000097 
725	 0.181829635152842 
726	 0.18212259837446 
727	 0.182439048312078 
728	 0.18278250439132 
729	 0.183215957944271 
730	 0.183604131952641 
731	 0.183970591215653 
732	 0.184370279816302 
733	 0.184658377751548 
734	 0.184827322451304 
735	 0.185022681631678 
736	 0.185474701800537 
737	 0.1856300514374 
738	 0.185815153641636 
739	 0.186230678965322 
740	 0.186483731168164 
741	 0.18670993723634 
742	 0.186894350006233 
743	 0.187020694835085 
744	 0.18726407427698 
745	 0.187498862812463 
746	 0.187677643729278 
747	 0.187824569465679 
748	 0.187956799616543 
749	 0.188127307819508 
750	 0.188319433643049 
751	 0.188395247760797 
752	 0.188496954823779 
753	 0.188639628912605 
754	 0.188780516139522 
755	 0.18881783863214 
756	 0.188843463100038 
757	 0.188719327386087 
758	 0.188328664530892 
759	 0.189057115544139 
760	 0.190718767226941 
761	 0.19237112237562 
762	 0.191808346728591 
763	 0.191868770634376 
764	 0.19199431975819 
765	 0.191567906295259 
766	 0.19117982079329 
767	 0.190882431251658 
768	 0.190753471579422 
769	 0.190813253947134 
770	 0.190792517596032 
771	 0.19089279690763 
772	 0.191088516671123 
773	 0.191163213107407 
774	 0.19123424981754 
775	 0.191377438025072 
776	 0.191558385105089 
777	 0.191566419573552 
778	 0.191678650530412 
779	 0.191867394693383 
780	 0.19201604162575 
781	 0.192017084562547 
782	 0.192136873031489 
783	 0.192376799995485 
784	 0.192575868026924 
785	 0.192588403688026 
786	 0.192637118380483 
787	 0.192777321834818 
788	 0.192858861468042 
789	 0.193064808324894 
790	 0.193221367210434 
791	 0.19324960145681 
792	 0.193400871602699 
793	 0.193632488697614 
794	 0.193844786164583 
795	 0.193950189803903 
796	 0.194013335357602 
797	 0.194024531365889 
798	 0.194126595753532 
799	 0.194459420871827 
800	 0.194465138202315 
801	 0.194463493462848 
802	 0.194620775970896 
803	 0.194820780039481 
804	 0.194970664993211 
805	 0.195115861776452 
806	 0.195262731410004 
807	 0.195263804087884 
808	 0.195412407209557 
809	 0.195632733933504 
810	 0.195740306773947 
811	 0.195626540749431 
812	 0.195670026145208 
813	 0.19586102527006 
814	 0.195962240055397 
815	 0.195990317248034 
816	 0.196172726308267 
817	 0.19649767781102 
818	 0.196675458411769 
819	 0.19659865740478 
820	 0.19651855293832 
821	 0.196657387756396 
822	 0.197087539913079 
823	 0.197463589089375 
824	 0.197449876338431 
825	 0.197088439347198 
826	 0.197383932010037 
827	 0.197796938461261 
828	 0.198081530930675 
829	 0.198152356672645 
830	 0.198181931710405 
831	 0.198260701379746 
832	 0.198404092130871 
833	 0.198571129429211 
834	 0.198784038059179 
835	 0.198869493174949 
836	 0.198910456377026 
837	 0.199273260624497 
838	 0.199366554048497 
839	 0.199453477027678 
840	 0.199722547140356 
841	 0.199885160643674 
842	 0.19999375594984 
843	 0.200143912099538 
844	 0.200354015224433 
845	 0.200322692640563 
846	 0.20041411507329 
847	 0.200575510697615 
848	 0.20063852454475 
849	 0.200927676960019 
850	 0.201158150351762 
851	 0.201241687187669 
852	 0.201302494194347 
853	 0.201659247136018 
854	 0.202030996796276 
855	 0.202061790782631 
856	 0.201513166449511 
857	 0.20147550315397 
858	 0.201795896621056 
859	 0.202143555341672 
860	 0.202278119481019 
861	 0.202304926051203 
862	 0.202302183387271 
863	 0.202348855173802 
864	 0.202503701762903 
865	 0.203018974180107 
866	 0.203524480292191 
867	 0.20354000958497 
868	 0.203084854071466 
869	 0.202912134333482 
870	 0.203033547891966 
871	 0.203137061509571 
872	 0.203404008735344 
873	 0.203702735195385 
874	 0.203858678328829 
875	 0.203776571872956 
876	 0.204037364887162 
877	 0.204252886344045 
878	 0.204255621125196 
879	 0.204212122959762 
880	 0.204277102264897 
881	 0.204343594033025 
882	 0.204386586406967 
883	 0.204541652034732 
884	 0.204716463148076 
885	 0.204760269928592 
886	 0.204677096369077 
887	 0.204757334332967 
888	 0.204807549034035 
889	 0.204799452324619 
890	 0.204745914301604 
891	 0.204628203973559 
892	 0.204873836628269 
893	 0.205130024651241 
894	 0.205034614992466 
895	 0.205191029742946 
896	 0.205243031061032 
897	 0.20536938002033 
898	 0.205808229939094 
899	 0.206027093788965 
900	 0.205794447010047 
901	 0.205288600566599 
902	 0.204926665974777 
903	 0.205061594668761 
904	 0.20494830046342 
905	 0.204838324829617 
906	 0.20543003446507 
907	 0.205802007045476 
908	 0.205864164474419 
909	 0.205823181707068 
910	 0.205980550943812 
911	 0.205591890900831 
912	 0.205541529189815 
913	 0.205926843552623 
914	 0.206024726765871 
915	 0.206736263962317 
916	 0.206496431713325 
917	 0.205507633995779 
918	 0.205981370630243 
919	 0.205828517435656 
920	 0.205713947955669 
921	 0.205995869643889 
922	 0.206127288774774 
923	 0.205948151633974 
924	 0.205842167200829 
925	 0.205933870911831 
926	 0.205795195745308 
927	 0.205689401324774 
928	 0.205808910875186 
929	 0.206092122405407 
930	 0.206042023724774 
931	 0.207138081061125 
932	 0.208505992584336 
933	 0.208801894984485 
934	 0.207561640043354 
935	 0.20644403759149 
936	 0.205548130648919 
937	 0.204736509494156 
938	 0.204348061415872 
939	 0.204406594176673 
940	 0.204324811473414 
941	 0.204109745551386 
942	 0.205061083064132 
943	 0.206236565002631 
944	 0.206394233491135 
945	 0.2055052267134 
946	 0.206220422771081 
947	 0.205961387370404 
948	 0.205047940229027 
949	 0.204598426856736 
950	 0.205566497531537 
951	 0.205655975702106 
952	 0.205061286204866 
953	 0.204771268151466 
954	 0.205855531816045 
955	 0.206444099262165 
956	 0.20641728249534 
957	 0.206109730565794 
958	 0.205759776885459 
959	 0.204863136329895 
960	 0.205341984905508 
961	 0.207236431106696 
962	 0.206509564631754 
963	 0.206229711698702 
964	 0.206365291379056 
965	 0.206614815551512 
966	 0.207350931265195 
967	 0.206860517356193 
968	 0.20666223154076 
969	 0.207014473614133 
970	 0.205427681539381 
971	 0.206390417853538 
972	 0.207819211777322 
973	 0.208168120550915 
974	 0.208594203333192 
975	 0.208218851781118 
976	 0.20825256040004 
977	 0.209032750474817 
978	 0.209305547321773 
979	 0.208514116217888 
980	 0.208151123333495 
981	 0.208474562460717 
982	 0.208237820015264 
983	 0.208939783093795 
984	 0.209118552527632 
985	 0.208672572217375 
986	 0.208921611724102 
987	 0.209207702400711 
988	 0.209451673881233 
989	 0.209870861451061 
990	 0.210657575716975 
991	 0.210720364127607 
992	 0.210463827489627 
993	 0.210043703515594 
994	 0.209555477179149 
995	 0.209890810104184 
996	 0.211051060583707 
997	 0.211476666679071 
998	 0.210107111898565 
999	 0.210818126694238 
1000	 0.210431582335538 
1001	 0.212871442101722 
1002	 0.213022507142225 
1003	 0.21318853405565 
1004	 0.213347842424557 
1005	 0.213501643527314 
1006	 0.213794288092326 
1007	 0.213928134614453 
1008	 0.21391913718285 
1009	 0.214010706975869 
1010	 0.214103415574562 
1011	 0.214217560108358 
1012	 0.214266265440899 
1013	 0.214274159863895 
1014	 0.214320324963835 
1015	 0.214306966186747 
1016	 0.214394544069559 
1017	 0.214540467894496 
1018	 0.214648128583442 
1019	 0.214745343438415 
1020	 0.214849685207153 
1021	 0.214984344602748 
1022	 0.215047467704299 
1023	 0.215103802293437 
1024	 0.215086953673198 
1025	 0.214970992565757 
1026	 0.214940714458389 
1027	 0.214972155628405 
1028	 0.214979621489183 
1029	 0.214975851861251 
1030	 0.214962975179838 
1031	 0.214989786368666 
1032	 0.215004383203176 
1033	 0.214994119513066 
1034	 0.215014798844029 
1035	 0.215023001811245 
1036	 0.214968714033335 
1037	 0.214949842820527 
1038	 0.214964097400514 
1039	 0.214998568655532 
1040	 0.214968842104681 
1041	 0.215004370170967 
1042	 0.215133446158755 
1043	 0.215174421936637 
1044	 0.215183444980162 
1045	 0.215204030178196 
1046	 0.21516660814421 
1047	 0.215201408119861 
1048	 0.215343633935097 
1049	 0.215446188305289 
1050	 0.215571683437629 
1051	 0.215707070143568 
1052	 0.215862491426293 
1053	 0.216020939559454 
1054	 0.216220037445762 
1055	 0.216353493556662 
1056	 0.216470702024604 
1057	 0.216654649877245 
1058	 0.21685264928286 
1059	 0.216995250873342 
1060	 0.217263794543792 
1061	 0.217572700253032 
1062	 0.217699011957813 
1063	 0.217929538640316 
1064	 0.218124996588721 
1065	 0.218276120115707 
1066	 0.218309844370987 
1067	 0.218544817953031 
1068	 0.21878656310925 
1069	 0.218931615894927 
1070	 0.219140076083209 
1071	 0.219324913514812 
1072	 0.219397553437287 
1073	 0.219574794224312 
1074	 0.21978264499168 
1075	 0.21992887648212 
1076	 0.220134839148826 
1077	 0.220243600947372 
1078	 0.220329204273104 
1079	 0.220501889398709 
1080	 0.220652161258923 
1081	 0.220808435737963 
1082	 0.221030932883177 
1083	 0.221227121323164 
1084	 0.221280801707109 
1085	 0.221320121087546 
1086	 0.221389743843447 
1087	 0.221486592107742 
1088	 0.221599760842013 
1089	 0.22167662364064 
1090	 0.221763200633047 
1091	 0.221874418766857 
1092	 0.221889775025882 
1093	 0.221897075332043 
1094	 0.22197890450715 
1095	 0.221947045304981 
1096	 0.221945744449368 
1097	 0.222009528451631 
1098	 0.222072425398268 
1099	 0.222113660891933 
1100	 0.222147822862181 
1101	 0.222198180614569 
1102	 0.222189605051067 
1103	 0.222068329965346 
1104	 0.221859900381377 
1105	 0.221729289889105 
1106	 0.221650523450712 
1107	 0.221547837889955 
1108	 0.221449664444753 
1109	 0.221396409362518 
1110	 0.221249440988875 
1111	 0.221021581455932 
1112	 0.220711367589049 
1113	 0.220488137811487 
1114	 0.220128964105714 
1115	 0.219820173536266 
1116	 0.219604467821367 
1117	 0.219371753849042 
1118	 0.219096915903545 
1119	 0.2189604818033 
1120	 0.218960887290372 
1121	 0.219051434019998 
1122	 0.219052475522506 
1123	 0.218981674892569 
1124	 0.218879379365827 
1125	 0.218718351307949 
1126	 0.218736695358102 
1127	 0.218871279446466 
1128	 0.219014508972411 
1129	 0.219312237477719 
1130	 0.219495855837149 
1131	 0.219625499528818 
1132	 0.219716638448293 
1133	 0.219822108610893 
1134	 0.219824659821399 
1135	 0.219707807902355 
1136	 0.219722096723609 
1137	 0.219746826551849 
1138	 0.219724893794795 
1139	 0.219637368510507 
1140	 0.219471804464756 
1141	 0.219293129135729 
1142	 0.219043713653731 
1143	 0.218894465181251 
1144	 0.218854033355644 
1145	 0.218765521767297 
1146	 0.218653067701847 
1147	 0.218600230733473 
1148	 0.218527754174449 
1149	 0.218566288649676 
1150	 0.218691481831421 
1151	 0.218808041996005 
1152	 0.218982337177535 
1153	 0.219149245174248 
1154	 0.219261804538422 
1155	 0.219439389743375 
1156	 0.219621666660838 
1157	 0.219759872194051 
1158	 0.219946877592289 
1159	 0.220097438584714 
1160	 0.220187682824455 
1161	 0.220226464530987 
1162	 0.220301759189129 
1163	 0.220329468666921 
1164	 0.220403277556526 
1165	 0.220549397346456 
1166	 0.22063159867535 
1167	 0.220718564004997 
1168	 0.220759285862283 
1169	 0.220762209728511 
1170	 0.220741991977262 
1171	 0.220690639500491 
1172	 0.220633826556163 
1173	 0.220662764646688 
1174	 0.220726394106346 
1175	 0.22082431551173 
1176	 0.220857892401739 
1177	 0.220912339711799 
1178	 0.220970681335579 
1179	 0.220965588266136 
1180	 0.220913678290027 
1181	 0.220943044325402 
1182	 0.220939729432278 
1183	 0.220959254070198 
1184	 0.221071328822873 
1185	 0.221131884850666 
1186	 0.221143123906498 
1187	 0.221172776122289 
1188	 0.221203777478039 
1189	 0.221258535082899 
1190	 0.221321615332524 
1191	 0.22138586182854 
1192	 0.221439059855106 
1193	 0.221485098918333 
1194	 0.22149936992835 
1195	 0.221453679902149 
1196	 0.221451872190873 
1197	 0.221429226476785 
1198	 0.221466856581799 
1199	 0.221599286883078 
1200	 0.221620710175286 
1201	 0.221579346122568 
1202	 0.221627214848323 
1203	 0.221629422428683 
1204	 0.221676503151667 
1205	 0.221837876765146 
1206	 0.221959513722171 
1207	 0.222076805273214 
1208	 0.222168385889083 
1209	 0.222227516301563 
1210	 0.222333309238509 
1211	 0.222459780869964 
1212	 0.222538806405329 
1213	 0.2226314371211 
1214	 0.222769075044271 
1215	 0.222858538518651 
1216	 0.222890343355653 
1217	 0.22296623565355 
1218	 0.223064740148734 
1219	 0.223143064734811 
1220	 0.223222417082503 
1221	 0.223300993387864 
1222	 0.223371454002175 
1223	 0.223444338163698 
1224	 0.223501316166681 
1225	 0.223585838880019 
1226	 0.223698562596136 
1227	 0.22378615511728 
1228	 0.223895659211398 
1229	 0.223970075594559 
1230	 0.224002644120565 
1231	 0.224112779703788 
1232	 0.224194799252364 
1233	 0.224286998925929 
1234	 0.224378186700489 
1235	 0.224467203438009 
1236	 0.224554463948804 
1237	 0.224666347264141 
1238	 0.224735031577881 
1239	 0.224791856606833 
1240	 0.224820337911087 
1241	 0.224778790793499 
1242	 0.22480783022035 
1243	 0.224859639499242 
1244	 0.224899745746322 
1245	 0.224978268310367 
1246	 0.225035946367332 
1247	 0.225053393121104 
1248	 0.225095746254646 
1249	 0.225193726911078 
1250	 0.225237228599514 
1251	 0.225242161422515 
1252	 0.225257477243329 
1253	 0.22526874902996 
1254	 0.225235294998204 
1255	 0.225246595459121 
1256	 0.225287965544446 
1257	 0.225329498760956 
1258	 0.225418463056635 
1259	 0.225412760167329 
1260	 0.225348071128569 
1261	 0.225336685787935 
1262	 0.225265356667099 
1263	 0.225254818457767 
1264	 0.225335962350177 
1265	 0.225374428705606 
1266	 0.22536865594913 
1267	 0.225418453137889 
1268	 0.225519211566777 
1269	 0.225593295467118 
1270	 0.225677679411661 
1271	 0.225763998937218 
1272	 0.225797334688327 
1273	 0.225891856484143 
1274	 0.226010965409526 
1275	 0.226159619317494 
1276	 0.226327337250637 
1277	 0.226549199029349 
1278	 0.226716371721198 
1279	 0.226875361423937 
1280	 0.22704647321547 
1281	 0.227210784134451 
1282	 0.227361685020458 
1283	 0.227510061553869 
1284	 0.227674230387316 
1285	 0.227803216103094 
1286	 0.227981914768501 
1287	 0.228243638546855 
1288	 0.228432772374507 
1289	 0.228602559861042 
1290	 0.228768643553135 
1291	 0.228915436444033 
1292	 0.229036721171852 
1293	 0.229148979843178 
1294	 0.22925200402196 
1295	 0.229312481411418 
1296	 0.229378955931873 
1297	 0.229457485667507 
1298	 0.229539109374156 
1299	 0.229643183350342 
1300	 0.229778954130067 
1301	 0.229859929222233 
1302	 0.229961782554779 
1303	 0.229990825199156 
1304	 0.229957744184631 
1305	 0.229917041749487 
1306	 0.229804439598595 
1307	 0.229759901157726 
1308	 0.229716860164973 
1309	 0.229690656947398 
1310	 0.22976700448346 
1311	 0.22972157111519 
1312	 0.22958248225522 
1313	 0.229493924356528 
1314	 0.229353808013055 
1315	 0.229249618027283 
1316	 0.229232151305822 
1317	 0.229152056716782 
1318	 0.229026928480895 
1319	 0.228909147850239 
1320	 0.228779394330896 
1321	 0.228640909970607 
1322	 0.228464364903063 
1323	 0.228272699794368 
1324	 0.228066084451236 
1325	 0.227800583219407 
1326	 0.22757355651766 
1327	 0.227348715200485 
1328	 0.227133159992269 
1329	 0.226942399829261 
1330	 0.226701195818504 
1331	 0.226398532002483 
1332	 0.226208795164619 
1333	 0.226081916824327 
1334	 0.225893275994853 
1335	 0.225768519192402 
1336	 0.225598378812088 
1337	 0.225343100597306 
1338	 0.225094499859869 
1339	 0.224870074864278 
1340	 0.224605322206629 
1341	 0.22424175321186 
1342	 0.223874843546503 
1343	 0.223510823394154 
1344	 0.223023898760797 
1345	 0.222315704157672 
1346	 0.221496075599146 
1347	 0.220826373181587 
1348	 0.220068552216991 
1349	 0.219249791634088 
1350	 0.21869898489607 
1351	 0.217707813407431 
1352	 0.21603478345296 
1353	 0.214458242651752 
1354	 0.212988856680287 
1355	 0.211104157288868 
1356	 0.209421320197198 
1357	 0.207815109740675 
1358	 0.209662453579664 
1359	 0.209289022143232 
1360	 0.211629887348639 
1361	 0.212278758944588 
1362	 0.204103118094784 
1363	 0.201047282588336 
1364	 0.20809292554787 
1365	 0.206243121190522 
1366	 0.200008078989467 
1367	 0.20000928550134 
1368	 0.20005362246841 
1369	 0.199535187571456 
1370	 0.20264456532195 
1371	 0.203514031049059 
1372	 0.202892281609968 
1373	 0.200721831203991 
1374	 0.195605993290943 
1375	 0.196612980497855 
1376	 0.192999543418699 
1377	 0.188781112240872 
1378	 0.187829294435183 
1379	 0.188059392792365 
1380	 0.189446848573236 
1381	 0.194254526278644 
1382	 0.194892445862078 
1383	 0.194101929964348 
1384	 0.193994077637948 
1385	 0.192823582097335 
1386	 0.192122589595267 
1387	 0.192425143165368 
1388	 0.192024330978845 
1389	 0.190084528651712 
1390	 0.189980369667193 
1391	 0.190896143620805 
1392	 0.191291113032974 
1393	 0.191552944585941 
1394	 0.19278637531196 
1395	 0.194939024169382 
1396	 0.195721118653674 
1397	 0.197365606249352 
1398	 0.197322766144205 
1399	 0.194719382812841 
1400	 0.19384297765056 
1401	 0.19298057600942 
1402	 0.192721906557886 
1403	 0.193666078497661 
1404	 0.194117764647626 
1405	 0.194707612687632 
1406	 0.194967136683993 
1407	 0.194494820562946 
1408	 0.19384743666223 
1409	 0.193366419527305 
1410	 0.1930243570559 
1411	 0.19346362750179 
1412	 0.194464678924812 
1413	 0.195144347054042 
1414	 0.196163001531586 
1415	 0.196547072078609 
1416	 0.196716984908351 
1417	 0.196863887557693 
1418	 0.196752542044668 
1419	 0.196817614440581 
1420	 0.196839344726968 
1421	 0.197038549061461 
1422	 0.197351040821985 
1423	 0.19760961684375 
1424	 0.197923175310631 
1425	 0.19826431292203 
1426	 0.198740589160668 
1427	 0.198908899032208 
1428	 0.199046694700675 
1429	 0.199060539065284 
1430	 0.198676598766883 
1431	 0.198605159099583 
1432	 0.198672690079058 
1433	 0.198727379905924 
1434	 0.19877646238285 
1435	 0.199007883431475 
1436	 0.199474486733654 
1437	 0.199728725782167 
1438	 0.200023779400988 
1439	 0.200245471305584 
1440	 0.200173695713916 
1441	 0.200248781386731 
1442	 0.200330513019463 
1443	 0.200625349497385 
1444	 0.200776841875696 
1445	 0.201041247356527 
1446	 0.201370158037537 
1447	 0.201677514167209 
1448	 0.20203919415219 
1449	 0.202490113606792 
1450	 0.202831835856484 
1451	 0.203125000039679 
1452	 0.20342751348226 
1453	 0.203747167624804 
1454	 0.203953297729208 
1455	 0.204161469431332 
1456	 0.20428000015228 
1457	 0.20430239671773 
1458	 0.204338999241916 
1459	 0.204346763886534 
1460	 0.204347502170147 
1461	 0.204289108006131 
1462	 0.204310343914548 
1463	 0.204387194696872 
1464	 0.20441904014718 
1465	 0.2045022415157 
1466	 0.204527677690833 
1467	 0.204415734695226 
1468	 0.204445872086051 
1469	 0.20447893501798 
1470	 0.204628043383267 
1471	 0.204932518000594 
1472	 0.205199130638521 
1473	 0.20549034637659 
1474	 0.205810650420352 
1475	 0.20619462267449 
1476	 0.206444650035295 
1477	 0.206590738988723 
1478	 0.206861904441111 
1479	 0.207114575440928 
1480	 0.20737560746197 
1481	 0.207672945901006 
1482	 0.208036751272343 
1483	 0.208412335583659 
1484	 0.208778815925305 
1485	 0.209274564104588 
1486	 0.209672637636285 
1487	 0.210010666754942 
1488	 0.210258950998501 
1489	 0.210545207339576 
1490	 0.210763873888547 
1491	 0.211117849904406 
1492	 0.211490650089929 
1493	 0.211767259886812 
1494	 0.212134869960768 
1495	 0.212413872329184 
1496	 0.212617408243718 
1497	 0.212844268966192 
1498	 0.213094835297245 
1499	 0.213305156067618 
1500	 0.213458916944067 
1501	 0.213671083212931 
1502	 0.213904790928426 
1503	 0.214146280412245 
1504	 0.214434168129806 
1505	 0.214642055321447 
1506	 0.214812367893751 
1507	 0.215007398080532 
1508	 0.21516115831541 
1509	 0.215354204336771 
1510	 0.215599493028726 
1511	 0.215796450241768 
1512	 0.215959879113973 
1513	 0.21616042758439 
1514	 0.216371285914883 
1515	 0.216571728586058 
1516	 0.216785559148097 
1517	 0.216997681401145 
1518	 0.217194098602511 
1519	 0.217409429222623 
1520	 0.217683666083344 
1521	 0.217864668114234 
1522	 0.217976277668348 
1523	 0.218148110166632 
1524	 0.218292510475106 
1525	 0.218457748801186 
1526	 0.21867223815327 
1527	 0.218878394424424 
1528	 0.219074354167589 
1529	 0.219271753494787 
1530	 0.219514784609226 
1531	 0.21970383115704 
1532	 0.219832250631395 
1533	 0.21999866337591 
1534	 0.220166858322565 
1535	 0.220334740197295 
1536	 0.220524215452656 
1537	 0.220696548665451 
1538	 0.220827500613323 
1539	 0.221007940132219 
1540	 0.2212450777525 
1541	 0.221430138541218 
1542	 0.221625166959004 
1543	 0.221792865321672 
1544	 0.221878338060368 
1545	 0.222017490089912 
1546	 0.22220567829643 
1547	 0.222353293127936 
1548	 0.222471038164554 
1549	 0.222634439934139 
1550	 0.222812776720932 
1551	 0.222971687540728 
1552	 0.223200718274987 
1553	 0.223355884715464 
1554	 0.223401683517043 
1555	 0.223505599927253 
1556	 0.223618407760102 
1557	 0.22371957050896 
1558	 0.223844826114986 
1559	 0.223966463032779 
1560	 0.224051239335614 
1561	 0.224166374795645 
1562	 0.224331282325586 
1563	 0.224466342276277 
1564	 0.22457651833334 
1565	 0.22472739683444 
1566	 0.224803391377881 
1567	 0.224901970534466 
1568	 0.225082429211448 
1569	 0.22532908999198 
1570	 0.225477565809515 
1571	 0.225662405370454 
1572	 0.22578554129634 
1573	 0.225799515118534 
1574	 0.225898934223519 
1575	 0.226041251132414 
1576	 0.226153533489024 
1577	 0.226260531249466 
1578	 0.226342018052303 
1579	 0.226400895980506 
1580	 0.226504537104823 
1581	 0.226583865308786 
1582	 0.226736781231678 
1583	 0.226954522749409 
1584	 0.227153489803868 
1585	 0.227399751340528 
1586	 0.227553199363713 
1587	 0.227694100979819 
1588	 0.227783437106058 
1589	 0.227776490115582 
1590	 0.227860639743422 
1591	 0.227961452364795 
1592	 0.228050940809864 
1593	 0.228176372897295 
1594	 0.228257867851 
1595	 0.22828398984748 
1596	 0.228392812059986 
1597	 0.228536815109815 
1598	 0.228659283318234 
1599	 0.228835890013358 
1600	 0.228928733023457 
1601	 0.228952697318932 
1602	 0.229035795329522 
1603	 0.229102837257146 
1604	 0.229206887525323 
1605	 0.229354409876239 
1606	 0.229476223491584 
1607	 0.229615212642572 
1608	 0.229703753468103 
1609	 0.229747882035902 
1610	 0.229857684253243 
1611	 0.229951599420376 
1612	 0.230088826061966 
1613	 0.230310063938439 
1614	 0.230450928869869 
1615	 0.230571727576692 
1616	 0.230670814201466 
1617	 0.230724793297935 
1618	 0.230823425974118 
1619	 0.23093591653142 
1620	 0.231012192373575 
1621	 0.23110093889254 
1622	 0.231159683742849 
1623	 0.231155312565191 
1624	 0.231224054919654 
1625	 0.231307411780754 
1626	 0.231421888815981 
1627	 0.231604515717344 
1628	 0.231690538514205 
1629	 0.231741720667632 
1630	 0.231845342915557 
1631	 0.231918426078454 
1632	 0.232021169778422 
1633	 0.232185619685332 
1634	 0.232318516634756 
1635	 0.232441213779381 
1636	 0.232529732744541 
1637	 0.232609193433758 
1638	 0.232707067788051 
1639	 0.23275611624285 
1640	 0.232851241532291 
1641	 0.232999372259067 
1642	 0.233144975974317 
1643	 0.233274333232731 
1644	 0.233447992234477 
1645	 0.233732033754622 
1646	 0.233782102011572 
1647	 0.233736381838563 
1648	 0.233716688995494 
1649	 0.233479106989546 
1650	 0.233604052765463 
1651	 0.233977133110094 
1652	 0.234111884466038 
1653	 0.234330727468238 
1654	 0.23440025425736 
1655	 0.234243099156792 
1656	 0.234294424039796 
1657	 0.234449225004559 
1658	 0.23451011821612 
1659	 0.234540998305408 
1660	 0.234511878178311 
1661	 0.234400747582085 
1662	 0.234459113669551 
1663	 0.23449678058373 
1664	 0.2345094416296 
1665	 0.23469555723466 
1666	 0.234746301582417 
1667	 0.234790884612004 
1668	 0.234837131747956 
1669	 0.234781826598855 
1670	 0.234808900172976 
1671	 0.234817959984811 
1672	 0.234914684266271 
1673	 0.23501168790619 
1674	 0.234995252834871 
1675	 0.23506668856127 
1676	 0.235023912647949 
1677	 0.234929995337799 
1678	 0.234947905180334 
1679	 0.234857605222191 
1680	 0.23482952254312 
1681	 0.234875413559204 
1682	 0.234805942983332 
1683	 0.234782306558867 
1684	 0.234740600406966 
1685	 0.234757071947575 
1686	 0.234859425462506 
1687	 0.234808271503935 
1688	 0.234762536442549 
1689	 0.234687039937215 
1690	 0.234516847343972 
1691	 0.234440582819968 
1692	 0.234457509165537 
1693	 0.234389368385185 
1694	 0.23429330309777 
1695	 0.234228078680614 
1696	 0.234051346217124 
1697	 0.234021637812058 
1698	 0.234167538403186 
1699	 0.234209643976409 
1700	 0.234252146169223 
1701	 0.234328444785074 
1702	 0.234409692669461 
1703	 0.234427505810176 
1704	 0.234482283483884 
1705	 0.234477616437179 
1706	 0.234285577688632 
1707	 0.234275325835482 
1708	 0.234424880311057 
1709	 0.234403775970781 
1710	 0.234361294689145 
1711	 0.234283856462361 
1712	 0.234071497307123 
1713	 0.233983067550946 
1714	 0.23394949766019 
1715	 0.233945158344685 
1716	 0.233994515618912 
1717	 0.233979279641975 
1718	 0.234014283535687 
1719	 0.233982763677013 
1720	 0.233811864563736 
1721	 0.233765256676263 
1722	 0.233814496939647 
1723	 0.233725543496383 
1724	 0.233593551739774 
1725	 0.233573145501124 
1726	 0.233487485973753 
1727	 0.233471057037014 
1728	 0.233653630981859 
1729	 0.233609708838504 
1730	 0.233416193631487 
1731	 0.233313497250172 
1732	 0.23323062944694 
1733	 0.233247635119856 
1734	 0.233310174700366 
1735	 0.23330142329907 
1736	 0.233244903216984 
1737	 0.233266983800815 
1738	 0.233205509594731 
1739	 0.233157678724058 
1740	 0.233277329749362 
1741	 0.233235081807701 
1742	 0.233080029502861 
1743	 0.232887765211027 
1744	 0.232651998859552 
1745	 0.232618832661857 
1746	 0.232664736806461 
1747	 0.2327918982382 
1748	 0.232843639847784 
1749	 0.232582950816382 
1750	 0.232445142178813 
1751	 0.232435001258235 
1752	 0.232392375772965 
1753	 0.232468907045855 
1754	 0.23243729936658 
1755	 0.232264885560194 
1756	 0.232201507317976 
1757	 0.232184249325044 
1758	 0.232150497724896 
1759	 0.232074503475518 
1760	 0.231990441017366 
1761	 0.231945545177595 
1762	 0.231927124787907 
1763	 0.231913113396905 
1764	 0.231868765339582 
1765	 0.231832448621277 
1766	 0.231738948206174 
1767	 0.23154549901788 
1768	 0.231511388519464 
1769	 0.231578542425587 
1770	 0.231541910286874 
1771	 0.231569445353958 
1772	 0.231536433648645 
1773	 0.231321026946771 
1774	 0.231295205180237 
1775	 0.231355907196431 
1776	 0.231276079398027 
1777	 0.231134508937474 
1778	 0.231032459885464 
1779	 0.23074003461013 
1780	 0.230557885954426 
1781	 0.230610204707807 
1782	 0.230691488613384 
1783	 0.230846379006721 
1784	 0.230800963883539 
1785	 0.230658968766482 
1786	 0.230560445106503 
1787	 0.230339594991042 
1788	 0.230230791564533 
1789	 0.230203438844664 
1790	 0.229788316497919 
1791	 0.229262759857408 
1792	 0.228965802126676 
1793	 0.228697885900236 
1794	 0.228749575057967 
1795	 0.228934493379821 
1796	 0.228691397465681 
1797	 0.228226222398966 
1798	 0.22755051907707 
1799	 0.227261124045174 
1800	 0.227899308352868 
1801	 0.227331794669811 
1802	 0.226096960754186 
1803	 0.225091337999261 
1804	 0.223398074328173 
1805	 0.222854172089775 
1806	 0.222969971708724 
1807	 0.222806704492911 
1808	 0.2239540929944 
1809	 0.224835232806796 
1810	 0.22431855768213 
1811	 0.221950291519882 
1812	 0.22113278829875 
1813	 0.219262104592561 
1814	 0.219083543749796 
1815	 0.222153681987028 
1816	 0.22279058104086 
1817	 0.222758422335676 
1818	 0.222849961813454 
1819	 0.222420345090643 
1820	 0.220099956501845 
1821	 0.218553201806796 
1822	 0.21609995326127 
1823	 0.216418156293625 
1824	 0.218721648660347 
1825	 0.220108165096779 
1826	 0.227867791211645 
1827	 0.231168057488927 
1828	 0.231883974680703 
1829	 0.225047755442109 
1830	 0.221676863453557 
1831	 0.210259510612459 
1832	 0.206578792766335 
1833	 0.216725205436712 
1834	 0.216193442944901 
1835	 0.22005903967167 
1836	 0.219252887514745 
1837	 0.193719186051686 
1838	 0.1757040451576 
1839	 0.161475166913058 
1840	 0.153514141319135 
1841	 0.159436287078855 
1842	 0.181697197511851 
1843	 0.192119348556015 
1844	 0.217015783368445 
1845	 0.22773022720435 
1846	 0.217230589786072 
1847	 0.221078306159166 
1848	 0.228676463140751 
1849	 0.249934601832632 
1850	 0.245726839231648 
1851	 0.229936782877725 
1852	 0.226254322825419 
1853	 0.206895756557267 
1854	 0.205886096781434 
1855	 0.234547358571996 
1856	 0.240406627508467 
1857	 0.250361700808876 
1858	 0.229268854688956 
1859	 0.229141059940554 
1860	 0.222560998708501 
1861	 0.225802214414694 
1862	 0.244243953635803 
1863	 0.249470521707915 
1864	 0.248845901083233 
1865	 0.251743351393445 
1866	 0.255338466710985 
1867	 0.249995170090685 
1868	 0.261561628021693 
1869	 0.287641962771043 
1870	 0.291050618542329 
1871	 0.289567599494191 
1872	 0.285178340261766 
1873	 0.263074669111672 
1874	 0.248809118950619 
1875	 0.247557287150116 
1876	 0.238386390083766 
1877	 0.220961930803178 
1878	 0.214355809253567 
1879	 0.218138450402483 
1880	 0.220416768142195 
1881	 0.221459684988358 
1882	 0.229665968570683 
1883	 0.227706095404788 
1884	 0.218080761607921 
1885	 0.21330741011086 
1886	 0.204993086720275 
1887	 0.202132253362775 
1888	 0.205436002498259 
1889	 0.209486176133992 
1890	 0.210176980541306 
1891	 0.210822712123673 
1892	 0.213794994311074 
1893	 0.217342748341164 
1894	 0.217221614809163 
1895	 0.219253088858694 
1896	 0.219667867164322 
1897	 0.215663076893556 
1898	 0.205270801622799 
1899	 0.193871515321339 
1900	 0.199049919626863 
1901	 0.191264689978845 
1902	 0.168783475369871 
1903	 0.159049458440389 
1904	 0.143869125142746 
1905	 0.142279959888168 
1906	 0.156496595806186 
1907	 0.179456773693079 
1908	 0.192337328118463 
1909	 0.208517744965686 
1910	 0.198004257379472 
1911	 0.193209711435831 
1912	 0.196267197177897 
1913	 0.202136715492962 
1914	 0.201303045980602 
1915	 0.202514727791042 
1916	 0.200664632771116 
1917	 0.195380985189558 
1918	 0.190974085288907 
1919	 0.188676194038931 
1920	 0.192383688424019 
1921	 0.194934079926841 
1922	 0.195294901857367 
1923	 0.193854764645301 
1924	 0.189132445667217 
1925	 0.188252010731022 
1926	 0.186048667513181 
1927	 0.18733157327391 
1928	 0.192399371894585 
1929	 0.197394163669162 
1930	 0.197475716250814 
1931	 0.197519629929299 
1932	 0.196693215693303 
1933	 0.195417821239975 
1934	 0.195805401373216 
1935	 0.198194333433218 
1936	 0.198904316679598 
1937	 0.199047083136624 
1938	 0.19976831626915 
1939	 0.200577890064843 
1940	 0.201274365656497 
1941	 0.202165106551377 
1942	 0.202362186225971 
1943	 0.202405774844568 
1944	 0.202711347579819 
1945	 0.203287022810567 
1946	 0.204491082753402 
1947	 0.205513054003795 
1948	 0.206950641325858 
1949	 0.207984132548905 
1950	 0.208759864826849 
1951	 0.209746727935667 
1952	 0.211010462400247 
1953	 0.21187183218098 
1954	 0.212628752623457 
1955	 0.212722500150886 
1956	 0.212450880123112 
1957	 0.2120251079883 
1958	 0.212202020089223 
1959	 0.212763750011499 
1960	 0.213420675740487 
1961	 0.214186581657645 
1962	 0.215159693054134 
1963	 0.216188921938748 
1964	 0.216322953090606 
1965	 0.216212801264008 
1966	 0.216459575502642 
1967	 0.216512441690668 
1968	 0.216676433436198 
1969	 0.216987520778948 
1970	 0.217458071888018 
1971	 0.217721523197732 
1972	 0.217846957645936 
1973	 0.218533020470845 
1974	 0.218805584002098 
1975	 0.219045094008968 
1976	 0.219261786369846 
1977	 0.219240850900607 
1978	 0.219522141647368 
1979	 0.219795972998843 
1980	 0.220246006954169 
1981	 0.220785039967655 
1982	 0.221102736956179 
1983	 0.221198889649036 
1984	 0.221510336478492 
1985	 0.221751075108827 
1986	 0.221785865810382 
1987	 0.222025171440943 
1988	 0.222133789802758 
1989	 0.222438722743743 
1990	 0.222887623011654 
1991	 0.223016911656957 
1992	 0.22329270595213 
1993	 0.223521131999143 
1994	 0.22360486789435 
1995	 0.223713566658647 
1996	 0.223883860899641 
1997	 0.224030596513912 
1998	 0.224112476823742 
1999	 0.224202023113651 
2000	 0.223918373692764 
2001	 0.223882960519342 
2002	 0.224382838623778 
2003	 0.224576829545916 
2004	 0.225699275806386 
2005	 0.227088765606749 
2006	 0.22798562462528 
2007	 0.22850767039546 
2008	 0.229172117553998 
2009	 0.229328652006153 
2010	 0.229448062327597 
2011	 0.229764828049071 
2012	 0.229339265085309 
2013	 0.228967720559033 
2014	 0.229262714712936 
2015	 0.229317711823074 
2016	 0.229969127475819 
2017	 0.230978736053106 
2018	 0.231188828104296 
2019	 0.231311679274755 
2020	 0.231289259292795 
2021	 0.231024658951731 
2022	 0.230681598721959 
2023	 0.23066551428111 
2024	 0.230515300077639 
2025	 0.230343651819826 
2026	 0.230415702239685 
2027	 0.230384225151508 
2028	 0.23024371611279 
2029	 0.230608095693911 
2030	 0.230906748087124 
2031	 0.231041525780643 
2032	 0.231134322169046 
2033	 0.231304781357725 
2034	 0.231069231200591 
2035	 0.230952983602687 
2036	 0.230955856788175 
2037	 0.230990738939243 
2038	 0.230941497752403 
2039	 0.230679141291721 
2040	 0.230597440933311 
2041	 0.230388220986051 
2042	 0.230567786510589 
2043	 0.230992631834521 
2044	 0.230937379640864 
2045	 0.230918081977533 
2046	 0.230823839419907 
2047	 0.230748463745731 
2048	 0.230867015258944 
2049	 0.231222540824852 
2050	 0.231626148021337 
2051	 0.231985559124191 
2052	 0.231873532999585 
2053	 0.231725319411938 
2054	 0.231690535300869 
2055	 0.231345756290145 
2056	 0.231103874755319 
2057	 0.231131021841987 
2058	 0.231373677353259 
2059	 0.231533107416824 
2060	 0.231853305921943 
2061	 0.232198987117269 
2062	 0.232256041125973 
2063	 0.232047106736998 
2064	 0.231942661792541 
2065	 0.231846770435747 
2066	 0.23226714725713 
2067	 0.232926653526145 
2068	 0.233394359752203 
2069	 0.233731008572429 
2070	 0.233768132716795 
2071	 0.233549148755889 
2072	 0.233539039009257 
2073	 0.233595578551027 
2074	 0.233875838139967 
2075	 0.23370037194273 
2076	 0.233730129604687 
2077	 0.233878203402312 
2078	 0.233689007689943 
2079	 0.234107299406081 
2080	 0.234253033216042 
2081	 0.234060863024767 
2082	 0.234576589405092 
2083	 0.23469972824237 
2084	 0.234736824936621 
2085	 0.235193890929516 
2086	 0.235195230542791 
2087	 0.235136770314506 
2088	 0.234946491959478 
2089	 0.234948706425778 
2090	 0.235037031014768 
2091	 0.235173431391895 
2092	 0.235677153416711 
2093	 0.236186041936218 
2094	 0.236021404890564 
2095	 0.23613508323206 
2096	 0.236170082420554 
2097	 0.235983545666083 
2098	 0.236166739319759 
2099	 0.235920570118257 
2100	 0.235789350402655 
2101	 0.236219883747384 
2102	 0.23646762556024 
2103	 0.23682781113471 
2104	 0.237246415140232 
2105	 0.237444885365967 
2106	 0.23746346304119 
2107	 0.23738431121726 
2108	 0.237276769863453 
2109	 0.237369087844134 
2110	 0.23714299099738 
2111	 0.237237248324215 
2112	 0.237855188284563 
2113	 0.237846914083083 
2114	 0.238022616244016 
2115	 0.238615144517103 
2116	 0.238647713222867 
2117	 0.238832853597879 
2118	 0.239437450459808 
2119	 0.239717981875374 
2120	 0.239613605918401 
2121	 0.239869287096861 
2122	 0.240191696607772 
2123	 0.24003909787308 
2124	 0.240039834288056 
2125	 0.239849950203143 
2126	 0.239683688542667 
2127	 0.24005011607242 
2128	 0.240176719536685 
2129	 0.240259338969879 
2130	 0.240505647281128 
2131	 0.24062681670454 
2132	 0.240751231421064 
2133	 0.240998556978767 
2134	 0.241139436083842 
2135	 0.241164610035307 
2136	 0.241150370804818 
2137	 0.241461894876353 
2138	 0.241505547090787 
2139	 0.24130734694704 
2140	 0.24108357207765 
2141	 0.240723716427345 
2142	 0.240607986046245 
2143	 0.240878643938515 
2144	 0.241182497830464 
2145	 0.240906368446873 
2146	 0.24058359994003 
2147	 0.240618080368121 
2148	 0.240494579906533 
2149	 0.240281656581433 
2150	 0.240162736210205 
2151	 0.239892573025786 
2152	 0.238939198504064 
2153	 0.238651868973395 
2154	 0.238838626526433 
2155	 0.238707411498393 
2156	 0.238574171035392 
2157	 0.238806660815203 
2158	 0.238778822252305 
2159	 0.238646826668879 
2160	 0.238532544777897 
2161	 0.238302608192382 
2162	 0.238084081277314 
2163	 0.23797103574207 
2164	 0.237892076505667 
2165	 0.237954422119296 
2166	 0.237631897895914 
2167	 0.237642591367275 
2168	 0.237732930700387 
2169	 0.237986293106805 
2170	 0.237786341450924 
2171	 0.237569374818903 
2172	 0.237249024430358 
2173	 0.236688377341117 
2174	 0.236733879191562 
2175	 0.23659068195222 
2176	 0.236332543151618 
2177	 0.236159259260041 
2178	 0.235989427914182 
2179	 0.235848077338687 
2180	 0.235873599342166 
2181	 0.235580599996286 
2182	 0.234978679615467 
2183	 0.234964417335051 
2184	 0.234510029571495 
2185	 0.23397560839039 
2186	 0.233926811412788 
2187	 0.234154433475877 
2188	 0.235082968268218 
2189	 0.235374301854504 
2190	 0.235855609792331 
2191	 0.235536867535999 
2192	 0.234755954098258 
2193	 0.233929421218181 
2194	 0.23346855407245 
2195	 0.233730446322228 
2196	 0.234021855127978 
2197	 0.23351677403675 
2198	 0.23303411375002 
2199	 0.232591055470391 
2200	 0.232015814821288 
2201	 0.231648354983075 
2202	 0.231627789815369 
2203	 0.231513829391268 
2204	 0.23134314835373 
2205	 0.231595615036559 
2206	 0.231718818601823 
2207	 0.232021651849256 
2208	 0.232255878758357 
2209	 0.232476428594956 
2210	 0.232777849187229 
2211	 0.233238649099398 
2212	 0.233258879604795 
2213	 0.233163994223501 
2214	 0.233082621943387 
2215	 0.232560537344993 
2216	 0.232465300881331 
2217	 0.232705924215057 
2218	 0.2329139929463 
2219	 0.233199696803159 
2220	 0.233423134554549 
2221	 0.233683018526029 
2222	 0.233611688574002 
2223	 0.233335513540746 
2224	 0.232982303386116 
2225	 0.232573943990693 
2226	 0.232608370032841 
2227	 0.232812629316841 
2228	 0.23266355466116 
2229	 0.232636353481952 
2230	 0.232572858490046 
2231	 0.232525473932859 
2232	 0.232829680584835 
2233	 0.232742395822675 
2234	 0.232319842726261 
2235	 0.23210721386371 
2236	 0.232110132576377 
2237	 0.232198408857728 
2238	 0.232573494052744 
2239	 0.232880785928617 
2240	 0.233310558886091 
2241	 0.233790091777238 
2242	 0.234292125343619 
2243	 0.234488207738366 
2244	 0.234300248671854 
2245	 0.233630639834157 
2246	 0.233296354368441 
2247	 0.233615423938022 
2248	 0.233364827673373 
2249	 0.2332129537748 
2250	 0.232884242734011 
2251	 0.231837292293646 
2252	 0.231417180285521 
2253	 0.231293420537076 
2254	 0.231002281351611 
2255	 0.230711409219923 
2256	 0.230530997151131 
2257	 0.230314178927023 
2258	 0.230191577480318 
2259	 0.23015724667399 
2260	 0.230547085734566 
2261	 0.230663488651711 
2262	 0.230557705606125 
2263	 0.230699419305843 
2264	 0.23030258401696 
2265	 0.230408208995314 
2266	 0.230361633007375 
2267	 0.229407565503248 
2268	 0.229247574627834 
2269	 0.228762002953837 
2270	 0.227897438681389 
2271	 0.228239367676656 
2272	 0.228433628100658 
2273	 0.228259993092474 
2274	 0.228617239325649 
2275	 0.228903428039359 
2276	 0.228879968783835 
2277	 0.22921169227609 
2278	 0.229689175627571 
2279	 0.229271018350183 
2280	 0.228828817275174 
2281	 0.228642390420491 
2282	 0.227863240640009 
2283	 0.22758853770975 
2284	 0.228301557927882 
2285	 0.228340995307169 
2286	 0.228122444038408 
2287	 0.227749328358834 
2288	 0.228033279377579 
2289	 0.227691804129825 
2290	 0.227668053880511 
2291	 0.228268623213561 
2292	 0.22812917235581 
2293	 0.227905135414587 
2294	 0.227515883154991 
2295	 0.227658784851377 
2296	 0.227897424661348 
2297	 0.227363610908162 
2298	 0.227022560628313 
2299	 0.226547994194348 
2300	 0.226421908714105 
2301	 0.226973536291887 
2302	 0.227603592837472 
2303	 0.227804722162803 
2304	 0.227473053082721 
2305	 0.227076115922667 
2306	 0.226782144035243 
2307	 0.226808150635165 
2308	 0.227298105833328 
2309	 0.228178199905489 
2310	 0.228619936089983 
2311	 0.228396470903132 
2312	 0.228502578070776 
2313	 0.227861275614445 
2314	 0.226456347380096 
2315	 0.226796033242737 
2316	 0.227269950280588 
2317	 0.227322653753182 
2318	 0.228255303988398 
2319	 0.228065499775062 
2320	 0.227478226032486 
2321	 0.227520303109986 
2322	 0.227849770624256 
2323	 0.22825948627351 
2324	 0.229181433391116 
2325	 0.229744988898311 
2326	 0.230117946416489 
2327	 0.230361794875768 
2328	 0.230348447411766 
2329	 0.229433354149857 
2330	 0.229005530620431 
2331	 0.228574563281228 
2332	 0.227330770609959 
2333	 0.228324687639176 
2334	 0.229183398128575 
2335	 0.228926056235033 
2336	 0.229832604693432 
2337	 0.230903709676075 
2338	 0.231692274082591 
2339	 0.231971266724779 
2340	 0.231851929845581 
2341	 0.231364761997521 
2342	 0.230468389203991 
2343	 0.230033248213652 
2344	 0.230012793332881 
2345	 0.2295333956761 
2346	 0.228541173239534 
2347	 0.227465772743834 
2348	 0.227174701771142 
2349	 0.226881212238844 
2350	 0.226667131445228 
2351	 0.227822356416519 
2352	 0.229028173246818 
2353	 0.230012151746368 
2354	 0.230679949243939 
2355	 0.230755093898264 
2356	 0.23088053473301 
2357	 0.230641893112382 
2358	 0.230473149770285 
2359	 0.230402253169132 
2360	 0.230338537652654 
2361	 0.231164245898584 
2362	 0.231802393110865 
2363	 0.231037032266988 
2364	 0.230114856110478 
2365	 0.230476120853667 
2366	 0.229646742207654 
2367	 0.228401956770419 
2368	 0.228329724736771 
2369	 0.226447522751014 
2370	 0.225488076145811 
2371	 0.227068157992245 
2372	 0.228456088386241 
2373	 0.23063847471604 
2374	 0.232175469434259 
2375	 0.234199435374422 
2376	 0.234962384689116 
2377	 0.235126847249275 
2378	 0.235053855337397 
2379	 0.234295648790837 
2380	 0.233530499118212 
2381	 0.231407695684867 
2382	 0.230678341097125 
2383	 0.231511905221311 
2384	 0.23050644568609 
2385	 0.228186999730982 
2386	 0.227898315405015 
2387	 0.22713485130254 
2388	 0.226447798570291 
2389	 0.229321512887166 
2390	 0.230049677872579 
2391	 0.228018872430679 
2392	 0.227671143828531 
2393	 0.226822226102084 
2394	 0.22690569808365 
2395	 0.229048020057819 
2396	 0.229686380313726 
2397	 0.230699236314511 
2398	 0.231017684477425 
2399	 0.229609288172913 
2400	 0.229122422666924 
2401	 0.228697371126182 
2402	 0.228875920075627 
2403	 0.228557868765452 
2404	 0.226250615371477 
2405	 0.225039500292793 
2406	 0.223225668258628 
2407	 0.222808688709329 
2408	 0.224702913725009 
2409	 0.225881738039705 
2410	 0.224288808594646 
2411	 0.221660709597833 
2412	 0.220170802346648 
2413	 0.218108717643694 
2414	 0.220479123651482 
2415	 0.22214888066883 
2416	 0.219986735860962 
2417	 0.219153399749856 
2418	 0.217885741112825 
2419	 0.218597989736787 
2420	 0.221895575431365 
2421	 0.223131597853025 
2422	 0.221655564295392 
2423	 0.21981405767491 
2424	 0.216467348542818 
2425	 0.217687054025471 
2426	 0.221509917806621 
2427	 0.22201790029667 
2428	 0.22425717502605 
2429	 0.225062160940176 
2430	 0.222255628139778 
2431	 0.220446501404272 
2432	 0.218185573688126 
2433	 0.214263317313264 
2434	 0.214105273167944 
2435	 0.217849606134944 
2436	 0.220129264102441 
2437	 0.224608267249611 
2438	 0.226296845556481 
2439	 0.225995756520834 
2440	 0.225823400526713 
2441	 0.223165630669546 
2442	 0.222631828012584 
2443	 0.224002530744706 
2444	 0.224202710547258 
2445	 0.225729598620507 
2446	 0.224336440586039 
2447	 0.219085052448926 
2448	 0.214301063603573 
2449	 0.207672836182857 
2450	 0.205153834231083 
2451	 0.202626686953138 
2452	 0.204554911853013 
2453	 0.214528060161761 
2454	 0.216562045570599 
2455	 0.219104368324917 
2456	 0.217943335118621 
2457	 0.207015185984269 
2458	 0.204407336029569 
2459	 0.204565056289013 
2460	 0.206047611366896 
2461	 0.213229374856795 
2462	 0.216417870411885 
2463	 0.22002787637928 
2464	 0.220620557319794 
2465	 0.2195053225921 
2466	 0.216287321301123 
2467	 0.205130420085192 
2468	 0.199676645505404 
2469	 0.192834637734927 
2470	 0.192042990791267 
2471	 0.204073294958882 
2472	 0.209138190852226 
2473	 0.211913314230955 
2474	 0.21783624375843 
2475	 0.223349776916361 
2476	 0.223258127735846 
2477	 0.225827034199511 
2478	 0.221334285235334 
2479	 0.203732686650675 
2480	 0.194071170890072 
2481	 0.182328780582394 
2482	 0.178442129615111 
2483	 0.182701186733662 
2484	 0.171460189077779 
2485	 0.153780019125677 
2486	 0.153435467752085 
2487	 0.158819385404255 
2488	 0.164275623534375 
2489	 0.193056809695469 
2490	 0.176398255555053 
2491	 0.160591858790884 
2492	 0.222454853631514 
2493	 0.243798527740275 
2494	 0.25959122752305 
2495	 0.243502873243376 
2496	 0.188648089228706 
2497	 0.172861965384696 
2498	 0.17064727476163 
2499	 0.231078410048341 
2500	 0.273982246757311 
